66
124
153
150
115
56
-15
-85
-139
-164
-153
-105
-26
69
167
250
302
314
282
209
105
-17
-142
-253
-339
-389
-399
-370
-305
-212
-101
15
126
222
290
324
319
271
185
69
-66
-205
-331
-426
-477
-477
-425
-329
-201
-63
65
164
216
214
161
64
-57
-182
-287
-353
-367
-327
-239
-119
12
131
216
253
236
168
59
-71
-198
-303
-366
-378
-337
-250
-134
-7
108
190
226
209
139
25
-115
-261
-391
-487
-534
-526
-463
-356
-218
-71
68
181
256
286
268
208
116
4
-113
-221
-308
-364
-385
-367
-312
-226
-118
-2
108
196
245
245
188
75
-87
-282
-486
-673
-817
-897
-898
-817
-661
-451
-214
19
216
352
413
395
307
169
8
-150
-277
-356
-376
-337
-247
-123
15
146
250
313
328
292
211
98
-34
-165
-277
-355
-387
-370
-305
-204
-80
47
154
222
239
198
102
-37
-203
-372
-522
-634
-694
-693
-634
-526
-384
-226
-71
64
165
223
235
204
136
43
-62
-166
-254
-315
-341
-328
-278
-198
-98
6
100
170
205
198
152
69
-38
-155
-263
-349
-399
-406
-368
-293
-192
-81
25
107
155
160
121
45
-55
-164
-267
-347
-396
-407
-383
-330
-261
-188
-124
-80
-62
-68
-97
-139
-187
-228
-256
-263
-245
-202
-133
-44
59
168
273
367
439
483
493
469
416
339
251
166
95
51
40
62
112
181
255
318
358
365
336
271
178
68
-44
-144
-218
-257
-257
-214
-134
-22
112
256
398
524
623
684
704
679
614
518
404
287
184
109
73
81
130
210
305
397
466
494
469
389
256
84
-109
-300
-468
-591
-657
-660
-603
-495
-353
-197
-49
72
152
183
164
101
5
-108
-221
-320
-391
-426
-421
-377
-302
-207
-105
-9
69
118
130
105
46
-41
-143
-246
-337
-402
-430
-419
-367
-283
-179
-71
23
87
108
80
3
-115
-259
-410
-549
-654
-712
-712
-651
-534
-372
-182
20
217
395
545
667
766
855
950
1073
1244
1482
1799
2199
2680
3228
3825
4444
5060
5647
6179
6637
7009
7286
7467
7554
7554
7472
7318
7102
6832
6518
6168
5790
5389
4968
4527
4064
3577
3067
2536
1992
1449
929
455
54
-252
-447
-526
-495
-372
-185
34
250
433
558
615
605
538
434
316
207
127
87
91
135
207
290
363
408
410
360
255
101
-89
-298
-505
-688
-831
-918
-943
-906
-817
-688
-537
-385
-251
-151
-95
-86
-122
-193
-287
-389
-481
-550
-584
-578
-532
-453
-352
-243
-144
-69
-30
-36
-85
-173
-287
-410
-526
-615
-667
-673
-632
-551
-442
-322
-209
-123
-75
-72
-116
-199
-310
-433
-551
-646
-706
-722
-693
-625
-526
-412
-301
-210
-151
-134
-160
-227
-325
-441
-560
-664
-742
-781
-776
-727
-637
-517
-379
-237
-107
-3
63
81
48
-35
-162
-321
-494
-662
-807
-909
-957
-946
-878
-763
-617
-462
-318
-205
-134
-112
-135
-194
-272
-351
-414
-446
-440
-395
-319
-224
-124
-36
25
52
40
-8
-82
-171
-260
-334
-384
-403
-390
-347
-285
-214
-147
-95
-65
-61
-84
-133
-200
-277
-353
-420
-468
-492
-488
-457
-399
-321
-230
-134
-44
30
80
100
89
46
-22
-108
-201
-289
-362
-410
-429
-418
-378
-316
-242
-166
-100
-55
-37
-49
-91
-154
-228
-300
-357
-387
-380
-336
-256
-150
-31
84
181
245
268
248
188
97
-13
-126
-230
-314
-369
-392
-385
-352
-302
-243
-186
-141
-115
-115
-140
-191
-262
-344
-427
-497
-543
-557
-532
-467
-368
-243
-108
24
136
216
256
251
205
126
28
-74
-162
-224
-249
-232
-175
-88
17
123
211
266
280
249
176
72
-47
-163
-259
-318
-334
-303
-231
-127
-6
115
221
300
345
353
325
269
193
108
26
-43
-90
-109
-98
-55
14
104
203
297
373
419
422
379
289
161
9
-148
-289
-394
-445
-433
-360
-234
-74
95
248
360
414
400
320
187
22
-149
-298
-404
-450
-432
-353
-229
-83
61
178
247
257
203
93
-56
-224
-385
-517
-600
-624
-585
-489
-349
-185
-16
136
253
323
340
305
222
106
-27
-160
-275
-359
-400
-393
-341
-250
-136
-16
90
166
196
173
98
-20
-166
-317
-451
-547
-591
-574
-498
-374
-220
-56
96
217
294
322
300
237
143
34
-76
-172
-242
-280
-281
-245
-178
-87
16
118
203
259
277
252
186
88
-28
-146
-247
-317
-345
-328
-272
-190
-98
-16
39
53
22
-52
-159
-281
-400
-500
-562
-577
-542
-461
-343
-204
-59
76
187
265
303
303
268
205
125
36
-52
-131
-196
-244
-274
-288
-288
-276
-257
-233
-208
-187
-173
-167
-172
-186
-207
-232
-255
-271
-274
-260
-226
-173
-106
-32
38
93
124
126
95
34
-49
-144
-238
-318
-371
-392
-377
-329
-255
-168
-79
-3
50
71
57
10
-62
-148
-236
-311
-364
-385
-373
-327
-254
-163
-68
19
86
125
130
102
44
-37
-129
-222
-304
-366
-399
-400
-369
-310
-232
-146
-64
3
44
53
28
-29
-111
-205
-300
-380
-433
-452
-433
-379
-298
-199
-96
-4
65
99
93
48
-31
-134
-247
-353
-436
-483
-485
-441
-357
-247
-129
-26
42
57
11
-96
-254
-441
-632
-799
-915
-962
-932
-826
-658
-450
-228
-20
150
266
318
308
244
141
17
-110
-224
-311
-364
-379
-357
-305
-229
-142
-53
24
80
108
101
60
-12
-108
-215
-320
-410
-471
-496
-480
-426
-341
-237
-130
-36
33
65
59
15
-60
-155
-257
-353
-432
-487
-514
-515
-494
-458
-416
-375
-341
-319
-311
-316
-333
-358
-387
-415
-437
-446
-439
-411
-360
-288
-199
-100
-4
79
136
160
144
89
2
-108
-225
-333
-417
-465
-470
-431
-354
-250
-133
-19
73
132
148
116
40
-73
-209
-351
-483
-586
-647
-656
-609
-512
-374
-214
-49
102
220
293
315
287
218
121
14
-86
-162
-201
-196
-148
-62
49
171
284
373
423
427
383
298
182
54
-66
-160
-213
-215
-168
-77
42
171
291
384
435
438
395
313
208
96
-8
-90
-141
-157
-140
-97
-38
28
89
134
156
147
105
30
-76
-206
-349
-494
-623
-724
-782
-790
-744
-650
-519
-367
-216
-87
2
39
21
-46
-150
-270
-385
-473
-519
-516
-463
-369
-248
-122
-11
67
99
81
15
-89
-212
-336
-440
-509
-532
-505
-433
-330
-211
-98
-11
34
27
-33
-140
-283
-442
-598
-730
-823
-863
-846
-773
-652
-494
-315
-130
46
202
328
423
487
529
560
597
657
756
911
1132
1425
1787
2212
2685
3187
3700
4205
4685
5128
5530
5887
6202
6478
6714
6909
7056
7146
7168
7106
6951
6696
6340
5890
5362
4776
4158
3535
2931
2369
1866
1433
1073
783
559
388
259
159
78
4
-69
-146
-227
-311
-392
-462
-515
-543
-539
-500
-427
-324
-201
-68
58
165
239
273
260
204
110
-9
-140
-269
-380
-464
-512
-520
-492
-433
-353
-264
-180
-114
-77
-75
-112
-185
-287
-407
-529
-637
-719
-763
-764
-726
-657
-571
-485
-416
-377
-376
-413
-482
-567
-653
-722
-760
-758
-713
-631
-523
-403
-287
-189
-118
-80
-75
-100
-148
-212
-285
-359
-430
-493
-544
-581
-599
-599
-578
-538
-483
-420
-358
-306
-272
-263
-281
-325
-387
-457
-524
-572
-593
-580
-531
-451
-351
-244
-147
-74
-38
-43
-91
-175
-284
-404
-517
-608
-664
-678
-648
-580
-482
-369
-256
-157
-86
-53
-63
-116
-208
-332
-475
-623
-760
-872
-946
-975
-954
-886
-778
-643
-497
-359
-244
-165
-128
-133
-172
-232
-296
-348
-371
-358
-305
-219
-111
3
106
180
214
201
143
48
-71
-197
-313
-402
-454
-464
-431
-363
-271
-169
-72
8
61
81
66
21
-49
-132
-218
-296
-358
-397
-411
-398
-361
-306
-239
-169
-104
-51
-16
-4
-15
-47
-93
-146
-194
-228
-238
-218
-169
-95
-5
89
172
233
261
254
212
144
60
-27
-105
-165
-199
-208
-194
-163
-124
-85
-53
-34
-30
-44
-72
-113
-162
-214
-261
-296
-312
-305
-270
-206
-118
-12
100
204
285
333
339
300
222
113
-12
-134
-238
-308
-335
-314
-249
-148
-26
101
218
308
360
368
332
257
153
37
-77
-171
-232
-251
-222
-148
-38
95
234
360
458
513
520
478
394
280
155
34
-63
-125
-144
-118
-52
39
142
237
311
352
354
318
251
162
65
-29
-112
-177
-224
-254
-274
-287
-300
-314
-331
-348
-364
-375
-380
-377
-366
-349
-327
-298
-262
-218
-163
-96
-19
65
148
223
279
306
298
252
170
61
-64
-188
-296
-374
-414
-411
-367
-290
-194
-94
-4
61
91
83
38
-37
-132
-234
-329
-405
-453
-469
-452
-408
-344
-272
-202
-146
-113
-108
-134
-185
-257
-338
-417
-481
-520
-523
-486
-410
-302
-170
-32
96
198
259
271
234
154
42
-83
-202
-298
-356
-368
-337
-269
-178
-81
4
64
87
70
16
-65
-163
-261
-346
-406
-432
-422
-378
-306
-218
-124
-37
33
76
87
65
12
-64
-152
-242
-321
-379
-408
-404
-368
-304
-222
-135
-54
9
45
51
26
-24
-91
-166
-236
-295
-337
-361
-366
-356
-336
-312
-288
-267
-252
-244
-243
-249
-259
-271
-283
-291
-289
-274
-242
-191
-122
-40
47
128
191
226
223
180
98
-15
-146
-278
-396
-487
-539
-548
-515
-447
-353
-246
-141
-51
16
53
57
29
-26
-100
-182
-262
-328
-370
-381
-359
-306
-229
-137
-44
38
96
121
110
62
-15
-112
-218
-316
-396
-446
-462
-442
-390
-314
-225
-138
-64
-17
-3
-28
-88
-177
-281
-387
-477
-537
-557
-532
-463
-361
-238
-112
0
81
121
114
63
-24
-136
-254
-363
-449
-500
-510
-478
-410
-315
-209
-106
-20
34
49
22
-43
-138
-248
-356
-445
-499
-510
-477
-404
-307
-201
-109
-50
-36
-76
-167
-297
-449
-600
-729
-815
-845
-814
-724
-587
-418
-236
-60
90
203
270
288
259
190
93
-20
-135
-237
-316
-363
-372
-345
-285
-203
-110
-21
51
94
100
68
-2
-99
-211
-322
-419
-486
-515
-502
-448
-359
-247
-127
-16
69
113
109
51
-56
-202
-369
-536
-683
-788
-837
-823
-746
-617
-454
-282
-124
-3
65
73
23
-73
-196
-322
-428
-494
-507
-463
-366
-227
-66
97
240
345
401
402
351
258
137
6
-116
-209
-262
-265
-218
-126
-1
140
278
395
474
507
489
423
321
196
65
-52
-141
-190
-193
-151
-70
39
164
288
398
482
530
537
505
437
342
231
120
23
-48
-84
-80
-37
37
130
226
309
362
374
336
250
123
-33
-198
-354
-483
-570
-606
-588
-523
-423
-305
-187
-87
-18
9
-9
-66
-152
-252
-350
-429
-475
-480
-441
-365
-261
-144
-32
57
109
114
69
-24
-153
-305
-461
-601
-708
-768
-774
-725
-629
-495
-341
-185
-45
62
127
143
110
35
-70
-188
-301
-393
-452
-469
-443
-380
-292
-195
-109
-49
-26
-45
-102
-182
-268
-336
-364
-331
-227
-45
210
526
886
1274
1672
2070
2461
2843
3218
3594
3977
4373
4784
5211
5647
6083
6505
6895
7235
7503
7677
7737
7669
7464
7123
6658
6089
5445
4763
4081
3433
2849
2344
1927
1593
1329
1115
930
758
587
413
239
72
-77
-197
-281
-325
-333
-309
-262
-199
-128
-53
22
94
161
219
261
279
265
211
113
-25
-192
-372
-543
-681
-768
-789
-742
-634
-483
-314
-157
-35
31
34
-23
-127
-259
-393
-507
-584
-615
-598
-543
-461
-371
-287
-223
-188
-185
-214
-269
-342
-423
-503
-572
-622
-646
-641
-605
-543
-461
-368
-276
-200
-151
-139
-167
-232
-325
-432
-536
-620
-671
-678
-641
-564
-459
-342
-230
-140
-81
-63
-83
-138
-217
-307
-395
-470
-524
-552
-554
-532
-492
-441
-387
-337
-298
-275
-271
-286
-319
-366
-420
-473
-517
-544
-549
-526
-474
-396
-301
-199
-102
-25
21
27
-12
-91
-202
-330
-455
-558
-622
-634
-589
-493
-359
-208
-67
40
93
78
-7
-151
-336
-534
-718
-858
-936
-939
-867
-733
-554
-354
-158
10
134
206
223
192
122
27
-78
-182
-272
-341
-381
-390
-369
-321
-251
-168
-82
-4
54
83
75
28
-53
-159
-277
-390
-478
-526
-523
-468
-363
-223
-65
88
211
287
304
256
152
7
-157
-314
-439
-511
-518
-460
-345
-191
-22
136
261
336
352
309
215
89
-51
-183
-289
-356
-376
-348
-276
-172
-49
77
191
280
330
337
296
211
90
-54
-205
-346
-457
-527
-545
-512
-430
-312
-177
-44
69
146
177
163
107
23
-72
-162
-230
-264
-256
-207
-123
-16
100
207
292
342
350
314
239
134
13
-107
-211
-282
-309
-288
-219
-111
23
165
296
401
464
478
445
371
267
150
36
-58
-121
-145
-128
-75
6
102
200
286
349
380
373
330
257
162
58
-40
-119
-167
-178
-150
-86
4
104
199
272
310
304
255
169
58
-62
-171
-253
-294
-289
-240
-155
-47
66
167
239
273
264
214
131
26
-86
-193
-282
-342
-368
-358
-313
-240
-145
-38
67
159
226
257
247
193
99
-26
-167
-307
-425
-505
-534
-505
-420
-291
-134
29
173
279
332
325
265
161
30
-107
-228
-315
-354
-341
-279
-178
-55
72
182
260
293
278
217
121
8
-104
-196
-254
-269
-244
-186
-112
-40
9
23
-6
-76
-176
-290
-399
-483
-528
-525
-476
-387
-269
-139
-8
112
214
295
354
389
402
390
353
290
201
90
-33
-156
-266
-346
-384
-373
-312
-208
-76
66
197
297
353
356
306
211
86
-51
-179
-280
-342
-356
-320
-240
-127
1
124
226
289
304
265
179
55
-88
-230
-351
-432
-462
-435
-355
-236
-95
47
170
253
285
263
190
79
-52
-184
-296
-371
-400
-380
-314
-215
-99
17
116
185
215
204
155
77
-19
-120
-214
-290
-341
-361
-348
-306
-239
-152
-57
36
115
171
193
176
118
24
-97
-230
-359
-467
-537
-559
-530
-453
-340
-208
-77
34
109
138
118
56
-34
-134
-227
-294
-323
-307
-249
-158
-50
60
153
214
233
207
140
43
-71
-184
-280
-347
-378
-373
-336
-281
-221
-170
-141
-142
-174
-234
-313
-398
-477
-535
-564
-557
-512
-432
-321
-190
-49
90
215
316
381
403
377
304
188
40
-127
-294
-441
-550
-607
-605
-543
-432
-287
-129
21
141
215
234
199
117
2
-128
-254
-358
-425
-447
-425
-362
-270
-162
-55
37
100
127
113
62
-19
-119
-223
-316
-384
-417
-409
-362
-282
-181
-73
25
99
137
133
88
7
-99
-217
-328
-419
-477
-492
-464
-394
-292
-169
-41
74
162
211
215
171
85
-32
-164
-294
-402
-474
-499
-473
-401
-293
-167
-43
58
119
130
87
-4
-130
-272
-408
-516
-580
-589
-540
-440
-302
-143
17
157
261
314
313
258
155
19
-134
-284
-413
-502
-539
-518
-437
-306
-138
44
217
359
450
476
435
332
182
8
-164
-308
-404
-436
-400
-301
-154
19
195
351
468
534
544
503
423
319
208
108
35
-1
4
48
127
228
337
440
522
574
588
564
505
419
319
218
129
65
31
32
64
121
191
262
320
353
355
320
249
147
24
-108
-235
-341
-413
-444
-427
-365
-267
-143
-12
108
200
249
248
196
100
-26
-162
-290
-393
-454
-466
-428
-349
-240
-120
-6
87
145
161
134
70
-23
-129
-235
-325
-386
-410
-394
-341
-259
-162
-66
10
48
38
-26
-143
-300
-479
-655
-804
-903
-937
-897
-788
-624
-425
-218
-27
125
224
265
253
201
129
57
6
-5
35
131
285
492
744
1033
1351
1689
2042
2405
2777
3156
3543
3939
4344
4757
5180
5609
6038
6456
6850
7201
7489
7695
7797
7780
7634
7360
6966
6472
5902
5288
4664
4062
3507
3018
2603
2262
1986
1760
1565
1385
1203
1013
810
601
395
204
42
-78
-148
-166
-134
-61
41
158
272
369
437
467
455
403
317
204
78
-49
-163
-253
-310
-330
-314
-267
-198
-118
-41
19
52
49
7
-71
-179
-302
-426
-534
-610
-644
-630
-569
-469
-348
-225
-122
-59
-52
-107
-221
-381
-566
-748
-899
-995
-1018
-963
-833
-645
-424
-197
6
161
253
274
228
127
-11
-164
-312
-436
-522
-563
-557
-509
-427
-325
-217
-119
-45
-7
-13
-65
-161
-290
-436
-581
-704
-788
-819
-790
-701
-563
-394
-216
-51
78
154
170
127
33
-95
-236
-368
-471
-531
-539
-498
-416
-306
-187
-77
8
56
58
15
-67
-178
-302
-425
-531
-606
-640
-630
-576
-485
-367
-239
-117
-17
48
69
43
-26
-128
-249
-372
-480
-557
-591
-577
-516
-415
-287
-148
-16
93
164
190
168
100
-4
-130
-261
-380
-470
-520
-522
-476
-388
-270
-138
-11
94
163
186
160
90
-15
-136
-256
-356
-422
-442
-412
-337
-226
-96
35
148
225
258
244
184
91
-20
-130
-222
-279
-294
-263
-193
-94
16
120
201
246
246
200
115
0
-129
-255
-363
-439
-472
-460
-403
-309
-189
-59
65
168
235
259
234
164
56
-75
-214
-341
-441
-500
-512
-475
-397
-289
-168
-51
44
102
116
82
7
-98
-219
-336
-432
-489
-499
-458
-370
-246
-104
35
152
228
250
216
128
0
-150
-299
-425
-508
-537
-505
-419
-290
-137
20
160
266
326
338
303
234
144
51
-30
-85
-106
-90
-41
35
124
214
291
344
363
345
290
206
104
-4
-102
-175
-212
-204
-150
-56
68
207
345
464
550
591
584
529
432
304
161
18
-109
-206
-264
-277
-244
-171
-65
58
182
291
367
400
381
313
204
68
-74
-201
-292
-331
-311
-235
-112
40
195
331
426
465
443
365
243
97
-48
-172
-256
-287
-264
-192
-82
48
179
292
373
412
405
355
269
159
40
-74
-168
-232
-259
-247
-198
-119
-22
80
172
242
280
279
240
168
75
-28
-125
-202
-247
-254
-222
-156
-66
35
134
216
271
291
277
230
160
75
-13
-92
-152
-185
-189
-161
-105
-27
63
156
241
307
346
352
323
262
177
76
-26
-118
-186
-219
-212
-165
-84
22
139
248
334
381
383
336
246
127
-5
-127
-220
-268
-263
-206
-106
21
151
260
327
335
279
163
1
-187
-372
-526
-624
-652
-602
-477
-292
-71
158
365
524
616
630
570
446
281
99
-71
-205
-286
-304
-262
-168
-39
105
243
359
440
478
470
419
334
223
98
-29
-148
-245
-312
-339
-325
-268
-174
-56
70
185
271
311
298
230
114
-32
-186
-327
-432
-486
-481
-418
-307
-166
-16
121
227
291
306
273
201
104
-3
-102
-178
-221
-223
-188
-121
-36
53
125
168
168
123
34
-88
-226
-359
-467
-532
-542
-492
-390
-249
-86
74
211
304
343
323
250
135
-5
-149
-278
-376
-428
-431
-383
-293
-172
-39
90
197
269
295
273
208
108
-12
-135
-243
-322
-363
-361
-318
-243
-149
-53
30
87
110
96
47
-29
-122
-219
-308
-378
-420
-430
-407
-353
-274
-177
-72
30
118
186
225
232
206
149
70
-22
-114
-194
-252
-281
-276
-241
-182
-109
-33
32
78
99
94
65
18
-37
-92
-139
-173
-191
-192
-180
-156
-125
-92
-62
-38
-23
-19
-29
-51
-85
-128
-173
-215
-245
-256
-243
-203
-138
-54
39
130
204
251
260
229
160
62
-52
-165
-260
-325
-347
-325
-261
-165
-53
59
151
209
221
185
104
-10
-140
-266
-369
-431
-443
-400
-307
-176
-25
127
258
353
403
403
359
282
187
91
9
-45
-65
-46
6
87
184
286
383
463
518
544
538
502
440
362
276
196
132
93
83
107
159
233
318
402
473
520
538
522
477
407
322
233
149
79
30
6
6
30
71
125
183
240
288
320
333
322
288
233
163
87
14
-47
-86
-98
-81
-39
22
91
153
197
209
182
113
7
-128
-277
-425
-553
-647
-696
-693
-639
-541
-412
-269
-129
-7
82
131
137
106
47
-28
-103
-163
-196
-197
-164
-102
-22
64
141
197
220
207
157
75
-29
-143
-254
-349
-420
-459
-467
-445
-400
-339
-271
-207
-151
-110
-84
-69
-61
-52
-31
11
85
200
362
572
828
1127
1462
1824
2203
2593
2986
3380
3774
4171
4574
4985
5405
5832
6260
6674
7058
7389
7643
7797
7834
7739
7511
7155
6688
6136
5531
4908
4298
3730
3225
2793
2435
2144
1905
1701
1512
1324
1127
919
704
492
294
123
-7
-88
-116
-91
-21
85
212
345
469
568
631
649
616
534
407
247
67
-115
-280
-411
-494
-521
-493
-414
-299
-167
-39
63
125
135
94
9
-106
-232
-348
-434
-477
-470
-413
-317
-195
-67
49
134
175
166
106
5
-128
-274
-415
-534
-617
-653
-641
-582
-487
-371
-250
-142
-61
-19
-22
-68
-150
-254
-365
-465
-540
-580
-582
-546
-479
-391
-295
-207
-135
-89
-74
-90
-134
-198
-274
-353
-425
-482
-515
-519
-491
-431
-341
-229
-107
12
109
169
176
122
5
-168
-381
-609
-826
-1002
-1111
-1138
-1076
-933
-726
-485
-240
-25
136
225
237
179
71
-64
-199
-308
-373
-383
-338
-249
-131
-5
107
186
219
200
131
24
-109
-246
-369
-460
-506
-503
-449
-355
-236
-111
2
84
120
106
42
-64
-194
-331
-453
-544
-589
-582
-524
-424
-294
-150
-11
105
186
224
214
161
73
-36
-149
-250
-323
-354
-336
-271
-165
-34
103
223
306
334
300
203
55
-126
-315
-486
-613
-679
-674
-600
-466
-292
-102
82
236
344
396
392
336
240
120
-7
-124
-217
-276
-295
-273
-215
-131
-31
69
155
213
232
207
139
34
-99
-244
-383
-499
-577
-606
-582
-507
-390
-246
-94
49
162
232
250
216
136
23
-104
-225
-319
-372
-375
-327
-237
-118
8
121
203
238
222
155
48
-82
-216
-332
-413
-448
-429
-361
-250
-111
39
183
307
399
450
459
428
363
275
176
80
-1
-54
-73
-54
2
86
188
292
383
445
468
444
376
271
141
5
-118
-210
-258
-256
-202
-106
20
157
285
387
451
470
441
370
267
148
29
-75
-151
-191
-189
-146
-67
40
162
286
396
478
522
516
456
343
183
-12
-223
-430
-611
-745
-816
-815
-743
-608
-428
-226
-28
144
271
341
355
320
252
171
99
52
42
72
135
220
309
383
429
437
402
329
228
113
0
-95
-162
-192
-183
-136
-60
36
140
238
317
363
366
322
231
99
-62
-234
-397
-528
-607
-620
-563
-441
-268
-70
127
293
406
451
423
332
197
42
-105
-218
-279
-281
-224
-120
10
146
263
345
380
363
300
200
79
-49
-165
-257
-315
-336
-318
-267
-189
-95
4
97
172
219
233
213
162
87
-2
-91
-166
-217
-236
-218
-167
-92
-3
83
152
194
199
169
106
20
-74
-162
-228
-261
-255
-211
-132
-31
79
183
265
315
325
296
232
142
40
-61
-148
-210
-244
-247
-224
-182
-131
-81
-38
-10
1
-6
-27
-61
-101
-145
-186
-222
-247
-258
-249
-219
-165
-90
0
97
189
263
308
315
282
210
109
-6
-119
-212
-268
-281
-246
-171
-69
41
144
221
260
256
209
128
27
-79
-175
-248
-291
-300
-278
-232
-172
-109
-55
-18
-3
-15
-52
-111
-186
-268
-350
-421
-473
-497
-488
-443
-361
-250
-118
23
156
266
340
370
351
288
190
71
-49
-154
-226
-256
-241
-183
-94
11
113
197
246
254
216
140
34
-84
-199
-293
-354
-372
-347
-284
-193
-87
18
106
164
184
162
102
12
-96
-207
-306
-380
-418
-416
-373
-296
-195
-83
23
109
162
174
141
69
-35
-155
-274
-376
-443
-464
-437
-362
-251
-118
16
134
217
254
240
177
75
-50
-182
-301
-391
-440
-444
-404
-325
-222
-107
3
94
154
175
156
99
13
-91
-200
-299
-374
-415
-415
-371
-290
-180
-55
69
174
244
271
249
181
76
-49
-176
-286
-360
-388
-363
-292
-184
-60
60
153
202
196
131
16
-135
-298
-450
-567
-629
-625
-552
-417
-235
-27
184
374
525
622
660
640
571
468
349
232
133
67
42
60
118
209
320
437
546
632
684
698
670
604
507
390
266
148
49
-20
-54
-51
-13
54
140
232
315
379
414
413
377
310
222
124
31
-44
-92
-106
-86
-38
30
106
175
225
246
231
181
97
-12
-135
-259
-372
-460
-515
-529
-503
-440
-347
-239
-129
-33
36
68
58
9
-71
-170
-271
-355
-412
-431
-409
-351
-265
-168
-75
0
46
54
24
-40
-128
-229
-329
-413
-471
-495
-480
-429
-347
-245
-137
-37
40
81
79
32
-53
-166
-289
-402
-485
-522
-502
-422
-286
-106
100
314
517
696
842
957
1046
1126
1215
1335
1508
1749
2071
2476
2958
3502
4089
4693
5285
5839
6330
6740
7057
7276
7398
7428
7374
7244
7047
6791
6482
6124
5719
5275
4797
4295
3778
3259
2749
2259
1799
1378
1000
671
393
168
-2
-118
-182
-198
-174
-120
-49
23
83
118
122
94
35
-43
-128
-205
-261
-285
-274
-227
-154
-66
21
92
132
131
86
-2
-123
-265
-412
-547
-654
-720
-737
-706
-630
-520
-390
-260
-147
-66
-30
-41
-99
-193
-308
-425
-524
-589
-607
-575
-498
-389
-268
-158
-84
-62
-104
-211
-371
-566
-770
-953
-1089
-1155
-1142
-1047
-882
-667
-429
-195
6
152
230
236
176
62
-85
-243
-390
-506
-577
-595
-561
-483
-372
-247
-126
-25
42
65
41
-25
-123
-242
-363
-470
-549
-588
-584
-537
-455
-350
-237
-133
-53
-9
-8
-50
-132
-241
-365
-487
-590
-660
-688
-669
-605
-506
-382
-251
-129
-34
23
35
0
-77
-185
-308
-431
-535
-606
-634
-615
-552
-455
-339
-222
-123
-60
-43
-79
-163
-287
-431
-576
-698
-777
-799
-755
-650
-492
-301
-99
88
238
335
370
345
267
152
22
-105
-209
-276
-300
-280
-223
-141
-49
37
104
140
139
101
30
-66
-173
-278
-366
-425
-444
-421
-355
-255
-130
2
123
218
274
283
245
167
61
-55
-165
-251
-301
-309
-276
-208
-117
-15
83
165
223
251
249
218
163
93
14
-64
-132
-181
-203
-193
-149
-74
25
135
241
327
375
374
319
213
67
-99
-263
-400
-491
-521
-485
-389
-248
-81
86
231
334
382
372
309
206
81
-48
-161
-243
-282
-275
-223
-132
-14
119
251
368
456
506
510
467
379
254
107
-47
-190
-303
-370
-382
-335
-235
-95
66
227
364
460
501
484
415
306
179
56
-43
-101
-107
-63
26
145
277
401
501
562
578
544
467
353
216
70
-70
-190
-279
-329
-337
-302
-232
-140
-39
54
121
152
137
76
-24
-149
-280
-395
-476
-509
-487
-411
-293
-150
-3
127
221
265
257
197
97
-28
-159
-278
-368
-419
-424
-385
-309
-207
-96
9
90
137
142
104
29
-75
-190
-302
-394
-451
-466
-436
-365
-263
-145
-28
72
139
164
142
74
-32
-163
-304
-436
-543
-611
-631
-600
-523
-409
-273
-135
-11
80
127
125
77
-8
-115
-225
-319
-382
-402
-374
-302
-194
-67
61
170
245
273
249
174
59
-82
-230
-364
-467
-526
-533
-489
-402
-286
-160
-43
47
97
101
57
-28
-139
-261
-374
-461
-508
-508
-458
-363
-233
-84
67
200
297
345
337
271
155
3
-167
-332
-470
-563
-600
-576
-497
-374
-227
-77
55
151
200
198
149
61
-50
-166
-269
-346
-389
-392
-356
-291
-209
-124
-51
-2
12
-11
-70
-157
-260
-365
-456
-522
-553
-546
-503
-431
-340
-244
-156
-87
-44
-33
-54
-104
-176
-264
-357
-447
-524
-579
-606
-599
-558
-483
-383
-267
-149
-42
40
86
90
51
-24
-124
-234
-338
-418
-464
-467
-428
-352
-252
-141
-38
42
86
88
47
-31
-134
-248
-355
-440
-491
-501
-470
-405
-318
-223
-138
-78
-52
-67
-121
-207
-312
-420
-516
-586
-620
-613
-565
-483
-378
-261
-149
-54
12
44
37
-6
-79
-173
-274
-372
-452
-504
-523
-505
-454
-375
-281
-187
-107
-56
-46
-83
-165
-288
-437
-593
-735
-843
-899
-892
-820
-690
-517
-323
-134
24
130
173
147
62
-67
-217
-361
-476
-543
-553
-505
-411
-289
-162
-55
12
27
-17
-112
-245
-396
-542
-661
-735
-756
-719
-631
-504
-357
-211
-81
16
69
75
35
-42
-144
-257
-365
-453
-511
-532
-514
-461
-379
-280
-176
-83
-13
24
23
-20
-98
-203
-324
-444
-548
-622
-656
-643
-585
-486
-360
-218
-79
42
129
175
173
129
51
-47
-148
-235
-292
-308
-279
-205
-97
33
168
291
385
439
448
409
329
218
90
-40
-157
-247
-302
-318
-293
-233
-146
-45
56
144
207
236
228
184
111
19
-79
-168
-234
-269
-266
-226
-155
-64
33
120
182
206
184
114
-1
-149
-315
-479
-621
-724
-774
-768
-707
-602
-472
-340
-228
-155
-134
-168
-252
-372
-506
-632
-726
-770
-756
-685
-565
-414
-255
-111
-1
58
60
6
-95
-228
-373
-511
-625
-699
-725
-702
-634
-531
-408
-279
-162
-72
-17
-4
-34
-103
-201
-317
-436
-543
-627
-679
-693
-668
-608
-517
-404
-280
-156
-41
55
127
174
199
211
223
253
324
454
664
964
1361
1848
2410
3023
3656
4277
4857
5373
5808
6158
6428
6628
6772
6872
6934
6956
6930
6844
6685
6439
6099
5666
5149
4567
3943
3305
2681
2096
1570
1118
750
468
270
150
93
83
96
110
99
45
-67
-237
-457
-705
-950
-1157
-1293
-1332
-1263
-1088
-828
-515
-190
104
332
467
500
436
291
95
-121
-325
-490
-600
-646
-631
-564
-464
-350
-240
-154
-105
-101
-143
-228
-344
-481
-621
-747
-848
-911
-933
-913
-854
-769
-671
-575
-493
-436
-410
-417
-454
-515
-589
-665
-731
-777
-795
-781
-736
-663
-571
-474
-385
-315
-277
-276
-313
-384
-478
-583
-682
-762
-811
-824
-799
-742
-664
-577
-497
-436
-403
-401
-430
-485
-556
-631
-698
-747
-770
-764
-726
-661
-576
-477
-375
-282
-206
-157
-142
-162
-218
-305
-412
-529
-640
-733
-795
-818
-802
-750
-672
-582
-498
-433
-399
-404
-447
-519
-605
-689
-752
-781
-764
-702
-597
-463
-317
-176
-58
24
62
53
3
-81
-185
-297
-407
-505
-584
-644
-683
-703
-706
-696
-674
-643
-602
-555
-505
-454
-407
-367
-338
-322
-319
-326
-337
-345
-342
-324
-289
-240
-181
-122
-73
-45
-44
-76
-139
-224
-320
-412
-485
-525
-522
-476
-392
-280
-157
-42
45
89
79
15
-97
-245
-411
-571
-703
-790
-818
-784
-692
-555
-390
-220
-65
55
129
150
122
54
-40
-142
-238
-312
-352
-353
-316
-246
-156
-61
26
89
118
106
53
-35
-146
-264
-372
-453
-495
-491
-442
-358
-253
-147
-58
-4
2
-46
-143
-280
-438
-598
-738
-839
-888
-876
-805
-679
-514
-324
-132
45
189
286
329
317
256
158
37
-87
-198
-279
-320
-316
-267
-180
-66
60
181
281
347
370
347
282
181
58
-70
-186
-274
-321
-323
-281
-204
-106
-3
83
134
138
91
-2
-129
-271
-406
-512
-571
-573
-515
-405
-258
-92
70
206
299
337
318
246
130
-13
-164
-306
-421
-496
-523
-500
-433
-331
-211
-91
11
76
91
48
-52
-200
-381
-573
-751
-891
-971
-979
-911
-773
-582
-361
-137
62
213
298
312
255
140
-13
-180
-337
-461
-536
-553
-513
-422
-296
-153
-15
100
174
199
169
91
-27
-168
-314
-447
-550
-612
-627
-597
-528
-435
-331
-234
-156
-108
-97
-121
-175
-247
-325
-395
-444
-463
-447
-397
-320
-223
-120
-25
50
94
103
74
13
-72
-171
-268
-354
-417
-452
-457
-435
-389
-328
-261
-199
-147
-113
-98
-104
-129
-169
-219
-272
-320
-358
-377
-373
-345
-293
-225
-148
-72
-7
36
52
35
-14
-89
-181
-281
-374
-449
-495
-505
-474
-404
-302
-180
-53
61
142
174
145
52
-100
-296
-511
-718
-887
-993
-1016
-953
-811
-610
-378
-149
45
179
237
219
135
6
-143
-283
-392
-452
-458
-411
-324
-212
-96
7
81
116
107
56
-31
-142
-261
-375
-467
-526
-544
-522
-466
-384
-289
-195
-117
-65
-46
-59
-99
-156
-223
-289
-348
-397
-437
-471
-503
-536
-571
-608
-642
-669
-686
-688
-677
-653
-622
-587
-552
-519
-487
-452
-409
-353
-283
-200
-108
-18
57
106
121
95
30
-67
-183
-304
-413
-495
-539
-540
-499
-424
-325
-218
-117
-38
9
15
-22
-100
-211
-344
-485
-617
-726
-798
-823
-798
-727
-619
-490
-358
-240
-153
-108
-109
-153
-231
-328
-425
-505
-551
-554
-512
-430
-322
-204
-95
-12
31
28
-20
-106
-214
-328
-428
-500
-534
-524
-475
-395
-299
-203
-124
-75
-64
-92
-158
-251
-361
-472
-569
-641
-678
-676
-636
-563
-464
-353
-241
-142
-67
-25
-21
-54
-120
-209
-311
-412
-499
-560
-590
-585
-545
-476
-385
-283
-182
-93
-28
7
5
-36
-114
-223
-352
-488
-617
-723
-793
-819
-797
-730
-629
-507
-384
-277
-201
-164
-169
-207
-267
-332
-383
-405
-387
-327
-229
-107
25
148
245
303
316
283
212
116
9
-93
-174
-225
-238
-214
-158
-79
13
104
184
244
279
287
270
231
177
114
48
-16
-75
-125
-164
-192
-209
-212
-201
-178
-143
-101
-54
-10
27
53
65
66
58
49
44
50
71
107
152
200
243
267
263
223
148
41
-87
-223
-351
-455
-523
-545
-521
-457
-362
-255
-153
-76
-38
-49
-114
-226
-375
-544
-711
-857
-963
-1016
-1010
-946
-834
-688
-526
-366
-227
-123
-62
-47
-74
-134
-214
-301
-379
-436
-461
-451
-406
-332
-239
-142
-56
4
27
6
-58
-160
-286
-421
-545
-642
-698
-707
-669
-591
-484
-362
-243
-141
-64
-14
11
21
26
43
88
176
321
532
814
1167
1585
2058
2568
3098
3626
4134
4606
5030
5402
5724
6000
6240
6451
6638
6800
6928
7010
7027
6960
6796
6524
6148
5678
5136
4548
3947
3362
2818
2334
1919
1575
1297
1076
900
758
638
533
434
336
236
131
19
-96
-211
-318
-408
-471
-497
-480
-420
-319
-191
-50
82
187
248
254
202
99
-42
-202
-357
-488
-576
-613
-597
-534
-439
-329
-225
-143
-99
-100
-146
-229
-340
-464
-587
-694
-774
-819
-825
-793
-726
-632
-519
-401
-291
-205
-158
-162
-226
-351
-532
-752
-991
-1219
-1407
-1527
-1561
-1498
-1344
-1114
-839
-553
-293
-88
38
77
33
-75
-224
-380
-516
-607
-640
-612
-533
-421
-299
-192
-119
-95
-127
-209
-328
-465
-598
-707
-774
-792
-759
-684
-584
-477
-386
-328
-316
-355
-441
-563
-703
-842
-959
-1038
-1067
-1043
-968
-852
-708
-553
-400
-263
-155
-83
-51
-60
-106
-183
-281
-389
-493
-580
-637
-657
-634
-569
-473
-357
-242
-146
-89
-83
-134
-240
-388
-559
-730
-875
-974
-1012
-985
-896
-759
-593
-420
-260
-134
-54
-25
-47
-113
-211
-327
-445
-548
-625
-664
-662
-616
-533
-424
-302
-188
-97
-48
-49
-104
-207
-343
-494
-634
-742
-800
-797
-735
-621
-473
-315
-170
-57
8
20
-20
-101
-210
-330
-441
-529
-582
-594
-564
-498
-402
-289
-173
-70
8
50
49
2
-86
-204
-338
-468
-577
-646
-667
-634
-554
-439
-311
-192
-106
-74
-106
-204
-359
-553
-759
-948
-1093
-1172
-1173
-1091
-937
-729
-493
-258
-49
109
202
225
182
84
-50
-200
-346
-469
-557
-603
-602
-561
-487
-392
-289
-194
-118
-74
-69
-105
-181
-289
-415
-545
-660
-743
-781
-765
-694
-574
-420
-250
-88
48
139
174
150
77
-33
-158
-276
-366
-412
-405
-346
-246
-121
11
128
213
256
252
204
123
21
-86
-186
-269
-327
-359
-366
-353
-325
-285
-241
-198
-161
-136
-128
-139
-175
-232
-308
-393
-475
-536
-564
-547
-480
-365
-212
-41
126
265
353
379
337
235
88
-78
-237
-366
-445
-467
-432
-352
-245
-132
-36
27
46
19
-48
-144
-252
-357
-442
-498
-519
-505
-460
-392
-308
-220
-136
-67
-16
11
13
-9
-53
-114
-184
-254
-315
-356
-370
-352
-303
-228
-136
-41
41
94
107
74
-5
-121
-259
-401
-526
-616
-657
-642
-571
-453
-305
-146
5
128
208
236
210
136
27
-101
-229
-337
-410
-436
-414
-347
-246
-128
-13
80
132
133
79
-27
-172
-340
-508
-655
-761
-813
-804
-735
-615
-461
-293
-130
10
112
169
178
145
79
-7
-99
-183
-250
-290
-302
-285
-243
-184
-115
-47
11
48
58
36
-17
-100
-204
-321
-437
-536
-604
-631
-613
-549
-446
-315
-175
-43
63
130
150
123
55
-41
-152
-263
-359
-430
-471
-482
-466
-431
-387
-342
-304
-279
-269
-273
-290
-314
-339
-359
-370
-367
-347
-311
-262
-204
-143
-84
-37
-9
-4
-25
-71
-137
-217
-301
-378
-437
-469
-467
-430
-360
-264
-157
-52
34
87
97
58
-29
-153
-299
-447
-575
-665
-703
-686
-616
-503
-365
-226
-107
-25
7
-12
-77
-174
-286
-392
-474
-521
-526
-490
-424
-340
-253
-179
-129
-111
-123
-162
-221
-290
-361
-425
-477
-512
-530
-530
-513
-478
-427
-362
-286
-205
-128
-63
-20
-6
-26
-81
-163
-261
-360
-445
-501
-518
-495
-434
-348
-251
-160
-91
-56
-61
-103
-175
-267
-362
-448
-513
-548
-548
-513
-446
-355
-249
-140
-39
40
89
99
65
-13
-130
-274
-431
-581
-705
-787
-812
-776
-682
-542
-372
-199
-47
61
109
89
3
-136
-306
-482
-633
-737
-775
-740
-638
-482
-295
-106
59
175
228
211
129
-2
-162
-327
-473
-582
-644
-654
-619
-547
-454
-356
-270
-206
-173
-171
-199
-248
-309
-370
-419
-444
-439
-399
-326
-225
-106
16
128
217
272
285
256
189
95
-12
-116
-202
-256
-267
-234
-158
-48
86
225
353
455
518
533
498
415
297
159
19
-105
-196
-243
-237
-182
-83
43
179
306
405
463
471
432
353
247
132
25
-59
-109
-123
-101
-51
16
86
149
195
216
211
181
129
59
-26
-120
-221
-325
-427
-523
-606
-671
-711
-721
-701
-654
-584
-503
-418
-342
-281
-241
-221
-217
-221
-223
-214
-190
-149
-94
-35
18
52
57
28
-36
-127
-234
-341
-432
-493
-515
-496
-439
-358
-267
-184
-127
-108
-132
-198
-295
-411
-527
-627
-695
-723
-706
-647
-554
-439
-316
-198
-94
-11
50
90
116
136
160
197
257
353
493
686
937
1249
1623
2055
2535
3053
3591
4132
4656
5147
5593
5984
6316
6589
6808
6977
7099
7175
7201
7169
7069
6890
6623
6264
5816
5289
4705
4087
3465
2866
2315
1830
1423
1095
842
655
520
424
357
308
269
236
205
171
134
92
46
-2
-47
-85
-107
-108
-83
-34
35
115
191
248
274
258
197
92
-44
-195
-344
-472
-563
-606
-599
-547
-462
-359
-256
-170
-114
-97
-120
-179
-268
-373
-481
-579
-653
-696
-702
-672
-609
-524
-428
-336
-261
-217
-210
-246
-322
-429
-555
-683
-796
-879
-921
-917
-868
-781
-669
-548
-434
-342
-284
-264
-283
-335
-411
-498
-582
-651
-693
-702
-676
-619
-538
-444
-350
-268
-211
-185
-195
-239
-309
-397
-488
-570
-632
-665
-666
-638
-586
-521
-456
-404
-377
-383
-424
-498
-598
-709
-816
-904
-955
-958
-908
-804
-656
-479
-292
-117
26
119
152
123
39
-85
-232
-378
-504
-592
-632
-620
-562
-467
-351
-234
-131
-59
-28
-43
-100
-193
-311
-439
-558
-655
-716
-733
-705
-633
-528
-403
-275
-161
-76
-30
-27
-66
-140
-235
-337
-428
-497
-535
-538
-510
-458
-392
-324
-264
-223
-204
-209
-234
-274
-322
-370
-411
-437
-446
-434
-404
-356
-293
-221
-147
-80
-25
9
19
1
-43
-107
-183
-260
-325
-366
-373
-343
-275
-177
-63
52
150
213
231
195
108
-22
-177
-339
-485
-595
-655
-659
-609
-513
-389
-256
-134
-41
10
14
-30
-113
-220
-336
-444
-528
-577
-584
-547
-473
-371
-254
-140
-44
18
37
8
-67
-179
-313
-450
-569
-651
-683
-659
-579
-454
-301
-141
7
122
192
210
178
105
4
-109
-217
-305
-361
-379
-356
-296
-203
-89
36
158
262
337
372
361
301
198
61
-94
-250
-386
-486
-536
-529
-467
-357
-216
-64
79
193
263
283
253
182
85
-19
-111
-173
-195
-171
-104
-5
111
227
324
386
401
367
289
177
47
-85
-201
-286
-332
-334
-295
-223
-129
-28
67
144
197
219
210
172
107
22
-78
-185
-292
-393
-479
-544
-580
-586
-560
-504
-426
-332
-234
-144
-70
-19
8
12
-1
-20
-37
-41
-28
5
55
116
177
226
251
245
203
126
19
-108
-240
-363
-462
-525
-547
-524
-462
-367
-254
-138
-31
55
110
128
107
53
-25
-118
-211
-293
-352
-379
-372
-330
-258
-167
-71
15
