-256
18
-259
-325
-13
-116
-349
-89
0
-339
-222
16
-268
-317
0
-182
-465
-124
2
-347
-181
64
-295
-369
-35
-136
-360
-146
-66
-338
-259
-34
-275
-331
-26
-171
-394
-119
-58
-371
-249
-17
-247
-293
-55
-148
-321
-89
-37
-309
-130
123
-146
-189
106
-34
-212
125
262
-14
112
345
89
84
372
109
-212
-35
-63
-400
-279
-86
-390
-376
-32
-231
-463
-153
-79
-444
-326
187
652
1993
4470
6419
6599
4884
2178
229
-321
-171
-254
-271
4
-218
-538
-286
-241
-571
-414
-194
-501
-568
-250
-397
-603
-276
-281
-593
-374
-163
-441
-459
-163
-277
-449
-150
-94
-397
-228
2
-260
-274
54
-59
-276
45
175
-181
-23
285
13
20
386
247
50
325
351
74
230
412
144
120
402
243
-10
223
212
-204
-92
88
-276
-330
-68
-235
-467
-247
-203
-508
-350
-117
-422
-452
-133
-301
-490
-204
-185
-459
-288
-81
-355
-391
-34
-164
-451
-176
-129
-456
-300
-73
-347
-387
-99
-256
-444
-163
-169
-516
-323
-89
-443
-455
-149
-372
-543
-258
-245
-508
-366
-174
-419
-434
-163
-336
-530
-258
-229
-519
-370
-161
-459
-493
-183
-351
-525
-225
-209
-480
-345
-188
-435
-472
-163
-249
-451
-104
-5
-344
-210
0
-237
-177
185
60
-155
100
182
-113
-16
103
-293
-382
-186
-407
-582
-315
-284
-564
-383
-173
-465
-487
-236
-464
-471
463
1691
3468
5935
7017
5268
2681
1155
-23
-485
52
93
-368
-318
-183
-498
-560
-282
-414
-594
-324
-295
-601
-466
-258
-517
-535
-236
-390
-550
-259
-280
-568
-389
-183
-444
-463
-170
-320
-465
-119
-101
-416
-236
-20
-269
-246
86
-52
-242
76
118
-148
38
217
-60
-49
251
48
-152
155
181
-136
5
201
-84
-156
61
-167
-410
-126
-161
-513
-329
-180
-487
-435
-194
-435
-600
-319
-302
-577
-392
-204
-529
-534
-199
-353
-547
-279
-277
-562
-389
-190
-440
-474
-165
-269
-531
-266
-199
-551
-378
-136
-504
-542
-184
-382
-613
-295
-266
-591
-432
-256
-579
-590
-295
-469
-636
-339
-313
-653
-517
-292
-584
-621
-311
-455
-673
-390
-361
-711
-515
-265
-594
-615
-297
-492
-707
-418
-390
-689
-529
-295
-533
-530
-249
-435
-626
-326
-245
-470
-283
-66
-346
-351
-50
-275
-533
-321
-374
-760
-654
-455
-803
-899
-558
-680
-897
-609
-576
-862
-788
-642
-533
281
2130
4354
6093
6264
4005
1290
30
-512
-786
-537
-296
-688
-961
-715
-753
-1057
-894
-698
-929
-931
-661
-834
-1038
-715
-680
-964
-772
-601
-889
-838
-513
-745
-903
-561
-542
-789
-615
-418
-655
-630
-321
-467
-634
-334
-283
-518
-341
-131
-370
-345
-12
-125
-281
-47
4
-239
-66
144
-140
-143
165
-9
-226
45
23
-322
-193
-48
-381
-411
-147
-359
-568
-282
-268
-627
-467
-221
-516
-501
-191
-384
-559
-250
-270
-576
-309
-78
-386
-385
-109
-280
-437
-129
-98
-411
-240
-76
-413
-336
16
-218
-429
-118
-123
-436
-236
-18
-314
-315
-13
-221
-398
-91
-81
-388
-285
-82
-321
-351
-43
-206
-391
-95
-134
-423
-225
-44
-301
-315
-53
-224
-409
-99
-66
-402
-224
-16
-316
-245
44
-178
-303
31
46
-236
-50
145
-132
-113
227
121
5
330
309
1
221
385
38
-24
178
-141
-372
-35
-70
-368
-197
-41
-293
-298
-14
-156
-398
-139
168
607
2208
4682
6513
6833
5149
2457
649
76
36
-14
148
213
-183
-246
14
-212
-410
-109
-80
-369
-224
-30
-256
-249
35
-107
-307
-26
-32
-302
-85
80
-187
-148
146
-40
-184
118
99
-153
70
247
-46
6
298
171
114
337
353
169
330
519
291
312
549
386
300
569
536
285
462
615
301
241
533
346
53
309
291
-58
103
243
-92
-102
180
1
-191
92
98
-176
15
185
-92
-70
225
48
-101
164
139
-130
63
225
-60
-31
238
79
-58
215
170
-137
55
228
-74
-22
313
90
-169
136
174
-138
62
230
-107
-75
211
-3
-166
117
115
-141
68
230
-114
-68
256
-31
-201
147
114
-192
6
198
-143
-166
166
-38
-210
103
70
-206
-16
187
-87
-55
344
157
-107
210
223
-63
235
465
194
281
516
290
172
449
379
-24
33
108
-174
-171
43
-130
-271
54
39
-259
-54
71
-274
-179
451
1032
2379
4984
6956
6640
4596
2158
278
-265
82
52
-108
76
-60
-406
-203
-24
-335
-307
-20
-255
-391
-53
-97
-392
-211
-3
-278
-311
-1
-181
-343
-59
-74
-297
-83
68
-208
-151
125
-58
-162
155
121
-116
130
301
51
117
425
235
69
444
472
150
370
558
230
281
609
366
209
535
439
110
281
338
-45
-31
196
-121
-306
-18
-106
-427
-225
-54
-381
-343
-37
-278
-419
-70
-88
-381
-191
-18
-285
-245
0
-212
-335
-59
-96
-378
-169
-10
-344
-266
42
-212
-382
-81
-138
-427
-205
-52
-341
-331
-57
-235
-437
-155
-169
-448
-226
-54
-344
-313
-51
-280
-416
-127
-174
-436
-239
-74
-396
-356
-46
-259
-388
-124
-182
-428
-212
-72
-377
-333
-54
-224
-305
0
-70
-350
-123
28
-244
-116
208
6
-81
252
151
-152
99
180
-261
-318
-119
-364
-507
-209
-310
-617
-368
-183
-489
-444
-151
-444
-535
167
974
2241
4662
6720
6285
3943
1703
104
-598
-292
-179
-426
-267
-195
-517
-497
-254
-476
-617
-298
-393
-677
-395
-211
-477
-489
-242
-423
-585
-302
-310
-519
-283
-164
-473
-407
-113
-331
-463
-87
-121
-437
-155
53
-255
-100
219
-61
-134
252
206
-37
266
412
109
160
388
212
144
412
332
82
268
310
-6
72
279
-28
-266
-58
-129
-394
-197
-111
-462
-389
-105
-345
-506
-222
-242
-514
-316
-156
-465
-414
-92
-315
-468
-136
-190
-480
-243
-97
-378
-315
-62
-253
-397
-110
-160
-486
-262
-117
-441
-348
-63
-308
-413
-104
-234
-533
-269
-111
-435
-418
-172
-415
-556
-207
-196
-528
-375
-185
-483
-403
-129
-388
-513
-213
-262
-531
-311
-180
-483
-409
-124
-384
-530
-175
-249
-558
-245
-66
-425
-340
-17
-250
-413
-46
-22
-254
27
203
-102
-37
266
7
-163
72
-121
-491
-292
-189
-514
-431
-223
-477
-563
-251
-303
-537
-364
-301
-401
219
1597
3434
5714
7018
5497
2644
1041
119
-498
-218
156
-137
-472
-271
-324
-648
-443
-302
-598
-507
-237
-484
-621
-292
-344
-650
-398
-231
-567
-505
-211
-442
-550
-218
-269
-533
-307
-159
-434
-344
-73
-285
-392
-78
-83
-320
-86
106
-173
-139
186
20
-89
253
192
-69
184
338
22
42
310
59
-128
197
142
-197
-35
34
-339
-309
-117
-404
-485
-205
-353
-630
-319
-193
-553
-465
-209
-450
-540
-221
-286
-566
-357
-222
-533
-453
-122
-385
-521
-170
-274
-535
-261
-118
-438
-377
-76
-339
-511
-136
-176
-501
-256
-133
-449
-329
-101
-393
-473
-174
-318
-602
-328
-187
-485
-401
-146
-383
-503
-194
-275
-543
-302
-195
-474
-355
-123
-357
-439
-146
-226
-477
-229
-133
-444
-336
-102
-376
-455
-122
-196
-433
-170
-13
-255
-208
12
-203
-304
66
74
-139
142
293
-32
51
337
69
-152
71
-61
-411
-196
-111
-468
-378
-88
-334
-443
-113
-209
-519
-369
-234
-188
727
2667
4847
6552
6617
4330
1808
604
-27
-234
41
183
-201
-411
-177
-297
-581
-355
-265
-570
-460
-229
-487
-578
-241
-309
-583
-320
-203
-482
-378
-159
-361
-441
-167
-210
-437
-241
-107
-328
-242
14
-215
-329
29
-15
-260
5
174
-87
-31
260
50
-54
320
243
-40
229
353
38
141
396
120
19
310
175
-149
31
137
-257
-284
-17
-291
-450
-155
-272
-500
-205
-121
-452
-353
-94
-349
-425
-101
-213
-424
-165
-129
-439
-291
-32
-292
-403
-126
-220
-468
-208
-79
-394
-327
-47
-270
-378
-84
-192
-448
-222
-79
-386
-367
-57
-265
-408
-94
-167
-463
-243
-122
-442
-344
-75
-355
-479
-125
-212
-528
-270
-153
-479
-335
-75
-368
-464
-160
-260
-489
-235
-151
-444
-362
-111
-310
-388
-101
-226
-457
-196
-46
-267
-154
95
-191
-322
23
50
-136
109
248
-81
-5
275
26
-100
49
-171
-440
-231
-179
-509
-394
-113
-338
-462
-150
-220
-481
-296
-225
-231
499
2086
4163
6265
7017
5034
2252
820
3
-400
-77
200
-167
-428
-194
-299
-576
-289
-227
-569
-417
-186
-430
-530
-217
-258
-534
-282
-166
-523
-415
-153
-399
-446
-124
-205
-431
-240
-162
-392
-251
-15
-251
-310
23
-16
-264
23
177
-172
-25
370
125
8
379
274
28
262
335
103
190
396
170
66
347
203
-103
79
92
-269
-249
-57
-279
-375
-116
-251
-523
-271
-168
-450
-362
-153
-408
-458
-138
-254
-493
-286
-167
-425
-399
-165
-395
-479
-133
-248
-507
-239
-166
-484
-339
-71
-348
-462
-179
-269
-531
-296
-175
-486
-399
-145
-426
-534
-177
-285
-604
-322
-162
-554
-506
-197
-456
-561
-262
-349
-576
-352
-280
-566
-455
-267
-534
-581
-244
-370
-633
-326
-254
-587
-450
-206
-460
-527
-233
-308
-465
-192
-120
-370
-250
-96
-320
-250
103
-23
-218
52
91
-209
-107
97
-225
-429
-212
-363
-634
-385
-322
-640
-502
-245
-507
-565
-218
-396
-704
-235
387
1150
3161
5689
6631
5293
2873
746
-465
-460
-202
-407
-333
-165
-501
-621
-327
-444
-660
-410
-306
-573
-508
-270
-479
-541
-264
-367
-554
-307
-201
-510
-422
-123
-334
-429
-130
-206
-415
-160
-29
-306
-220
52
-189
-258
85
50
-131
133
275
30
170
433
166
106
446
335
59
316
442
167
257
411
95
-15
273
108
-204
-4
-17
-371
-302
-102
-371
-480
-171
-290
-570
-321
-231
-511
-393
-245
-495
-474
-181
-338
-560
-220
-128
-482
-351
-85
-368
-451
-123
-237
-486
-224
-125
-485
-355
-49
-349
-438
-135
-271
-479
-194
-167
-517
-360
-102
-404
-504
-152
-250
-554
-271
-147
-485
-389
-152
-427
-521
-210
-322
-542
-222
-139
-502
-402
-118
-361
-463
-115
-236
-567
-285
-127
-444
-348
-60
-287
-341
-15
-144
-386
-122
-6
-251
-95
228
30
-113
194
99
-181
53
54
-331
-304
-139
-413
-508
-209
-299
-514
-244
-171
-494
-342
-136
-442
-331
537
1625
3404
5926
6913
5057
2526
949
-220
-537
-52
-64
-356
-219
-190
-518
-426
-152
-441
-535
-195
-304
-540
-263
-167
-494
-361
-111
-392
-427
-100
-244
-482
-194
-103
-376
-253
-7
-197
-292
-5
-70
-289
-20
76
-178
-2
272
24
-15
335
226
4
317
415
131
273
486
243
208
504
335
82
389
454
68
122
278
-69
-198
67
-112
-411
-148
-116
-427
-282
-84
-348
-430
-134
-216
-453
-201
-115
-405
-265
-46
-314
-349
-1
-136
-360
-26
-6
-315
-152
43
-217
-277
62
-55
-303
-19
14
-305
-161
61
-175
-212
23
-110
-305
-74
1
-304
-171
47
-263
-293
56
-66
-273
-35
4
-283
-154
90
-189
-233
66
-117
-336
-73
-7
-275
-143
83
-185
-250
70
-71
-316
-22
52
-220
-95
120
-72
-90
222
116
-121
114
176
-65
182
447
198
187
442
317
126
393
409
-38
15
153
-220
-266
62
-105
-363
-47
20
-302
-118
94
-299
-333
372
1088
2588
5261
7052
6402
4275
2332
643
-171
259
330
-28
77
38
-312
-189
-30
-337
-365
-59
-199
-410
-139
-96
-366
-257
-58
-254
-313
-22
-159
-401
-81
-14
-328
-156
62
-255
-263
113
-39
-247
104
170
-146
40
279
18
29
375
242
59
365
412
134
304
500
262
236
499
384
179
480
474
96
244
409
98
21
251
70
-162
62
72
-207
-73
98
-171
-197
86
-18
-238
-25
65
-232
-101
118
-170
-196
119
-6
-228
38
101
-196
-15
226
-63
-132
188
75
-184
68
114
-177
-7
189
-114
-156
154
25
-214
44
120
-220
-118
181
-97
-235
91
-27
-234
40
82
-211
-109
105
-117
-202
87
-8
-252
51
127
-193
-47
137
-116
-142
111
-23
-250
-11
96
-172
-81
130
-80
-78
219
131
-28
165
196
-27
119
401
223
188
475
329
113
385
393
12
86
147
-211
-242
25
-113
-312
-28
2
-254
-82
52
-288
-391
97
556
1483
3869
6246
6816
5583
3361
1241
106
119
173
-7
124
22
-299
-210
-83
-338
-348
-51
-207
-424
-140
-68
-394
-285
6
-237
-307
7
-135
-325
-15
29
-289
-128
114
-170
-210
137
21
-184
118
186
-105
49
274
33
13
332
292
111
336
430
175
336
563
274
283
618
424
191
505
574
243
294
433
161
51
259
124
-158
27
117
-192
-85
160
-150
-224
92
-102
-308
27
44
-278
-138
72
-163
-191
41
-130
-269
19
33
-264
-78
138
-160
-171
145
-6
-236
37
109
-203
-56
192
-109
-150
161
-47
-242
56
58
-225
-62
152
-114
-169
132
-36
-260
39
69
-230
-67
155
-115
-132
158
-23
-204
65
74
-241
-63
174
-142
-195
121
3
-221
37
102
-207
-18
240
-91
-96
279
137
-76
200
245
-38
187
501
247
219
529
372
162
437
415
9
119
212
-146
-173
99
-49
-256
-1
69
-207
-68
172
-162
-244
331
927
2141
4599
6707
6795
4960
2498
604
-141
79
129
-57
159
145
-259
-145
108
-208
-274
53
-102
-296
17
46
-263
-92
125
-144
-202
139
66
-216
60
162
-166
-37
219
3
-31
275
160
-33
250
320
58
251
493
220
238
606
420
222
553
586
343
550
780
483
402
724
596
408
684
655
343
469
593
201
103
365
119
-120
138
124
-183
-25
162
-142
-185
102
-47
-234
67
99
-216
-81
159
-116
-170
153
12
-166
83
52
-231
-11
178
-122
-122
162
31
-191
63
133
-192
-18
167
-173
-163
106
-83
-285
-4
52
-244
-99
83
-229
-265
65
-91
-324
-63
-36
-309
-152
53
-223
-257
50
-53
-267
-76
17
-249
-164
57
-207
-253
42
-108
-293
32
82
-227
-52
160
-126
-122
151
12
-71
248
332
29
135
392
99
8
237
-7
-316
-88
-81
-424
-229
-56
-366
-355
-20
-149
-395
-158
-146
-248
518
1864
3475
5642
6899
5249
2359
762
-57
-508
-185
82
-200
-259
-81
-285
-472
-210
-173
-459
-303
-100
-391
-453
-134
-248
-461
-180
-153
-485
-322
-35
-308
-356
19
-181
-449
-74
-13
-334
-153
63
-175
-158
139
42
-103
194
230
-31
186
388
135
187
489
322
188
507
513
218
373
541
246
212
495
289
5
205
149
-222
-111
56
-285
-333
-31
-195
-447
-247
-197
-460
-309
-111
-388
-434
-110
-218
-460
-185
-154
-469
-252
-45
-346
-371
-55
-205
-459
-156
-89
-398
-247
-40
-326
-363
-87
-251
-433
-183
-155
-429
-304
-79
-351
-420
-105
-256
-498
-168
-123
-520
-330
-84
-402
-421
-129
-318
-517
-199
-168
-473
-304
-117
-393
-419
-147
-263
-456
-190
-130
-454
-273
-39
-367
-370
9
-118
-331
-29
4
-327
-138
183
-14
-50
261
95
-139
172
208
-130
-52
26
-322
-410
-174
-281
-464
-208
-174
-467
-306
-105
-399
-504
-215
-49
457
2212
4573
6270
6518
4595
1870
409
6
-264
-299
25
-77
-466
-320
-125
-422
-476
-170
-310
-555
-273
-180
-486
-356
-150
-430
-449
-126
-256
-465
-142
-91
-439
-246
-30
-333
-323
29
-150
-363
-22
-6
-249
-8
204
-52
-58
274
137
-42
298
340
54
279
459
156
163
457
294
90
371
407
102
206
352
24
-69
173
-18
-272
-27
-33
-336
-189
-38
-339
-360
-60
-233
-424
-97
-78
-414
-231
-34
-341
-325
16
-166
-402
-103
-61
-376
-202
19
-275
-293
-3
-204
-383
-47
-44
-361
-178
64
-237
-321
-14
-177
-387
-111
-89
-390
-237
-29
-319
-355
-71
-213
-419
-138
-85
-397
-207
-3
-311
-286
-39
-262
-397
-98
-110
-424
-257
-43
-321
-347
-24
-173
-413
-151
-123
-393
-206
-31
-221
-157
82
-35
-208
21
59
-166
82
302
34
32
334
217
37
278
186
-248
-192
-72
-376
-424
-147
-266
-462
-183
-141
-486
-266
-27
-425
-334
498
1385
3157
5838
7018
5569
3297
1578
124
-331
175
152
-235
-138
-163
-519
-345
-135
-466
-491
-172
-320
-501
-218
-221
-537
-368
-137
-372
-392
-98
-251
-437
-96
-94
-454
-245
-16
-295
-285
26
-124
-315
-10
28
-234
-23
193
-83
-80
268
120
-20
273
265
39
213
399
137
112
412
263
76
388
411
36
147
298
-26
-45
199
-43
-283
-18
-33
-368
-220
-29
-311
-348
-26
-146
-371
-99
-55
-373
-235
-20
-293
-328
-32
-180
-352
-101
-95
-349
-195
23
-234
-262
36
-122
-328
-68
-39
-346
-206
12
-263
-269
36
-167
-335
-55
-82
-367
-222
0
-297
-347
-14
-184
-379
-80
-64
-353
-189
-4
-290
-325
-47
-167
-336
-103
-78
-340
-177
3
-264
-257
42
-138
-343
-36
-29
-292
-72
147
-113
-155
139
-33
-231
179
279
-30
196
367
21
33
325
146
-118
18
-55
-416
-301
-100
-372
-408
-103
-232
-492
-222
-142
-520
-402
111
521
1804
4381
6403
6566
4961
2435
461
-187
-4
-75
-152
41
-232
-482
-201
-222
-555
-367
-177
-476
-430
-146
-345
-512
-230
-166
-447
-346
-124
-368
-386
-64
-201
-387
-104
-123
-419
-169
26
-287
-247
80
-69
-199
116
157
-97
59
285
67
63
372
247
98
413
401
101
298
496
203
185
469
282
90
287
219
-87
24
163
-198
-291
24
-148
-389
-100
-89
-428
-265
-28
-334
-358
-52
-246
-399
-115
-117
-411
-248
7
-288
-318
3
-177
-372
-63
-44
-347
-183
21
-240
-305
-21
-143
-336
-78
-68
-319
-169
-39
-293
-290
-31
-213
-391
-98
-108
-414
-256
-34
-306
-394
-81
-196
-409
-114
-98
-396
-219
-29
-334
-372
-63
-232
-409
-105
-122
-430
-238
-12
-330
-336
14
-115
-266
-7
-3
-315
-107
231
6
-10
307
124
-72
221
173
-147
-58
-31
-365
-398
-145
-321
-487
-189
-187
-479
-315
-89
-349
-431
-124
45
652
2381
4582
6250
6358
4269
1491
68
-175
-322
-344
-27
-55
-419
-317
-111
-398
-444
-139
-350
-574
-198
-158
-525
-341
-114
-407
-415
-99
-269
-459
-153
-128
-429
-269
1
-242
-293
4
-125
-304
-44
50
-176
-19
214
-54
-58
321
205
19
349
395
125
376
567
228
257
550
369
230
493
492
182
271
416
73
-4
245
7
-262
6
-5
-385
-211
-4
-346
-337
-32
-184
-317
-92
-109
-375
-185
18
-276
-267
42
-131
-297
-12
-44
-345
-157
48
-229
-274
1
-142
-366
-69
1
-382
-258
-3
-311
-349
-34
-222
-441
-131
-90
-436
-296
-59
-327
-371
-69
-226
-422
-77
-111
-461
-250
-79
-361
-371
-81
-260
-463
-154
-152
-451
-260
-54
-354
-395
-79
-214
-373
-12
-35
-379
-149
46
-226
-179
188
55
-94
229
217
-71
106
240
-166
-256
-32
-288
-447
-203
-247
-490
-330
-122
-401
-404
-75
-333
-593
-92
512
1381
3615
6121
6700
5116
2846
913
-226
-188
-8
-228
-149
-84
-426
-470
-206
-373
-525
-236
-278
-576
-359
-160
-443
-439
-148
-341
-551
-219
-170
-468
-296
-120
-405
-411
-100
-224
-375
-90
-54
-318
-139
78
-185
-161
174
39
-122
201
246
-23
184
392
148
159
396
217
78
376
363
53
234
424
85
43
300
55
-161
94
30
-311
-120
15
-360
-328
-27
-253
-441
-133
-130
-429
-240
-41
-339
-351
-43
-241
-396
-47
-69
-340
-140
23
-291
-357
17
-117
-342
-19
-38
-342
-150
24
-262
-262
10
-188
-372
-76
-90
-353
-146
-28
-332
-294
-4
-193
-363
-61
-91
-385
-198
-37
-339
-373
-58
-220
-435
-131
-155
-431
-210
-70
-377
-342
-19
-204
-394
-121
-131
-396
-206
-2
-230
-197
79
-136
-315
14
51
-159
82
274
15
13
306
153
-45
164
60
-328
-234
-80
-391
-406
-98
-311
-473
-142
-163
-427
-240
-209
-469
31
1216
2818
5091
6936
6218
3556
1729
543
-374
-157
246
-57
-338
-122
-203
-526
-329
-169
-455
-426
-174
-367
-534
-235
-228
-539
-340
-116
-450
-477
-128
-289
-461
-166
-176
-476
-258
-52
-345
-293
-9
-216
-376
-48
-32
-319
-97
110
-142
-131
152
20
-96
226
225
-46
142
299
29
71
367
158
-35
251
195
-115
29
100
-208
-220
-56
-291
-451
-174
-194
-476
-303
-166
-447
-425
-170
-374
-503
-184
-232
-510
-299
-153
-439
-398
-142
-376
-477
-159
-216
-485
-266
-101
-399
-377
-70
-260
-496
-180
-165
-498
-276
-89
-436
-423
-110
-324
-512
-217
-238
-519
-320
-155
-476
-437
-132
-397
-572
-242
-257
-550
-374
-204
-469
-455
-188
-366
-530
-237
-230
-529
-341
-164
-469
-448
-161
-338
-439
-111
-99
-357
-221
-71
-323
-229
152
-48
-215
78
25
-194
74
190
-237
-314
-138
-407
-558
-244
-274
-565
-349
-190
-466
-444
-147
-354
-646
-214
298
1040
3230
5778
6651
5514
3286
1129
-179
-212
-6
-256
-175
-140
-525
-522
-274
-499
-628
-313
-353
-652
-439
-240
-557
-533
-229
-438
-568
-312
-360
-598
-392
-197
-496
-459
-141
-366
-519
-172
-186
-461
-194
-31
-328
-214
57
-141
-231
81
96
-109
122
291
13
54
345
154
5
289
269
14
228
380
52
59
288
49
-161
30
-7
-282
-146
-41
-342
-319
-65
-314
-474
-140
-186
-454
-230
-108
-407
-351
-57
-273
-412
-128
-179
-432
-189
4
-310
-306
-11
-167
-314
-26
-74
-363
-156
12
-245
-205
58
-120
-285
-96
-122
-337
-129
28
-301
-297
-15
-188
-308
-47
-96
-359
-151
16
-326
-264
57
-236
-380
-35
-113
-366
-94
2
-317
-231
-3
-208
-294
24
-7
-315
-87
117
-180
-119
137
-99
-117
278
185
-37
231
318
1
57
303
-48
-277
-33
-174
-426
-222
-120
-421
-366
-29
-276
-470
-115
-198
-549
-61
744
1594
3631
6117
6739
4947
2490
662
-388
-345
-22
-259
-269
10
-259
-480
-181
-221
-478
-256
-103
-405
-367
-89
-304
-432
-119
-185
-433
-194
-73
-369
-286
26
-245
-391
-21
-58
-308
-79
90
-189
-144
128
-79
-167
162
137
-83
173
337
47
175
498
239
162
498
431
166
385
533
199
248
521
250
47
298
164
-201
-22
49
-328
-315
-60
-300
-473
-168
-199
-471
-264
-151
-475
-378
-92
-347
-448
-99
-138
-413
-200
-87
-390
-311
-43
-271
-389
-80
-136
-377
-147
-50
-335
-265
-57
-256
-362
-82
-177
-490
-213
-69
-425
-359
-93
-345
-463
-180
-259
-521
-271
-99
-414
-352
-106
-393
-496
-168
-233
-514
-291
-124
-458
-389
-92
-341
-441
-94
-114
-351
-106
32
-305
-216
130
-60
-123
253
130
-147
136
230
-106
-122
51
-265
-464
-149
-266
-572
-314
-202
-495
-401
-136
-380
-544
-291
-208
16
1204
3065
4984
6506
5943
3106
807
82
-329
-535
-120
-3
-437
-436
-220
-460
-564
-274
-385
-633
-384
-282
-569
-475
-236
-460
-542
-234
-265
-492
-257
-125
-428
-359
-98
-306
-392
-31
-131
-433
-118
24
-283
-168
120
-113
-205
166
124
-116
161
306
43
153
430
249
135
402
351
111
324
424
95
119
363
72
-103
130
-43
-322
-137
-82
-398
-363
-103
-305
-492
-206
-230
-510
-258
-136
-465
-374
-114
-352
-449
-148
-240
-482
-216
-124
-435
-298
-53
-320
-339
-30
-195
-439
-196
-84
-357
-271
-29
-271
-370
-97
-201
-448
-219
-147
-472
-376
-110
-356
-436
-76
-236
-522
-224
-157
-490
-380
-113
-366
-478
-162
-239
-511
-276
-140
-433
-345
-80
-342
-435
-107
-213
-391
-78
-50
-349
-206
31
-229
-299
96
54
-171
104
153
-143
16
239
-82
-285
-75
-256
-537
-281
-250
-597
-446
-149
-394
-494
-168
-285
-666
-385
136
659
2426
5098
6562
6016
4018
1758
189
-202
-51
-203
-153
-52
-388
-507
-242
-362
-611
-424
-336
-601
-500
-262
-512
-574
-273
-365
-591
-371
-313
-579
-417
-179
-454
-555
-225
-282
-527
-265
-145
-424
-368
-139
-306
-366
-54
-151
-372
-69
39
-240
-101
162
-77
-154
167
85
-167
127
258
-130
-12
262
-44
-130
144
-28
-308
-100
-90
-428
-331
-117
-394
-536
-264
-343
-580
-317
-226
-548
-436
-196
-476
-557
-202
-298
-565
-313
-229
-517
-405
-189
-435
-461
-125
-261
-500
-225
-160
-447
-300
-84
-352
-424
-130
-233
-467
-234
-179
-506
-406
-174
-465
-537
-200
-327
-555
-252
-192
-486
-378
-214
-447
-499
-171
-278
-542
-247
-183
-518
-339
-59
-389
-451
-99
-230
-465
-210
-145
-419
-261
-28
-257
-308
-20
-152
-340
37
134
-171
10
197
-31
56
232
-57
-265
-59
-128
-521
-401
-179
-474
-539
-217
-332
-549
-264
-183
-620
-586
116
838
2336
4949
6605
6033
4139
2005
319
-225
16
-63
-137
-32
-322
-516
-158
-127
-477
-321
-247
-416
-401
-382
-436
-499
-303
-291
-531
-336
-122
-371
-436
-165
-287
-484
-166
-115
-438
-160
49
-415
-370
73
52
-140
-115
-67
-207
-51
212
-29
-65
249
133
-32
242
277
-28
107
347
67
14
367
217
-83
168
221
-141
-80
100
-194
-306
-48
-193
-426
-154
-91
-396
-302
-59
-329
-459
-107
-227
-489
-187
-111
-408
-275
-63
-312
-358
-57
-188
-420
-124
-54
-398
-228
23
-334
-342
-4
-134
-302
-158
-154
-378
-238
-42
-322
-380
-56
-178
-467
-120
48
-341
-249
-38
-366
-486
-204
-191
-369
-221
-186
-453
-268
-88
-404
-346
-53
-149
-303
-221
-183
-412
-312
9
-200
-297
99
-68
-418
-71
47
-251
-44
294
19
-160
274
213
-196
190
370
-122
-21
151
-314
-382
-107
-270
-492
-207
-171
-538
-357
-96
-364
-484
-256
-116
336
1851
4136
6048
6678
5111
2243
642
225
-276
-174
329
-109
-628
-331
-142
-417
-350
-207
-595
-647
-131
-219
-633
-430
-212
-258
-316
-353
-513
-569
-182
-35
-515
-558
-156
-415
-545
-71
-146
-419
-149
4
-106
-85
-108
-319
-197
193
49
-264
120
394
-111
-118
339
133
110
320
-60
-225
247
480
-52
-31
294
-82
-47
237
-154
-364
39
-105
-539
-474
-49
-88
-388
-49
-369
-749
-252
-257
-527
-406
-225
-402
-451
-109
-267
-560
-279
-246
-424
-225
-208
-437
-376
-182
-231
-211
-181
-387
-347
-101
-309
-504
-323
-92
-206
-333
-125
-225
-381
-163
54
-258
-427
73
-117
-472
20
-43
-506
-172
220
-155
-506
-186
-105
-409
-103
24
-468
-203
224
-233
-262
133
-148
-271
99
106
-291
-159
195
-202
-114
356
135
48
215
237
43
182
536
-48
-431
114
-55
-448
-177
-62
-310
-332
-74
-340
-425
17
-172
-439
-123
409
1138
2985
5602
6728
5809
3443
1001
-81
-171
-198
-172
115
-29
-400
-274
-93
-281
-436
-83
-72
-537
-287
-72
-381
-266
168
-77
-618
-298
22
-301
-266
-38
-269
-143
170
-113
-238
-22
-44
-173
7
114
-160
-107
270
149
-6
548
423
-203
188
463
258
334
505
314
278
686
435
158
576
624
215
160
377
208
-35
320
266
-417
-228
126
-205
-265
-25
-203
-305
210
14
-651
-271
20
-383
-322
32
-131
-262
10
-43
-289
-136
-19
-292
-176
221
-233
-474
96
-197
-558
-136
25
-267
-329
-35
-251
-294
87
-267
-576
-223
-46
-366
-411
-104
-199
-278
-156
-293
-423
-153
-153
-569
-441
-42
-304
-500
-121
-139
-507
-336
-77
-257
-228
-44
-312
-411
46
27
-455
-227
97
-271
-193
205
21
-118
123
264
114
-4
59
-18
-136
-51
-348
-536
-168
-408
-631
-264
-168
-449
-414
-127
-414
-587
7
602
1491
3685
6069
6538
4794
2362
442
-509
-305
-102
-348
-219
-160
-472
-471
-178
-345
-580
-239
-179
-492
-273
-190
-585
-480
-180
-421
-563
-204
-237
-533
-272
-70
-449
-443
-44
-252
-475
-137
-103
-318
-30
112
-275
-240
144
-8
-172
154
143
-98
185
351
29
78
415
221
50
360
312
23
245
378
27
-12
294
40
-269
17
-70
-411
-222
-85
-423
-453
-144
-341
-528
-240
-253
-514
-294
-114
-447
-403
-87
-310
-368
-108
-223
-337
-159
-101
-386
-371
-48
-244
-433
-130
-144
-398
-161
-26
-378
-342
-105
-344
-398
-117
-216
-463
-228
-100
-450
-272
-39
-442
-509
-170
-227
-500
-278
-73
-379
-422
-154
-304
-434
-135
-142
-438
-276
-92
-376
-369
-72
-228
-442
-170
-134
-325
-73
59
-161
-165
-24
-189
-201
178
190
-81
64
247
-13
-1
198
-119
-310
-112
-279
-557
-277
-145
-512
-462
-128
-331
-421
-123
-353
-621
55
938
2101
4536
6698
6324
3989
2001
596
-338
-141
207
0
-226
-189
-423
-591
-246
-259
-470
-268
-213
-560
-493
-191
-412
-512
-183
-268
-578
-328
-117
-422
-396
-81
-303
-479
-148
-199
-452
-178
7
-291
-259
71
-155
-177
251
107
-241
-21
190
-46
40
319
102
73
423
213
-149
122
323
37
52
347
110
-102
187
109
-273
-32
164
-330
-326
44
-235
-386
28
-95
-491
-212
-64
-354
-256
-18
-239
-375
-112
-94
-353
-202
-47
-304
-263
-34
-180
-316
-123
-137
-374
-172
-3
-307
-197
86
-250
-353
6
-122
-419
-136
-14
-359
-259
-15
-298
-400
-56
-99
-415
-180
-2
-375
-276
29
-255
-343
-37
-98
-311
-130
-58
-376
-305
-10
-248
-405
-56
-73
-370
-174
-104
-340
-116
123
-109
-165
133
18
-276
110
318
-33
100
344
139
60
271
190
-131
-9
8
-380
-314
14
-231
-435
-104
-177
-467
-205
-101
-507
-472
22
322
1358
3883
6114
6478
5102
2812
816
-138
-93
26
-75
13
-162
-478
-281
-197
-500
-341
-81
-425
-570
-243
-301
-544
-303
-194
-515
-413
-113
-294
-446
-244
-279
-478
-204
-59
-346
-248
21
-178
-235
48
-99
-323
-23
90
-172
-55
185
-76
-141
241
165
-98
169
326
11
57
305
40
-32
331
213
-32
227
299
-55
-121
49
-180
-275
30
-150
-487
-235
-76
-378
-297
45
-235
-396
-90
-235
-460
-149
-54
-349
-224
-24
-291
-344
-22
-141
-435
-160
19
-324
-219
99
-259
-362
19
-99
-317
-97
-106
-384
-165
73
-302
-414
-55
-157
-427
-167
-64
-369
-277
-62
-289
-354
-93
-200
-372
-106
-78
-397
-287
-10
-255
-283
91
-219
-525
-145
-88
-423
-251
47
-235
-402
-62
-39
-273
2
117
-191
-41
251
11
-67
346
231
-88
276
356
-14
67
216
-165
-344
-80
-241
-410
-159
-209
-425
-288
-136
-317
-369
-193
-261
-132
964
2793
4814
6640
6527
3911
1566
473
-290
-378
120
122
-289
-270
-161
-396
-500
-216
-288
-498
-225
-184
-460
-326
-62
-266
-362
-139
-314
-500
-205
-115
-358
-274
-109
-285
-303
-73
-135
-313
-125
0
-194
-46
171
-180
-203
201
102
-90
180
278
-8
112
425
72
-76
328
215
16
243
254
23
205
313
-81
-66
220
-11
-239
-24
91
-201
-293
-105
-321
-391
-66
-229
-449
-142
-28
-331
-309
-58
-282
-332
2
-152
-351
-61
-47
-292
-75
43
-222
-210
-13
-146
-359
-114
16
-356
-242
44
-317
-326
25
-176
-317
-137
-175
-399
-263
-32
-303
-363
-28
-146
-405
-115
-80
-443
-250
38
-288
-430
-76
-192
-421
-122
-54
-297
-241
-121
-329
-355
-35
-100
-312
-15
82
-291
-121
125
-159
-156
174
155
17
271
271
-70
130
378
-131
-361
-52
-188
-455
-214
-121
-453
-317
-92
-407
-454
-101
-266
-586
-162
489
1409
3398
5699
6561
5204
2818
763
-440
-392
-104
-379
-260
-61
-441
-528
-214
-359
-576
-255
-173
-417
-283
-198
-500
-472
-170
-305
-427
-199
-228
-479
-295
-46
-328
-378
-41
-159
-348
-79
-4
-264
-100
125
-183
-115
291
37
-202
194
290
-4
124
370
161
170
487
225
8
368
358
77
312
440
89
58
287
137
-140
-5
90
-269
-282
-28
-293
-433
-175
-264
-443
-158
-118
-425
-257
-96
-341
-347
-90
-153
-369
-156
-78
-398
-233
-25
-326
-318
30
-153
-413
-116
-50
-334
-266
-89
-338
-370
-49
-210
-345
-86
-139
-388
-288
-114
-376
-399
-37
-255
-471
-140
-183
-495
-278
-74
-399
-386
-53
-287
-472
-143
-197
-461
-181
-109
-502
-452
-150
-306
-437
-106
-29
-359
-229
3
-314
-320
167
137
-107
124
148
-111
12
167
-102
-299
-193
-377
-583
-245
-212
-481
-352
-255
-470
-458
-136
-361
-654
-113
515
1435
3684
6123
6639
4825
2492
726
-405
-317
-18
-307
-312
-166
-460
-526
-327
-535
-629
-357
-405
-645
-410
-265
-590
-525
-240
-408
-575
-340
-310
-579
-396
-178
-467
-458
-178
-342
-501
-211
-71
-424
-328
-12
-287
-296
18
-75
-222
-1
46
-207
-33
189
-17
13
258
147
-97
70
158
-96
110
325
-12
-39
217
4
-243
-51
-116
-453
-194
58
-360
-468
-196
-293
-439
-260
-228
-449
-291
-127
-438
-402
-63
-288
-479
-194
-149
-358
-257
-85
-343
-376
-48
-168
-348
-106
-115
-372
-153
0
-372
-369
-79
-286
-382
-96
-159
-471
-305
-69
-390
-380
-46
-260
-438
-82
-75
-444
-256
-101
-424
-377
-84
-275
-421
-127
-143
-475
-315
-99
-421
-400
-33
-261
-388
-68
-189
-363
-69
67
-227
-222
45
-92
-155
134
138
-55
74
218
-26
-18
220
-82
-359
-178
-215
-474
-267
-126
-516
-475
-153
-334
-409
-143
-349
-587
50
1042
2529
4977
6817
6036
3496
1651
344
-498
-64
246
-273
-422
-154
-372
-648
-286
-221
-682
-470
-209
-574
-529
-225
-421
-557
-309
-286
-520
-415
-257
-471
-462
-219
-353
-539
-291
-203
-463
-288
-92
-384
-307
-11
-204
-301
-17
70
-129
-65
212
-103
-216
206
-11
-174
248
130
-245
12
145
-161
-95
179
-34
-211
112
96
-393
-290
-2
-374
-385
-79
-406
-579
-193
-230
-617
-359
-124
-498
-477
-165
-354
-514
-213
-209
-495
-265
-76
-422
-380
-99
-346
-444
-109
-134
-410
-262
-149
-428
-332
-28
-286
-432
-141
-235
-516
-269
-120
-392
-322
-127
-365
-484
-180
-182
-461
-316
-174
-400
-353
-103
-360
-451
-10
-234
-608
-266
-133
-405
-377
-203
-350
-404
-162
-241
-468
-253
-58
-285
-213
163
-139
-406
36
109
-136
121
298
-46
18
374
66
-81
98
-224
-546
-311
-133
-467
-387
-61
-399
-557
-192
-196
-411
-336
-223
-116
803
2832
5052
6541
6213
3760
1349
294
-132
-217
-19
88
-229
-432
-160
-256
-598
-343
-156
-427
-394
-229
-351
-399
-269
-286
-486
-233
10
-503
-514
-117
-347
-419
-101
-127
-327
-196
-127
-331
-211
72
-140
-211
96
-31
-254
102
203
-181
-15
295
29
-37
354
241
-92
170
323
10
80
355
196
72
171
97
-64
88
106
-260
-210
47
-218
-385
-50
-138
-446
-154
-103
-434
-234
-99
-425
-429
-146
-193
-310
-160
-131
-323
-260
-13
-194
-315
-18
-110
-393
-133
41
-254
-290
-57
-239
-291
28
-102
-354
-140
-29
-349
-202
43
-348
-411
-49
-108
-375
-124
3
-449
-356
-10
-307
-356
-45
-194
-369
-118
-93
-352
-205
-64
-336
-398
-79
-59
-308
-195
-61
-291
-197
115
-56
-127
103
-73
-225
194
305
-23
114
346
97
33
267
23
-375
-164
-102
-519
-360
-72
-361
-329
-59
-276
-425
-126
-178
-459
143
1365
2854
5091
7008
6197
3265
1303
260
-582
-294
230
-173
-511
-200
-300
-527
-258
-305
-573
-362
-191
-435
-435
-214
-348
-492
-249
-191
-494
-370
-70
-399
-511
-125
-228
-460
-198
-56
-332
-291
36
-146
-322
35
-51
-261
97
86
-177
27
315
81
-9
369
232
16
348
387
95
291
405
79
105
317
133
-79
98
120
-160
-148
-32
-266
-408
-144
-170
-409
-137
-47
-478
-369
-40
-352
-416
-19
-212
-468
-103
-103
-385
-180
-63
-290
-330
-108
-114
-306
-183
-145
-372
-204
-37
-372
-367
-51
-207
-443
-234
-57
-368
-422
-140
-377
-435
-70
-297
-532
-183
-171
-491
-289
-96
-445
-486
-125
-258
-552
-225
-85
-455
-356
-139
-368
-385
-101
-207
-433
-153
-24
-298
-189
-15
-245
-181
196
72
-90
184
107
-137
76
156
-204
-266
-85
-321
-514
-267
-212
-482
-404
-227
-436
-405
-91
-318
-596
33
728
1561
3882
6332
6536
4599
2265
404
-617
-420
-112
-369
-228
-90
-590
-617
-211
-367
-646
-365
-338
-651
-478
-293
-514
-541
-253
-354
-547
-323
-254
-527
-405
-152
-433
-493
-142
-220
-447
-184
-121
-374
-148
63
-277
-290
123
-7
-204
121
204
-15
100
283
94
36
355
255
-22
275
319
-43
137
404
83
-46
181
-55
-329
-65
-50
-401
-326
-138
-414
-522
-200
-279
-523
-226
-209
-554
-283
-107
-499
-401
-62
-367
-519
-189
-227
-432
-291
-172
-389
-406
-141
-327
-509
-124
-142
-519
-308
-177
-496
-457
-156
-345
-621
-262
-175
-598
-408
-119
-456
-509
-218
-412
-527
-167
-151
-510
-504
-295
-490
-486
-198
-360
-493
-292
-295
-485
-361
-228
-463
-404
-78
-229
-390
-76
-114
-468
-184
47
-316
-207
215
26
-121
136
23
-159
108
42
-400
-359
-174
-382
-572
-305
-199
-579
-429
-112
-448
-497
-232
-405
-301
702
2236
4131
6258
6702
4358
2021
774
-325
-477
78
30
-417
-287
-132
-520
-508
-218
-452
-592
-334
-371
-626
-432
-249
-574
-436
-85
-473
-679
-256
-214
-544
-352
-123
-448
-454
-103
-197
-398
-193
-169
-411
-182
-20
-192
-48
20
-197
-224
86
155
-131
47
264
-25
-25
258
69
-70
221
186
-129
-8
245
-28
-193
72
-140
-379
-101
-167
-392
-207
-176
-477
-431
-154
-365
-532
-251
-254
-442
-314
-181
-381
-416
-145
-328
-481
-82
-116
-460
-170
-26
-414
-341
-47
-275
-403
-54
-119
-397
-211
-112
-380
-345
-53
-248
-427
-113
-161
-432
-189
-87
-399
-279
-18
-346
-442
-125
-234
-475
-253
-127
-394
-313
-44
-301
-477
-175
-202
-402
-223
-158
-428
-349
-29
-188
-255
-8
-78
-297
-116
45
-123
22
205
26
-12
194
144
-47
129
183
-185
-308
-185
-420
-499
-143
-199
-507
-340
-141
-411
-409
-205
-462
-283
698
1950
3955
6300
6811
4628
2207
888
-203
-400
177
74
-377
-253
-149
-452
-438
-171
-430
-580
-228
-287
-558
-338
-192
-492
-442
-135
-378
-572
-194
-195
-506
-280
-138
-383
-263
-56
-336
-400
-27
-99
-347
-66
36
-302
-191
205
-1
-249
108
120
-122
200
259
-105
35
325
98
-3
280
214
-31
156
280
-56
-84
188
-91
-267
143
-94
-555
-204
-67
-378
-302
-78
-267
-409
-122
-179
-481
-234
-93
-392
-343
-53
-262
-445
-115
-74
-336
-214
-19
-323
-299
51
-216
-381
-53
-103
-399
-182
-91
-389
-314
-114
-283
-408
-123
-191
-451
-223
-210
-494
-371
-42
-331
-515
-147
-235
-506
-276
-141
-465
-405
-75
-302
-436
-144
-271
-513
-189
-62
-469
-394
-65
-280
-353
-40
-124
-313
-35
-44
-351
-150
143
-3
-60
207
225
-68
38
261
-134
-321
-95
-337
-484
-156
-259
-540
-313
-222
-507
-368
-73
-470
-653
6
659
1968
4529
6510
6261
4223
2077
348
-468
-87
14
-267
-163
-213
-565
-482
-271
-515
-604
-256
-426
-807
-367
-199
-663
-535
-264
-508
-465
-241
-473
-671
-387
-262
-524
-393
-176
-436
-498
-159
-241
-476
-139
35
-363
-338
-5
-205
-224
164
42
-187
69
147
-102
12
244
-6
-113
184
128
-90
137
208
13
89
110
-195
-295
-17
-148
-407
-177
-127
-426
-404
-191
-371
-465
-216
-315
-507
-256
-170
-442
-335
-57
-342
-523
-192
-230
-447
-248
-112
-341
-310
-62
-357
-483
-55
-119
-353
-154
-156
-379
-291
-153
-388
-367
-58
-216
-453
-210
-96
-462
-405
-76
-353
-481
-125
-236
-473
-180
-176
-511
-312
-93
-368
-427
-144
-231
-458
-184
-136
-435
-232
-65
-363
-372
-58
-149
-229
97
-60
-401
-171
50
-88
-99
199
179
-94
118
211
-108
-27
100
-229
-388
-203
-334
-517
-243
-174
-442
-340
-187
-384
-388
-236
-280
80
1371
3337
5427
6750
5813
3035
1036
150
-317
-165
162
28
-370
-425
-265
-411
-472
-237
-380
-585
-309
-217
-548
-436
-110
-398
-521
-159
-292
-534
-192
-114
-338
-218
-175
-363
-302
-76
-227
-353
-41
-10
-292
-113
121
-165
-190
236
82
-207
147
251
54
162
258
63
18
284
154
-89
243
312
-33
93
229
-45
-58
154
-78
-319
-16
63
-285
-298
-138
-352
-378
-84
-193
-338
-151
-122
-340
-245
-51
-310
-332
-12
-106
-306
-97
-16
-310
-246
49
-169
-329
-11
-103
-280
2
-87
-341
-168
-39
-249
-259
4
-186
-384
-69
-110
-408
-121
73
-342
-359
-26
-202
-422
-81
-8
-426
-250
21
-287
-285
-32
-221
-370
-72
-29
-370
-201
22
-287
-271
-44
-234
-360
30
117
-274
-86
141
-201
-213
179
101
-95
259
292
-85
155
401
9
-97
165
-134
-422
-141
-161
-452
-287
-24
-243
-377
-85
-139
-397
-215
-40
264
1617
3861
5875
6764
5585
2742
632
-49
-246
-189
112
156
-259
-395
-95
-266
-578
-267
-195
-528
-347
-119
-444
-436
-68
-259
-484
-135
-132
-446
-194
-13
-359
-335
86
-125
-416
-50
30
-283
-132
74
-213
-97
289
5
-159
230
235
-43
216
440
81
84
485
338
75
298
332
153
302
412
184
98
328
163
-46
248
86
-320
-94
56
-265
-276
1
-230
-442
-42
-47
-424
-187
11
-300
-228
72
-153
-281
-14
-4
-157
-74
-7
-272
-248
102
-137
-329
41
63
-234
-160
-17
-233
-171
117
-147
-339
-2
66
-272
-225
-21
-257
-240
39
-138
-304
-24
-36
-332
-127
43
-256
-243
110
-90
-291
8
-67
-354
-104
127
-232
-273
56
-132
-311
-35
17
-188
-34
98
-166
-136
209
151
-26
243
315
94
297
384
14
0
245
-2
-284
-115
-146
-397
-152
56
-298
-291
21
-143
-313
-90
-39
17
1070
2785
4651
6568
6662
3985
1359
377
-221
-519
-85
173
-221
-284
1
-268
-461
-105
-149
-436
-274
-131
-306
-229
-43
-292
-362
-27
-84
-357
-71
66
-360
-243
147
-119
-254
127
9
-284
93
206
-166
-30
292
108
-60
265
311
100
403
461
101
272
611
336
224
566
450
209
412
574
340
288
545
285
45
324
190
-142
10
91
-216
-210
23
-198
-311
-39
-163
-407
-123
82
-183
-221
40
-106
-261
58
56
-253
-106
27
-181
-85
85
-115
-198
6
-58
-241
-32
53
-270
-288
-8
-168
-289
27
-70
-354
-99
32
-306
-198
144
-147
-350
-103
-62
-273
-189
-29
-265
-271
-22
-213
-305
-21
-109
-318
-108
-41
-329
-241
28
-150
-213
129
57
-159
-27
22
-165
-105
254
132
34
387
304
13
235
312
-89
-116
79
-225
-377
-64
-145
-409
-162
11
-340
-289
30
-272
-461
54
669
1529
3726
6143
6710
5251
2891
860
-230
-193
39
-101
38
64
-376
-364
-96
-234
-355
-232
-245
-413
-232
-147
-464
-327
-70
-354
-426
-114
-169
-432
-232
-56
-338
-246
-12
-268
-258
75
-29
-236
-16
78
-127
8
221
72
-18
193
223
36
279
426
165
296
473
185
91
355
262
45
308
427
116
132
301
-29
-136
233
12
-330
-38
-2
-359
-229
6
-298
-373
-62
-205
-374
-60
-88
-405
-242
2
-247
-314
65
-89
-416
12
130
-383
-235
105
-163
-257
49
2
-254
-58
14
-322
-186
90
-163
-258
-4
-103
-335
-118
-12
-308
-208
150
-197
-432
-37
-92
-347
-110
-33
-313
-210
27
-273
-419
-14
-99
-405
-102
31
-337
-260
-4
-264
-274
-1
-110
-208
77
78
-276
-140
259
111
-52
264
209
5
262
329
-19
-34
190
-195
-399
-59
-214
-441
-128
-20
-380
-331
-9
-287
-474
-98
173
810
2763
5229
6620
6178
4110
1727
264
18
4
-186
194
195
-421
-311
-66
-398
-457
-130
-220
-453
-205
-153
-439
-307
-83
-341
-392
-81
-138
-362
-226
-99
-351
-282
63
-141
-322
19
-72
-322
34
95
-183
-24
189
-50
-115
261
263
4
152
244
31
199
421
114
55
382
309
160
324
308
68
157
372
42
-53
328
-7
-379
-13
31
-330
-173
79
-285
-330
44
-150
-401
-97
-29
-300
-74
46
-329
-289
62
-153
-385
17
25
-359
-161
126
-127
-238
83
11
-247
6
86
-264
-166
150
-25
-179
27
-64
-310
-93
-36
-279
-44
102
-290
-295
3
-155
-328
-105
-32
-265
-197
27
-188
-311
-24
9
-314
-165
22
-276
-129
6
-292
-258
99
30
-192
86
124
-166
-13
242
63
30
368
277
-22
305
434
-28
20
102
-215
-251
-105
-215
-386
-158
-74
-356
-241
27
-260
-474
-152
72
594
2404
4829
6510
6525
4437
1893
497
-55
-162
-88
112
27
-397
-305
-88
-395
-448
-159
-306
-469
-210
-180
-415
-297
-114
-392
-348
22
-205
-473
-247
-133
-380
-245
-3
-254
-251
32
-104
-237
59
76
-185
-23
221
68
-52
238
291
-1
152
260
0
172
438
167
116
453
290
48
373
408
65
185
303
43
81
260
-15
-161
133
-57
-408
-149
62
-243
-307
1
-149
-332
-27
-23
-317
-169
49
-222
-292
44
-119
-365
15
119
-342
-243
78
-187
-268
64
5
-248
-27
31
-346
-181
73
-270
-209
94
-230
-432
-86
-78
-422
-116
138
-389
-411
-12
-233
-429
-105
-94
-367
-173
2
-332
-399
-59
-191
-430
-139
-62
-439
-317
-21
-320
-291
176
7
-376
-101
41
-289
-92
209
-32
50
354
107
-33
299
249
-121
-34
91
-243
-366
-121
-244
-420
-81
-74
-513
-369
-6
-302
-484
-24
327
1130
3257
5604
6726
5964
3565
1082
-95
-125
-129
-226
42
3
-263
-63
-67
-420
-402
-149
-291
-478
-169
-145
-434
-221
-29
-329
-306
9
-190
-386
-107
-48
-290
-115
63
-213
-272
-47
-91
-223
53
120
-149
60
253
-53
-24
348
167
-1
368
367
76
338
577
299
297
441
336
250
329
353
116
191
369
79
-52
126
-73
-321
-63
-36
-359
-207
-52
-356
-365
-55
-213
-480
-190
-101
-407
-196
45
-363
-407
-26
-218
-416
-100
-58
-362
-238
-17
-306
-355
-53
-212
-387
-128
-167
-392
-175
-103
-353
-311
-122
-274
-438
-217
-202
-479
-291
-70
-389
-470
-167
-310
-530
-286
-244
-517
-399
-145
-416
-504
-122
-274
-589
-199
-86
-509
-226
77
-351
-366
-31
-208
-346
75
125
-218
18
206
-112
-85
174
-132
-359
-108
-265
-622
-414
-180
-534
-584
-207
-385
-557
-213
-291
-643
-264
454
1292
3269
5826
6670
5074
2661
760
-364
-433
-226
-418
-370
-178
-372
-531
-373
-380
-621
-444
-298
-596
-530
-244
-455
-650
-282
-257
-599
-361
-199
-582
-439
-136
-435
-498
-179
-218
-414
-247
-162
-379
-291
7
-185
-339
10
22
-215
-5
144
-107
-55
274
79
-77
330
250
-104
106
268
4
-19
292
144
-164
35
19
-367
-248
-101
-440
-447
-165
-407
-632
-303
-307
-615
-380
-216
-439
-464
-338
-441
-565
-316
-287
-553
-377
-237
-493
-398
-212
-471
-495
-156
-252
-477
-283
-173
-371
-438
-154
-270
-607
-307
-272
-601
-420
-264
-524
-536
-271
-457
-608
-292
-313
-551
-356
-235
-561
-495
-235
-502
-572
-282
-335
-613
-454
-294
-583
-482
-207
-434
-568
-322
-343
-570
-286
-98
-487
-412
-29
-257
-280
110
-63
-364
-91
106
-151
-188
-8
-218
-481
-327
-358
-563
-439
-384
-611
-544
-273
-480
-599
-356
-514
-517
491
1810
3481
5793
6752
4839
2240
824
-209
-622
-154
35
-360
-494
-257
-434
-686
-386
-412
-702
-425
-312
-681
-598
-295
-567
-658
-299
-395
-679
-439
-282
-533
-526
-294
-395
-541
-173
-195
-600
-331
-159
-414
-364
-87
-174
-312
-83
-72
-272
-99
97
-146
-107
212
13
-133
155
77
-174
106
233
-113
-40
186
-74
-156
84
-18
-362
-270
-136
-451
-392
-109
-395
-580
-282
-312
-544
-318
-266
-515
-393
-299
-472
-439
-243
-317
-543
-358
-185
-480
-466
-148
-334
-517
-185
-203
-517
-282
-156
-484
-407
-180
-421
-470
-162
-325
-595
-314
-219
-574
-520
-143
-356
-641
-315
-306
-598
-375
-243
-558
-452
-183
-474
-547
-163
-286
-575
-340
-275
-572
-486
-206
-377
-473
-256
-370
-516
-234
-138
-424
-347
-88
-233
-161
74
-90
-208
34
96
-174
-91
69
-296
-490
-260
-379
-658
-391
-257
-606
-503
-328
-650
-631
-327
-580
-719
-27
940
2424
4882
6707
5893
3457
1628
214
-593
-224
40
-336
-414
-264
-646
-776
-383
-476
-738
-480
-438
-745
-611
-352
-579
-668
-338
-415
-723
-485
-306
-608
-591
-280
-458
-663
-329
-355
-666
-365
-167
-552
-533
-145
-306
-414
-62
-145
-439
-161
-10
-314
-191
81
-167
-201
134
-32
-230
26
27
-176
-23
39
-266
-280
-6
-156
-402
-195
-170
-511