-253
-113
-254
-241
-76
-226
-329
-102
-110
-365
-200
-53
-265
-153
95
-136
-263
100
56
-238
108
212
-97
118
370
121
-24
140
-2
-299
-207
-146
-436
-395
-102
-354
-544
-194
-232
-554
-243
-101
-561
-250
810
1960
3947
6363
6809
4474
2001
652
-472
-561
23
-98
-378
-276
-313
-629
-598
-425
-693
-690
-402
-583
-695
-402
-427
-784
-692
-438
-652
-706
-384
-513
-694
-340
-375
-761
-511
-246
-596
-614
-268
-397
-481
-224
-270
-495
-324
-54
-190
-308
-88
-107
-228
53
76
-193
-26
226
-63
-115
211
-54
-194
193
111
-271
-111
74
-283
-380
-94
-307
-530
-275
-353
-600
-422
-295
-536
-482
-190
-356
-617
-401
-278
-553
-389
-161
-519
-492
-133
-322
-438
-173
-256
-505
-307
-125
-353
-381
-163
-318
-428
-194
-241
-510
-293
-128
-487
-439
-131
-329
-534
-237
-182
-395
-243
-193
-428
-404
-133
-187
-402
-265
-220
-456
-299
-93
-427
-470
-142
-216
-349
-156
-180
-411
-241
-96
-293
-310
-152
-272
-369
-107
-88
-276
-169
-22
-166
-209
44
-59
-256
119
290
57
200
327
23
15
241
-47
-271
-87
-141
-323
-216
-91
-377
-448
-115
-258
-420
-123
-108
-427
-106
760
1726
3681
6075
6798
5190
2668
741
-341
-412
-109
-126
-147
-161
-346
-447
-231
-211
-426
-282
-160
-484
-388
25
-232
-467
-155
-76
-336
-266
-44
-235
-272
-13
-127
-330
-63
37
-249
-73
193
-49
-54
244
106
-37
264
307
106
329
502
197
235
663
539
260
564
589
297
538
696
365
437
822
515
199
453
394
58
185
311
-33
-102
112
-76
-284
-16
-29
-329
-84
90
-214
-171
86
-102
-197
118
77
-252
-61
174
-99
-180
100
-23
-176
22
-43
-180
-11
75
-158
-119
123
-128
-280
98
15
-312
-39
29
-296
-276
-1
-147
-387
-89
-52
-296
-101
-41
-358
-301
-24
-181
-292
-39
-130
-402
-241
-51
-177
-252
-108
-246
-424
-89
-46
-347
-172
-6
-294
-265
75
-115
-336
-25
2
-223
-29
121
-133
-111
241
144
-25
293
294
-63
115
249
-152
-300
-93
-225
-430
-209
-183
-472
-328
-93
-373
-338
-63
-372
-485
193
1167
2584
4968
6831
6026
3538
1580
165
-527
-119
34
-302
-212
-130
-475
-491
-201
-373
-526
-285
-265
-494
-438
-251
-464
-509
-209
-309
-482
-254
-240
-458
-316
-197
-435
-396
-85
-228
-379
-98
-100
-310
-117
-6
-224
-150
101
12
-53
114
113
33
146
267
119
124
332
208
114
348
389
85
121
417
157
-39
210
-5
-215
41
-47
-347
-175
-37
-418
-443
-113
-239
-397
-182
-162
-431
-281
-51
-316
-346
-124
-256
-486
-196
46
-326
-290
-53
-342
-306
-27
-212
-339
-111
-153
-394
-192
-10
-235
-300
-143
-240
-337
-133
-245
-480
-195
-140
-438
-371
-164
-255
-413
-215
-150
-398
-307
-132
-376
-415
-57
-199
-454
-203
-211
-357
-223
-256
-433
-327
-124
-295
-406
-124
-159
-481
-291
-47
-302
-363
-51
-138
-216
90
-9
-296
-122
39
-138
55
311
12
-97
258
255
-37
117
114
-273
-294
-107
-306
-451
-80
-191
-575
-281
-66
-390
-334
-89
-398
-176
966
2462
4542
6628
6652
4082
1725
633
-270
-341
184
99
-296
-247
-212
-492
-412
-138
-324
-421
-170
-272
-503
-333
-149
-362
-372
-106
-291
-463
-193
-156
-350
-196
-38
-296
-333
-40
-157
-270
-22
44
-60
-51
124
0
-104
220
157
-30
246
325
75
240
490
210
136
423
343
152
289
367
119
280
513
88
21
341
149
-129
29
70
-250
-196
31
-213
-278
9
-122
-289
-17
-10
-295
-192
12
-162
-181
61
-82
-315
-81
5
-337
-151
140
-143
-158
34
-120
-219
72
-15
-357
-66
132
-117
-134
23
-133
-257
42
25
-326
-91
146
-240
-294
49
-47
-244
15
38
-286
-90
144
-177
-224
44
-66
-202
-26
27
-182
-87
142
-144
-216
100
-30
-188
62
19
-256
-20
185
-162
-137
250
115
25
269
208
-32
207
445
147
214
568
462
288
416
461
302
374
362
21
-20
183
31
-133
122
172
-64
31
242
125
-93
11
108
369
1584
3461
5533
7204
6767
4010
1577
582
3
-59
450
471
29
-3
150
-21
-21
244
15
-201
80
108
-43
77
135
-22
-5
239
151
-54
252
357
-28
109
380
116
111
363
287
246
407
368
166
371
661
400
337
638
549
449
791
833
515
719
936
602
640
983
795
586
884
971
658
802
906
548
552
683
491
323
534
502
160
341
473
149
151
430
285
80
318
356
169
324
404
182
207
460
327
180
452
396
124
342
580
333
212
465
330
128
455
448
160
348
452
207
225
431
275
97
359
382
138
340
464
242
153
357
303
59
378
390
19
255
472
157
84
442
315
16
340
401
123
294
406
143
162
431
235
118
345
257
162
344
403
173
262
644
359
87
469
507
262
465
668
434
388
653
474
242
439
352
24
64
111
-112
-40
165
-109
-296
37
182
-111
-105
88
-42
437
1748
3324
5393
7054
6107
3093
1123
309
-403
-277
308
124
-268
-81
-87
-337
-230
-40
-257
-264
45
-127
-275
-19
99
-177
-147
9
-152
-10
138
-25
-222
-19
100
-149
40
290
-10
-124
220
182
-13
209
261
-16
187
495
223
104
386
370
206
387
494
306
359
527
239
216
618
416
113
435
454
81
221
334
-101
-121
134
-115
-285
-109
-122
-340
-286
-153
-314
-343
-115
-212
-438
-214
-154
-446
-238
4
-339
-380
-69
-220
-410
-147
-57
-271
-211
-71
-192
-217
-119
-252
-365
-106
-53
-384
-240
-79
-362
-308
-31
-249
-514
-214
-141
-420
-346
-235
-435
-486
-300
-399
-565
-258
-269
-638
-396
-193
-544
-561
-211
-304
-506
-350
-292
-525
-426
-207
-572
-631
-314
-486
-575
-302
-339
-619
-508
-280
-457
-448
-100
-253
-485
-160
-169
-490
-259
88
-96
-254
-41
-89
-264
-166
-181
-451
-498
-470
-692
-690
-425
-536
-742
-474
-460
-598
-348
-540
-811
-212
988
2582
4792
6505
5653
2998
1091
39
-623
-482
-130
-322
-645
-487
-435
-764
-746
-536
-720
-812
-543
-637
-845
-597
-536
-765
-655
-465
-717
-753
-374
-552
-815
-464
-420
-749
-670
-421
-615
-599
-200
-443
-684
-340
-232
-448
-365
-183
-349
-333
-43
-94
-320
-103
79
-313
-230
53
-274
-193
76
-209
-301
-26
-77
-370
-236
-97
-413
-464
-211
-381
-638
-356
-340
-724
-597
-375
-618
-607
-262
-494
-732
-407
-330
-637
-544
-314
-585
-601
-276
-445
-637
-315
-322
-631
-496
-244
-430
-606
-332
-402
-613
-394
-382
-602
-439
-291
-573
-644
-356
-461
-730
-431
-400
-695
-501
-357
-595
-533
-310
-551
-657
-274
-354
-820
-628
-326
-661
-651
-259
-516
-726
-442
-472
-685
-522
-344
-575
-633
-338
-432
-653
-463
-396
-572
-568
-402
-489
-600
-330
-350
-541
-314
-315
-560
-279
-30
-295
-308
-40
-115
-240
-68
-181
-502
-456
-403
-631
-683
-564
-632
-677
-505
-510
-752
-608
-451
-755
-637
161
1089
2839
5391
6635
5359
2942
1031
-325
-712
-223
-270
-546
-368
-522
-804
-580
-477
-782
-789
-537
-651
-750
-598
-601
-708
-544
-465
-796
-736
-448
-591
-706
-471
-437
-685
-488
-282
-481
-487
-318
-440
-501
-196
-259
-477
-244
-117
-262
-191
-2
-154
-266
-13
19
-173
-2
128
-131
-135
64
-66
-167
149
155
-231
-35
104
-298
-269
-76
-325
-484
-271
-336
-624
-479
-298
-471
-535
-361
-416
-538
-379
-373
-566
-416
-218
-395
-497
-306
-362
-562
-342
-200
-404
-360
-235
-456
-446
-197
-366
-501
-279
-280
-502
-381
-215
-466
-468
-113
-309
-628
-348
-292
-522
-322
-171
-468
-477
-257
-433
-503
-320
-363
-525
-385
-227
-453
-411
-168
-404
-581
-328
-318
-543
-339
-136
-474
-684
-329
-313
-559
-353
-280
-453
-363
-218
-411
-307
32
-295
-480
-142
-164
-439
-256
68
-132
-127
254
98
-134
100
50
-295
-279
-249
-448
-465
-347
-518
-646
-337
-338
-620
-441
-249
-509
-623
-189
331
1375
3686
5948
6623
5260
2703
580
-403
-398
-282
-365
-262
-274
-595
-495
-367
-653
-560
-362
-595
-716
-425
-431
-670
-460
-281
-547
-528
-253
-540
-661
-245
-243
-493
-363
-206
-407
-343
-35
-279
-461
-107
-29
-257
-123
129
-138
-107
290
24
-60
242
216
110
203
344
203
238
444
229
101
330
348
112
144
277
62
-1
179
-38
-213
-64
-116
-320
-236
-65
-290
-390
-83
-135
-391
-207
-125
-324
-218
-89
-306
-317
-28
-129
-282
34
-48
-366
-167
-23
-206
-153
85
-93
-294
-138
-132
-280
-146
-8
-187
-272
-41
-54
-323
-191
-121
-264
-141
-92
-318
-294
-12
-180
-343
-52
-133
-406
-182
-10
-271
-324
-62
-195
-328
-19
-142
-459
-213
-56
-364
-241
75
-254
-440
-93
-47
-288
-142
41
-152
-165
46
-43
-224
33
248
-25
84
383
52
-42
293
100
-189
-16
-63
-349
-304
-215
-417
-424
-167
-297
-448
-164
-99
-472
-467
-17
445
1550
3655
5776
6646
5372
2564
368
-349
-378
-433
-289
-55
-284
-497
-327
-335
-550
-407
-292
-507
-503
-300
-428
-586
-321
-302
-556
-329
-199
-514
-426
-168
-358
-424
-156
-184
-403
-231
-55
-330
-291
73
-70
-211
73
47
-131
141
265
97
151
314
216
46
214
314
191
232
304
154
153
395
219
52
344
219
-121
60
103
-216
-150
8
-275
-343
-254
-432
-508
-287
-195
-502
-494
-231
-340
-477
-235
-214
-473
-243
-72
-366
-343
8
-180
-568
-255
-110
-369
-163
-33
-390
-351
-47
-307
-483
-109
-103
-474
-219
13
-438
-352
37
-310
-512
-145
-153
-470
-340
-139
-338
-288
-77
-329
-457
-172
-131
-393
-247
-93
-411
-380
-32
-236
-416
-106
-228
-528
-242
-38
-322
-281
-79
-259
-309
-137
-164
-310
-115
34
-188
-170
56
-8
-114
-35
-65
-145
96
261
47
125
356
157
21
139
32
-206
-233
-137
-306
-344
-108
-248
-418
-238
-201
-372
-255
-175
-328
189
1540
3377
5594
7013
5793
2934
1248
332
-363
-84
177
-189
-362
-130
-217
-446
-298
-250
-466
-352
-179
-341
-367
-213
-224
-366
-224
-67
-313
-326
-101
-243
-333
-122
-82
-218
-156
-6
-163
-182
172
25
-221
178
170
-144
143
318
66
85
337
222
103
354
424
176
299
593
249
147
420
251
143
421
399
99
271
320
-30
-3
193
-17
-182
18
2
-153
-102
63
-58
-271
-88
-87
-213
14
61
-258
-148
86
-129
-106
88
-105
-242
72
112
-200
-17
247
-46
-178
79
-22
-210
57
109
-136
19
140
-142
-132
127
39
-202
8
211
-162
-200
58
-29
-58
80
-38
-156
41
12
-159
13
109
-165
-87
230
-38
-272
142
124
-263
46
214
-190
-186
150
4
-136
120
24
-195
76
129
-112
15
165
159
75
158
236
19
149
406
202
222
512
287
250
577
366
111
272
253
-55
-118
73
-24
-256
-31
107
-182
-51
131
-47
-67
-66
12
595
2023
4198
6200
7043
5589
2771
996
234
-51
21
267
216
-140
9
19
-265
-167
-131
-266
-302
-93
-21
-290
-174
54
-176
-178
114
-72
-170
152
11
-304
-55
163
-111
-99
202
-6
-191
136
140
-78
199
353
94
147
423
266
181
532
482
216
492
661
310
430
648
220
247
655
577
337
465
540
272
339
498
217
47
224
197
-105
6
191
-65
39
253
-11
-171
79
133
-89
62
160
-30
73
252
95
-65
177
279
22
220
392
-28
-97
212
125
31
216
194
-24
65
287
93
17
274
89
-95
186
167
28
153
191
-14
-110
84
52
-43
183
161
-74
58
159
-65
-58
209
73
-84
166
184
33
93
87
-59
-1
176
20
-100
170
215
-83
11
232
-52
-78
277
117
28
356
267
35
177
418
311
240
507
380
203
497
416
99
216
167
-145
-51
177
-47
-232
50
115
-190
-101
140
-83
-113
157
321
1008
2797
4910
6591
6867
4664
1873
474
-20
-235
-121
203
210
-98
-114
66
-184
-230
46
-171
-237
55
-118
-347
-56
145
-165
-240
14
-112
-54
153
-105
-222
45
140
-82
-7
260
14
-139
258
248
27
256
341
170
231
541
505
255
487
578
307
529
724
507
544
678
592
533
771
672
362
582
640
381
331
420
253
-7
155
157
-165
-74
87
-160
-59
178
-187
-262
88
12
-187
43
71
-199
-56
137
-26
-143
32
51
-143
-43
141
-67
-40
200
-151
-209
209
56
-281
-54
112
-167
-165
98
7
-159
-30
-105
-201
50
32
-276
-249
-15
-152
-202
40
-97
-307
-127
-31
-270
-238
51
-136
-314
52
-78
-393
-80
-21
-303
-232
6
-196
-368
-37
9
-238
-49
66
-161
-41
168
-56
-55
273
136
48
289
207
62
212
283
-13
-166
55
-116
-408
-191
-128
-376
-301
-84
-306
-388
-106
-115
-368
-320
168
822
2226
4658
6522
6327
4349
1870
122
-245
-80
-272
-189
22
-260
-417
-219
-247
-463
-366
-250
-463
-404
-141
-338
-502
-192
-205
-464
-255
-66
-336
-396
-102
-256
-453
-182
-131
-256
-121
-24
-231
-198
85
-44
-128
124
104
-82
111
241
34
109
361
249
126
384
428
192
335
430
105
218
544
269
87
397
250
-81
86
105
-136
-170
-17
-212
-384
-58
-50
-376
-178
-55
-363
-294
-80
-249
-342
-90
-149
-398
-163
16
-263
-230
53
-220
-353
-4
-96
-337
-41
-17
-358
-122
1
-272
-325
-110
-105
-360
-144
-2
-347
-308
-86
-293
-403
-210
-107
-225
-276
-191
-288
-311
-133
-243
-406
-173
-184
-469
-256
-75
-353
-290
-72
-326
-413
-67
-170
-427
-118
-100
-399
-236
-35
-274
-386
-99
-147
-371
-167
-30
-205
-125
35
-133
-136
118
116
-43
219
463
38
1
442
172
-130
95
-102
-434
-216
-168
-408
-317
-133
-272
-336
-96
-98
-393
-305
-41
283
1477
3712
5872
6768
5672
3019
874
34
-112
-131
24
167
-234
-447
-164
-209
-444
-273
-195
-403
-327
-119
-330
-484
-200
-245
-453
-164
-44
-384
-319
-42
-277
-337
3
-131
-456
-173
66
-190
-42
221
-180
-280
166
113
-102
122
207
-2
106
401
209
72
379
369
143
334
449
163
200
401
244
173
363
262
-51
102
192
-126
-64
175
-97
-220
47
-65
-278
-105
-9
-218
-154
86
-56
-225
-85
-144
-308
-21
46
-268
-106
154
-109
-207
19
-76
-176
52
120
-135
-122
135
-62
-195
74
-64
-304
-52
63
-241
-195
41
-172
-274
-15
-63
-270
-54
82
-242
-253
42
-112
-229
13
-82
-341
-22
66
-322
-186
25
-252
-316
108
24
-323
-51
103
-197
-177
17
-117
-203
-13
-26
-269
-64
103
-112
70
243
-76
-142
201
207
19
299
462
188
244
434
204
160
403
234
-158
-136
-64
-247
-204
-12
-115
-261
18
13
-300
-86
-100
-367
123
1112
2410
4678
6948
6756
4178
1948
680
-253
-160
348
108
-180
1
-110
-340
-115
-103
-429
-292
17
-199
-382
-109
-147
-333
-120
-51
-342
-211
110
-246
-313
72
3
-212
-85
96
-163
-116
287
-5
-208
250
229
-27
196
258
88
208
482
328
146
460
425
185
462
552
239
300
577
366
268
578
433
139
412
502
89
151
381
61
-64
231
66
-205
113
141
-246
-94
203
-41
-159
157
60
-181
82
152
-91
9
175
-22
-92
183
96
-58
219
151
-172
10
243
83
54
119
-10
-77
131
225
-101
-95
195
-9
-129
197
117
-227
-5
159
-97
34
207
-94
-183
88
44
-105
30
76
-75
1
236
-2
-107
283
147
-122
133
151
-71
50
277
22
-141
181
109
-48
171
163
38
219
395
206
72
319
359
205
397
562
345
303
559
454
320
463
223
-81
126
208
-182
-148
204
-38
-191
188
110
-167
57
65
-101
406
1429
2869
5153
7219
6718
3988
1808
577
-261
-112
311
104
-80
116
8
-160
100
39
-277
-124
101
-150
-297
56
71
-187
3
161
-107
-134
179
51
-128
126
62
-156
146
266
-34
111
415
147
15
381
360
83
344
500
259
370
610
471
428
684
642
456
656
752
529
637
760
553
491
686
627
388
565
549
148
283
449
94
-13
269
165
-180
56
224
-89
-103
135
2
-140
135
92
-177
75
214
-77
61
222
-113
-109
223
141
-72
199
213
-194
-74
145
-87
-98
236
107
-207
-64
23
-182
-115
87
-128
-222
14
-54
-266
-106
-40
-286
-171
-8
-258
-203
146
-156
-462
-80
14
-279
-176
25
-254
-333
-25
-197
-382
-155
-17
-149
-287
-168
-300
-331
29
-139
-317
-11
7
-209
-127
0
-144
-93
168
103
-34
231
282
2
106
268
-4
-296
-97
-148
-457
-222
-153
-488
-353
-45
-316
-468
-110
-211
-577
-113
614
1355
3550
6252
6766
5071
2830
903
-323
-311
58
-178
-156
17
-388
-534
-235
-316
-499
-309
-362
-551
-339
-278
-497
-491
-202
-311
-560
-217
-121
-477
-354
-109
-350
-333
-64
-265
-391
-62
-28
-314
-214
-1
-115
-142
18
5
-84
67
180
-17
59
345
139
15
334
247
-15
304
400
25
130
317
61
-5
271
127
-214
-22
38
-306
-230
-4
-306
-372
-119
-248
-389
-212
-103
-305
-294
-111
-354
-455
-91
-138
-423
-279
-175
-373
-286
-37
-274
-334
-74
-208
-390
-149
-34
-426
-336
-21
-327
-408
-44
-82
-465
-304
-77
-406
-390
-94
-302
-412
-51
-200
-540
-272
-166
-404
-339
-111
-298
-433
-218
-249
-411
-205
-66
-374
-338
-51
-304
-468
-191
-179
-371
-180
-82
-396
-343
-104
-209
-352
-189
-217
-429
-142
55
-250
-231
-5
-212
-283
116
195
-108
139
245
-125
88
277
-94
-184
-13
-238
-442
-103
-134
-578
-375
-129
-292
-358
-212
-204
-476
-312
78
467
1965
4476
6378
6541
4810
2375
497
-235
-79
-114
-45
-23
-393
-388
-105
-232
-602
-371
-170
-457
-415
-191
-335
-479
-142
-179
-519
-284
-179
-426
-301
-12
-247
-455
-161
-106
-353
-179
-45
-341
-203
103
-120
-235
65
27
-168
147
218
-14
161
265
76
179
385
192
46
237
306
118
156
326
152
65
321
194
-138
87
169
-154
-104
39
-233
-279
-32
-211
-479
-208
-22
-317
-225
-58
-308
-288
-42
-124
-251
-73
2
-200
-235
-31
-159
-320
-51
-96
-300
52
26
-403
-226
38
-217
-368
-68
-104
-273
-30
-81
-398
-191
-7
-332
-372
-119
-167
-328
-153
-76
-364
-299
-57
-267
-397
-94
-73
-275
-200
-222
-405
-287
-77
-288
-392
-84
-173
-418
-199
-188
-436
-276
-25
-257
-417
-82
-139
-387
-172
-48
-145
-61
106
-122
-319
11
124
-48
150
232
-30
184
397
43
-66
155
-58
-439
-233
-147
-465
-403
-97
-240
-473
-153
-90
-357
-246
-184
-130
605
2146
4205
6296
6911
4948
2202
682
0
-267
-25
136
-142
-329
-114
-157
-412
-276
-183
-397
-323
-33
-278
-443
-139
-244
-442
-122
-31
-354
-260
11
-191
-380
-86
-115
-372
-1
140
-260
-127
181
-110
-141
223
106
-10
219
189
-1
142
366
193
202
479
286
122
459
489
150
409
611
214
122
388
345
123
299
295
10
20
57
-135
-236
-2
13
-249
-198
-44
-153
-208
-53
-150
-236
14
-10
-249
-109
27
-146
-6
126
-216
-183
75
-113
-231
72
124
-287
-213
52
-137
-110
119
-47
-242
5
82
-254
-147
122
-228
-266
118
-153
-366
22
15
-363
-207
53
-197
-226
31
-108
-306
-68
72
-225
-172
70
-192
-213
66
-65
-283
-141
-42
-291
-182
81
-166
-242
82
-27
-235
40
109
-198
-5
395
-33
-219
277
261
71
422
530
102
126
425
154
-46
124
-39
-224
-31
37
-212
-152
36
-266
-294
73
-20
-255
-36
278
695
2170
4502
6319
6678
5020
2260
346
-131
-104
-268
-67
142
-195
-248
-121
-331
-363
-148
-162
-351
-297
-99
-198
-324
-139
-184
-312
-116
-127
-360
-230
44
-142
-224
104
27
-268
21
124
-182
61
246
-52
15
377
269
-47
198
420
166
265
545
336
266
595
588
311
436
612
427
503
726
455
271
471
321
125
351
287
-99
-41
74
-182
-250
-66
-126
-304
-117
13
-312
-270
37
-260
-306
82
-56
-270
-89
-4
-240
-223
-8
-226
-267
26
-75
-223
-91
-65
-283
-238
78
-246
-426
19
-151
-458
-206
-110
-376
-306
-39
-305
-466
-168
-260
-459
-188
-153
-434
-360
-172
-362
-379
-177
-317
-457
-286
-212
-498
-377
-134
-430
-485
-202
-289
-514
-337
-234
-366
-366
-271
-423
-509
-170
-218
-487
-179
-99
-414
-210
14
-228
-232
93
6
-293
-2
202
-128
-159
-44
-381
-567
-308
-376
-646
-436
-270
-619
-583
-238
-433
-560
-389
-473
-300
722
2382
4436
6426
6512
3905
1417
299
-474
-599
-119
-23
-550
-545
-279
-679
-785
-354
-403
-797
-598
-279
-545
-655
-363
-516
-711
-380
-381
-593
-391
-369
-593
-408
-211
-481
-529
-180
-276
-461
-167
-146
-303
-226
-132
-223
-314
-64
-11
-165
43
147
-96
4
334
37
-116
331
134
-182
226
284
-24
38
159
12
-117
74
-28
-333
-156
-45
-333
-391
-137
-287
-513
-259
-247
-479
-216
-129
-542
-387
-136
-463
-469
-151
-289
-533
-282
-178
-442
-292
-126
-420
-430
-134
-240
-430
-289
-212
-435
-379
-69
-397
-526
-168
-315
-474
-312
-284
-527
-422
-176
-509
-560
-180
-298
-519
-314
-230
-417
-430
-302
-438
-517
-197
-226
-597
-427
-228
-481
-460
-204
-406
-492
-204
-359
-537
-255
-205
-494
-325
-115
-492
-539
-192
-246
-490
-339
-127
-286
-122
76
-357
-371
119
56
-174
42
195
-59
-28
145
-233
-390
-207
-392
-558
-278
-292
-617
-454
-240
-466
-500
-249
-388
-677
-253
699
1916
4165
6436
6451
4330
2191
530
-570
-357
28
-275
-399
-260
-519
-648
-304
-430
-861
-582
-372
-619
-569
-422
-618
-622
-365
-551
-691
-425
-339
-516
-489
-310
-422
-492
-207
-326
-514
-167
-193
-479
-348
-164
-326
-388
-48
-50
-296
-63
72
-132
-2
222
-22
-194
115
60
-172
135
173
-158
14
232
-52
-104
238
44
-309
-46
-50
-482
-232
0
-509
-566
-222
-367
-582
-325
-161
-451
-476
-218
-361
-505
-219
-283
-571
-246
-117
-507
-453
-180
-357
-446
-58
-131
-444
-264
-252
-467
-301
-82
-389
-479
-121
-247
-483
-195
-167
-434
-299
-197
-385
-355
-117
-252
-433
-234
-217
-388
-304
-218
-441
-485
-166
-224
-429
-260
-234
-337
-248
-173
-316
-405
-126
-172
-398
-75
-94
-501
-267
8
-426
-461
-13
-146
-358
-65
8
-259
-87
104
-193
-250
162
151
-100
279
411
-63
79
428
142
-65
92
-90
-338
-211
-165
-300
-298
-96
-298
-492
-98
-140
-458
-241
-81
108
1185
3236
5456
6836
6096
3378
1071
69
-209
-152
-25
-12
-282
-370
-71
-248
-649
-332
-100
-473
-491
-167
-373
-483
-171
-280
-433
-239
-251
-360
-262
-183
-247
-352
-164
-29
-268
-141
34
-306
-219
134
-121
-123
242
57
-123
164
323
68
52
395
239
35
407
403
85
295
438
189
226
439
266
232
468
295
-1
182
296
-62
-80
132
-181
-270
68
-151
-449
-138
-42
-345
-199
-11
-299
-289
13
-127
-355
-119
-31
-299
-177
44
-213
-278
34
-51
-289
-30
126
-310
-333
35
-177
-294
-66
-165
-322
-108
-33
-335
-306
-48
-227
-338
-40
-151
-423
-187
-131
-391
-218
-63
-392
-416
-110
-159
-337
-208
-168
-374
-274
-99
-329
-355
23
-163
-551
-283
-86
-304
-324
-143
-276
-338
-97
-164
-319
-106
49
-166
-300
-118
-126
-150
209
205
-75
140
249
27
170
237
-200
-317
-8
-174
-490
-249
-194
-489
-406
-186
-346
-379
-138
-296
-585
-158
638
1613
3808
6274
6647
4752
2331
500
-491
-428
-3
-176
-429
-250
-391
-553
-307
-405
-670
-386
-238
-640
-592
-222
-389
-612
-326
-338
-681
-399
-245
-522
-383
-209
-363
-381
-230
-325
-481
-248
-101
-293
-243
-62
-220
-235
49
-26
-229
-29
158
-58
-28
276
166
13
260
256
15
208
329
114
163
378
133
-82
179
63
-148
-29
-146
-339
-211
-150
-412
-437
-175
-340
-583
-266
-175
-496
-383
-85
-310
-490
-100
-185
-631
-225
-82
-566
-418
-95
-295
-442
-147
-148
-453
-297
-180
-416
-281
-95
-417
-507
-186
-265
-514
-241
-138
-404
-318
-113
-295
-423
-112
-204
-583
-402
-283
-531
-485
-206
-296
-406
-86
-275
-445
-12
-236
-543
-354
-192
-227
-358
-231
-140
-318
-181
-48
-474
-457
-80
-389
-326
196
-269
-647
-135
151
-106
-191
-135
-279
-257
-153
-60
-27
211
251
-250
-81
276
11
-158
-99
-249
-397
-410
-547
-556
-347
-447
-836
-652
-167
-426
-758
-737
-609
-53
719
2261
4742
6363
6047
3612
953
-26
-602
-958
-567
-376
-769
-880
-718
-841
-1050
-755
-846
-1340
-1098
-813
-896
-1039
-1048
-1007
-1082
-1119
-901
-866
-1080
-987
-1204
-1112
-660
-1166
-1485
-1019
-831
-1162
-997
-818
-1094
-1126
-954
-1045
-1209
-721
-679
-1092
-950
-687
-703
-1022
-829
-861
-1111
-701
-808
-1165
-998
-606
-599
-1025
-968
-1003
-1339
-1077
-891
-1280
-1277
-1130
-1535
-1583
-1335
-1512
-1634
-1354
-1274
-1545
-1520
-1309
-1473
-1590
-1207
-1264
-1641
-1361
-1231
-1451
-1339
-1228
-1421
-1412
-1166
-1201
-1373
-1237
-1166
-1471
-1353
-998
-1236
-1386
-1071
-1217
-1472
-1132
-1127
-1445
-1263
-1113
-1310
-1359
-1115
-1098
-1328
-1123
-989
-1249
-1194
-947
-1104
-1293
-962
-939
-1283
-1016
-899
-1198
-1038
-782
-939
-1043
-869
-895
-1076
-907
-760
-998
-950
-719
-863
-867
-632
-810
-916
-592
-633
-845
-678
-409
-542
-791
-439
-349
-689
-302
-41
-455
-361
-34
-225
-321
-73
-188
-508
-280
-290
-790
-712
-372
-455
-563
-429
-484
-649
-425
-192
-495
-512
202
1048
2709
5374
7017
5986
3467
1408
-86
-493
-28
-54
-148
32
-162
-496
-353
-227
-451
-366
-127
-305
-411
-158
-168
-315
-146
-55
-203
-184
-61
-178
-222
83
69
-260
7
242
-72
-33
268
89
56
412
285
87
324
473
316
365
589
412
386
692
593
390
672
791
442
542
844
591
467
735
705
450
639
719
269
307
659
384
32
236
260
19
155
336
93
85
377
170
-6
294
323
83
276
410
137
183
381
231
200
410
305
79
329
473
166
182
459
357
148
361
319
88
396
427
107
290
484
208
181
425
244
44
303
386
105
247
485
157
67
378
338
110
264
383
123
235
489
142
9
391
302
87
374
399
78
185
442
230
116
413
344
152
446
536
231
311
599
433
317
623
638
465
709
760
404
595
861
386
200
455
276
7
198
303
74
122
283
11
-61
303
243
-90
206
864
1503
3176
5706
7100
6382
4061
1570
184
37
129
53
171
284
74
-115
95
102
-170
-6
205
-119
-143
171
-9
-147
120
114
-110
63
335
49
-85
270
127
-123
164
274
12
79
253
129
203
318
223
170
295
370
209
364
587
365
439
736
556
435
645
662
459
574
742
470
507
769
535
428
567
347
35
272
318
-225
-178
131
-139
-340
9
-6
-408
-198
-18
-289
-273
-2
-179
-389
-55
-128
-431
-136
1
-285
-289
-49
-234
-384
-58
-20
-311
-171
-78
-428
-346
-104
-322
-422
-175
-240
-481
-266
-151
-474
-448
-162
-396
-500
-186
-360
-495
-231
-242
-506
-533
-337
-422
-532
-276
-257
-596
-433
-283
-658
-538
-215
-490
-628
-283
-300
-662
-507
-262
-540
-554
-245
-382
-499
-225
-245
-477
-266
-136
-389
-296
-24
-172
-285
-78
-161
-386
-184
-155
-625
-689
-429
-539
-710
-573
-517
-720
-585
-417
-674
-693
-489
-659
-441
849
2589
4578
6315
5905
3164
828
-169
-769
-802
-364
-374
-707
-685
-625
-818
-763
-539
-799
-957
-656
-677
-938
-781
-539
-796
-797
-436
-768
-958
-560
-562
-780
-586
-389
-706
-741
-425
-553
-710
-475
-418
-628
-447
-296
-579
-481
-196
-363
-414
-110
-136
-349
-167
-1
-202
-226
92
50
-313
-174
-58
-289
-119
-25
-335
-319
-199
-460
-579
-376
-435
-679
-532
-469
-791
-736
-490
-721
-864
-568
-561
-787
-561
-447
-744
-742
-502
-599
-756
-514
-441
-674
-596
-454
-609
-633
-460
-550
-666
-443
-474
-758
-571
-399
-786
-769
-372
-558
-747
-480
-457
-720
-641
-503
-734
-713
-453
-629
-759
-484
-563
-853
-641
-429
-675
-706
-446
-634
-788
-512
-614
-851
-552
-507
-764
-657
-572
-718
-747
-570
-555
-787
-682
-471
-715
-709
-383
-523
-629
-329
-428
-692
-459
-254
-370
-325
-151
-252
-465
-247
-95
-426
-391
-338
-786
-797
-500
-734
-908
-593
-588
-916
-672
-464
-762
-878
-722
-421
388
2137
4367
6056
6031
3874
1254
-156
-523
-650
-685
-439
-577
-964
-762
-550
-892
-1024
-836
-894
-922
-769
-782
-922
-817
-724
-947
-963
-748
-777
-885
-730
-660
-809
-672
-580
-838
-746
-372
-589
-857
-564
-439
-671
-550
-310
-553
-525
-190
-345
-504
-183
-89
-402
-254
57
-189
-262
77
-120
-429
-8
97
-230
-122
-20
-254
-307
-114
-255
-533
-361
-349
-666
-475
-335
-672
-547
-219
-526
-727
-403
-299
-564
-510
-284
-524
-507
-257
-531
-634
-303
-352
-564
-337
-277
-486
-328
-193
-429
-477
-233
-265
-432
-242
-147
-429
-385
-188
-434
-474
-132
-171
-418
-197
-106
-483
-422
-147
-306
-371
-92
-139
-410
-222
-67
-334
-309
57
-82
-361
-22
22
-370
-186
72
-155
-188
-6
-166
-254
-21
-14
-221
-14
176
-164
-161
164
35
-90
216
264
-42
142
370
76
92
447
408
225
480
549
202
146
196
-20
-27
176
-94
-274
39
21
-238
-40
230
-86
-241
21
-2
345
1632
3450
5551
7177
6470
3594
1515
669
-111
-126
401
290
-84
111
187
-233
-235
48
-87
-259
5
31
-223
-85
79
-86
-73
192
81
-157
58
166
-33
73
210
-55
-66
275
197
49
339
365
73
292
454
192
340
635
428
306
639
638
395
568
754
580
562
859
760
487
680
778
526
663
868
517
359
629
489
185
388
468
164
209
359
5
-12
338
169
62
270
218
41
200
321
52
75
355
150
43
376
275
38
200
336
158
119
372
247
59
343
324
44
199
314
117
115
316
173
-8
259
266
38
275
356
11
20
332
254
20
217
316
113
182
275
74
18
260
262
51
185
333
80
100
342
80
23
380
151
-30
358
417
77
166
428
244
283
518
300
177
485
499
217
436
740
457
434
715
657
608
692
531
249
290
410
224
281
582
464
385
686
459
-47
391
586
-18
154
856
1662
3455
5943
7347
6278
3912
1856
267
-11
747
567
-54
242
304
-17
155
216
-7
78
281
197
86
215
181
-17
187
293
118
71
307
393
33
71
368
299
399
503
180
227
528
340
91
486
678
309
464
691
530
566
752
541
305
847
1059
535
680
927
626
673
925
747
618
887
834
500
577
701
517
399
439
326
48
143
232
-62
92
430
74
-183
107
76
-70
168
265
40
61
307
91
-124
149
83
-130
170
223
-72
18
236
135
-65
79
102
8
172
129
-78
-62
14
-175
-185
113
-34
-311
-25
105
-271
-184
65
-226
-297
28
-44
-353
-146
-14
-350
-317
0
-124
-316
-221
-345
-406
-25
39
-251
-113
291
68
-365
-294
-363
-336
79
99
-126
-61
-27
-227
-107
170
41
-94
150
252
-22
75
244
-151
-266
-119
-305
-501
-379
-179
-453
-513
-266
-481
-524
-249
-467
-460
395
1250
2667
5000
6343
4980
2389
848
-146
-718
-393
-203
-463
-472
-410
-636
-689
-481
-590
-765
-436
-331
-703
-607
-289
-517
-726
-462
-485
-720
-518
-415
-669
-568
-282
-511
-613
-307
-402
-584
-299
-197
-463
-339
-48
-297
-355
11
-100
-242
82
73
-203
67
332
11
-57
251
210
34
171
280
79
99
209
3
72
199
-89
-292
-105
4
-311
-378
-228
-365
-400
-142
-289
-593
-307
-266
-589
-388
-185
-494
-473
-167
-313
-510
-220
-25
-388
-384
-36
-287
-422
-98
-155
-348
-111
29
-262
-225
41
-201
-333
-12
-104
-423
-117
69
-283
-244
-3
-201
-238
-57
-159
-206
-64
2
-175
-265
-36
10
-109
-97
-144
-214
-25
-29
-244
-148
-15
-178
-220
64
-57
-284
-22
110
-103
-44
250
112
-66
221
125
-142
291
449
73
132
375
156
30
268
135
-237
-90
3
-286
-130
58
-235
-292
-8
-135
-349
-113
-135
-246
450
1673
3179
5292
6709
5388
2711
1193
227
-366
-14
215
-13
-142
-73
-127
-318
-179
-69
-339
-331
-121
-313
-360
-7
-132
-450
-138
-5
-344
-170
84
-168
-269
-64
-72
-215
-4
72
-163
-73
77
-60
-74
151
96
39
292
245
101
311
461
165
163
540
452
260
483
502
194
408
641
257
173
510
402
120
292
382
43
55
239
-98
-180
182
15
-301
-26
86
-209
-153
59
-47
-144
32
-48
-297
-52
73
-218
-170
45
-165
-245
45
15
-191
-57
-4
-249
-179
78
-167
-308
-13
10
-199
-121
13
-219
-136
168
-143
-296
18
-95
-281
-57
-11
-280
-214
18
-208
-341
-2
-43
-379
-169
2
-297
-259
-17
-258
-419
-136
-236
-467
-179
-56
-361
-353
-35
-157
-259
-29
-114
-307
-65
75
-142
-27
173
-26
-95
120
38
-148
-104
-173
-424
-452
-310
-511
-594
-271
-305
-613
-431
-233
-569
-668
-342
-107
745
2858
5097
6223
5475
3080
964
-125
-365
-355
-433
-211
-429
-750
-522
-462
-759
-784
-535
-671
-796
-556
-628
-864
-729
-482
-666
-777
-496
-648
-778
-521
-620
-794
-530
-485
-774
-654
-454
-666
-669
-372
-457
-670
-436
-356
-587
-426
-326
-534
-497
-178
-152
-442
-300
-145
-337
-309
-177
-308
-399
-162
-229
-492
-283
-219
-596
-574
-322
-591
-735
-507
-682
-856
-669
-662
-865
-771
-586
-909
-994
-628
-758
-1029
-819
-680
-824
-754
-719
-949
-865
-566
-709
-902
-698
-632
-887
-819
-500
-698
-919
-615
-593
-801
-576
-489
-739
-775
-541
-565
-747
-678
-686
-787
-596
-497
-722
-651
-480
-683
-757
-466
-512
-789
-673
-405
-501
-586
-473
-687
-733
-477
-533
-674
-508
-406
-606
-624
-382
-529
-651
-281
-301
-517
-295
-277
-519
-400
-136
-213
-285
10
25
-254
-144
-30
-342
-465
-265
-457
-696
-328
-257
-753
-645
-285
-603
-566
-231
-710
-1007
-521
122
1085
3107
5441
6189
4912
2700
650
-551
-567
-373
-533
-416
-415
-768
-756
-574
-796
-990
-748
-758
-1001
-740
-657
-994
-902
-666
-872
-953
-587
-690
-1050
-684
-518
-939
-841
-530
-738
-873
-604
-597
-825
-571
-434
-752
-618
-293
-507
-680
-331
-334
-595
-279
-79
-351
-300
-66
-270
-478
-214
-156
-331
-132
-172
-370
-173
-178
-470
-452
-288
-429
-653
-529
-414
-696
-724
-414
-635
-896
-528
-488
-843
-693
-543
-750
-699
-519
-650
-737
-549
-629
-726
-453
-513
-700
-536
-504
-716
-766
-519
-506
-755
-591
-440
-726
-710
-453
-660
-793
-490
-543
-815
-657
-554
-768
-718
-490
-668
-840
-569
-563
-791
-620
-473
-771
-853
-528
-625
-840
-560
-527
-831
-682
-509
-779
-794
-543
-707
-881
-567
-504
-748
-566
-380
-646
-690
-389
-449
-542
-263
-221
-498
-380
-163
-410
-486
-325
-563
-853
-659
-645
-951
-766
-590
-873
-842
-560
-752
-904
-687
-721
-630
277
1797
3762
5879
6459
4257
1485
120
-697
-984
-538
-368
-723
-811
-639
-826
-999
-761
-754
-1015
-814
-617
-901
-926
-670
-785
-894
-629
-628
-872
-701
-558
-828
-789
-511
-676
-810
-537
-521
-735
-553
-383
-612
-561
-282
-449
-572
-255
-207
-472
-310
-82
-333
-306
-4
-153
-278
-6
-50
-367
-157
57
-242
-192
107
-181
-413
-107
-153
-517
-379
-252
-586
-636
-362
-493
-663
-420
-408
-683
-521
-292
-582
-626
-331
-438
-568
-311
-327
-600
-396
-219
-515
-538
-257
-383
-579
-321
-278
-531
-380
-248
-507
-469
-185
-350
-523
-286
-315
-570
-390
-160
-414
-533
-276
-368
-601
-368
-300
-540
-331
-192
-463
-433
-197
-309
-492
-313
-248
-474
-361
-134
-339
-398
-135
-263
-452
-194
-117
-358
-220
-16
-261
-241
71
-132
-244
191
205
-63
134
228
-1
97
285
-13
-314
-150
-151
-423
-301
-112
-317
-328
-96
-242
-395
-138
-136
-404
13
943
2094
4337
6755
6835
4564
2295
721
-382
-257
186
-32
-134
-16
-246
-454
-235
-193
-421
-305
-100
-296
-410
-149
-178
-398
-170
-69
-343
-230
-33
-243
-227
18
-139
-310
-35
45
-200
-54
173
-59
-53
282
158
-86
141
265
73
260
457
198
150
481
429
167
400
480
214
347
550
315
230
500
416
175
405
429
58
89
241
5
-100
133
34
-159
103
112
-238
-57
258
11
-126
121
46
-115
150
94
-90
157
220
-62
-73
203
45
-218
37
134
-171
-74
162
-90
-170
129
84
-59
76
89
-135
-84
140
-94
-229
24
-45
-271
-19
88
-274
-121
99
-205
-268
20
1
-237
-78
17
-216
-171
29
-103
-210
-25
-112
-330
-85
67
-202
-119
151
10
6
238
72
-115
146
215
34
218
378
173
189
440
360
173
295
238
-122
-153
25
-148
-219
83
-42
-291
-46
31
-167
-63
28
-132
245
1391
3039
5229
7129
6640
3824
1724
632
-173
12
470
356
-91
-69
67
-242
-142
78
-248
-274
-5
-116
-274
-75
16
-214
-165
31
-163
-245
122
125
-188
58
185
-168
-33
223
42
-51
149
141
-12
211
286
31
179
458
228
147
438
358
225
469
518
293
346
556
360
210
564
487
171
465
539
180
297
522
182
-29
235
167
-97
121
169
-188
-59
210
-86
-108
239
66
-93
159
81
-200
-49
173
-30
-48
184
42
-124
57
148
-86
-27
238
-5
-155
167
154
-65
90
118
-99
36
180
-60
-182
78
1
-262
18
115
-167
-82
115
-105
-213
79
82
-181
1
160
-191
-139
162
-82
-211
98
62
-212
-12
31
-218
10
203
-122
-169
179
118
-90
183
279
-37
73
327
200
159
432
438
182
366
487
119
174
345
-87
-243
49
-31
-300
-67
126
-223
-137
173
-103
-261
-15
145
555
2070
4423
6491
7307
5751
2782
894
185
-35
-1
169
234
-77
-77
55
-198
-233
7
-85
-291
-61
94
-112
-113
78
-96
-166
205
20
-337
111
206
-232
8
242
-51
-64
206
217
112
242
332
182
340
510
270
274
529
450
255
537
625
359
450
552
388
474
778
566
264
493
724
475
452
744
543
310
507
462
138
290
378
54
54
237
65
-46
221
186
-100
96
286
79
69
264
71
-107
222
199
-62
148
271
-9
30
221
8
10
243
57
-130
110
312
69
6
340
40
-287
199
319
-14
209
254
-28
84
232
11
-88
293
203
-36
145
80
-137
-121
231
230
-129
89
185
-172
-67
175
-46
-139
143
163
-19
142
262
61
166
370
134
82
506
487
228
568
596
280
438
516
210
165
359
79
-162
148
133
-171
69
221
-105
-9
281
2
-112
554
1436
2802
5058
6906
6491
4122
1954
454
-280
74
209
-79
67
113
-238
-245
31
-209
-412
-28
-36
-299
-145
-41
-263
-231
97
-68
-235
80
100
-133
-8
31
-169
-39
197
83
-66
121
144
-140
3
262
128
205
368
228
133
272
456
423
380
502
396
348
507
388
344
594
536
260
467
689
364
308
600
410
242
408
188
-42
99
208
-2
-190
73
85
-133
83
165
-40
101
219
-7
-43
198
183
8
300
379
-66
88
395
90
74
310
118
9
281
312
44
144
281
23
-14
273
173
-25
225
200
-95
71
257
-2
-22
177
22
-96
126
135
-111
75
255
-49
-105
185
51
-95
166
124
-154
52
291
-51
-104
266
174
76
371
239
-79
145
295
96
255
572
436
253
461
567
324
430
538
143
25
251
58
-164
100
99
-154
22
165
-133
-96
174
-52
-32
873
2189
4065
6391
7136
5191
2710
1282
205
-140
381
426
36
25
91
-165
-223
0
-152
-305
47
58
-298
-93
71
-227
-174
111
-48
-240
