-123
-119
146
4
-108
115
72
-124
108
263
-43
21
340
154
16
311
349
134
329
572
318
305
681
575
453
794
805
610
801
935
696
686
958
757
488
709
622
250
360
434
68
-22
190
-14
-218
53
-8
-323
-128
4
-289
-279
-23
-220
-378
-84
-98
-348
-181
-32
-278
-254
20
-141
-322
-53
-43
-300
-93
60
-242
-190
110
-98
-271
-10
-25
-281
-101
80
-219
-251
40
-138
-301
14
-5
-306
-132
38
-255
-254
58
-131
-343
-51
-33
-284
-138
-4
-268
-277
29
-124
-292
-10
-41
-325
-146
18
-232
-228
13
-169
-288
18
-67
-355
-104
104
-173
-132
181
-30
-214
146
227
-50
107
240
-85
-84
185
-47
-290
29
-22
-412
-184
-16
-316
-306
-57
-224
-393
-101
-90
-317
-175
39
344
1165
2089
2211
1495
494
-453
-941
-586
-125
-303
-349
-46
-182
-384
-102
-99
-384
-149
13
-297
-280
-27
-188
-328
-24
-4
-297
-140
22
-206
-182
91
-32
-268
12
82
-214
-18
190
-57
-21
267
108
10
315
291
73
314
539
285
290
670
569
444
792
751
509
764
928
612
604
880
620
389
586
469
114
189
268
-64
-123
71
-142
-316
-83
-124
-395
-231
-75
-367
-391
-108
-290
-499
-215
-188
-452
-292
-129
-396
-375
-78
-230
-405
-139
-136
-358
-130
-37
-320
-289
-35
-171
-373
-129
-95
-381
-218
-19
-299
-319
-32
-197
-385
-144
-125
-363
-196
-39
-318
-325
-72
-210
-394
-162
-134
-394
-235
-55
-336
-351
-65
-246
-402
-96
-115
-406
-232
-53
-319
-322
-37
-214
-408
-125
-90
-359
-190
-22
-326
-307
18
-134
-273
30
41
-188
-18
175
-33
-96
171
64
-184
59
81
-271
-149
9
-321
-336
-41
-231
-436
-162
-155
-441
-241
-58
-350
-320
13
164
692
1848
2472
2109
1324
188
-747
-658
-137
-233
-422
-157
-179
-421
-207
-57
-334
-338
-84
-235
-384
-116
-111
-304
-158
-83
-310
-280
-19
-151
-305
-30
-14
-287
-85
109
-186
-192
120
-26
-172
128
132
-133
76
288
17
79
458
308
116
476
569
342
578
789
547
573
884
739
558
797
750
411
509
587
244
199
362
105
-98
117
11
-295
-117
2
-280
-268
-6
-205
-396
-117
-115
-407
-221
-27
-359
-382
-77
-254
-389
-100
-165
-437
-211
-31
-333
-349
-35
-149
-305
-46
-57
-335
-185
2
-251
-278
14
-166
-358
-65
-95
-372
-159
-12
-274
-259
-13
-135
-308
-79
-85
-375
-186
-11
-296
-279
2
-179
-315
-2
-67
-383
-172
29
-277
-258
54
-159
-338
-53
-73
-344
-156
6
-285
-250
35
-144
-305
-73
-75
-255
-58
84
-159
-105
205
35
-154
159
220
-71
103
258
-94
-59
217
-39
-226
2
-65
-357
-140
37
-246
-245
-60
-221
-294
-45
-97
-296
-84
236
618
1552
2515
2492
1533
373
-473
-715
-260
22
-293
-292
-18
-217
-359
-39
-70
-352
-160
-21
-232
-157
11
-171
-254
-10
-17
-254
-94
65
-180
-137
125
-67
-197
106
108
-140
61
233
8
-1
232
148
15
289
339
132
368
531
293
422
763
622
528
851
841
597
846
1024
696
700
946
670
436
639
529
209
316
352
18
-1
181
-37
-202
23
8
-275
-132
48
-264
-278
1
-215
-373
-88
-91
-344
-176
-9
-291
-320
-20
-167
-339
-47
-90
-361
-146
36
-194
-223
2
-158
-314
-13
-18
-286
-101
43
-255
-265
59
-92
-322
-35
-24
-308
-94
41
-268
-203
65
-182
-336
-1
11
-254
-94
29
-242
-174
113
-126
-317
4
-8
-265
-19
96
-237
-209
86
-107
-284
21
29
-277
-109
93
-180
-127
190
23
-132
157
203
-77
152
386
33
14
286
104
-53
196
122
-202
-20
127
-169
-156
83
-113
-266
18
-14
-292
-106
28
-165
-125
243
670
1328
2246
2435
1448
262
-409
-787
-534
43
-130
-307
6
-51
-292
-74
54
-247
-204
76
-150
-282
65
16
-294
-74
138
-167
-180
143
-19
-173
101
72
-166
58
235
-51
-52
231
81
-9
320
313
39
223
443
221
296
609
428
368
723
696
493
741
922
681
717
999
774
576
898
814
445
552
614
233
130
348
98
-121
104
40
-214
-64
37
-218
-233
-14
-203
-368
-67
-105
-395
-176
-39
-342
-300
-16
-174
-300
0
-66
-346
-102
36
-258
-236
36
-130
-255
31
-73
-354
-96
59
-219
-184
47
-150
-268
-18
-56
-299
-114
9
-268
-216
-4
-187
-299
-38
-64
-316
-122
19
-266
-210
60
-177
-343
-62
-96
-280
-82
-60
-290
-194
24
-167
-289
4
-34
-333
-125
75
-195
-162
141
4
-144
78
130
-20
97
219
-28
-69
132
-62
-222
21
-45
-341
-171
-35
-272
-266
-37
-208
-398
-91
-72
-325
-121
17
88
906
1914
2191
1823
938
-239
-931
-632
-129
-316
-377
-61
-226
-353
-53
-92
-373
-170
3
-318
-271
13
-197
-304
-37
-87
-291
-67
59
-224
-193
90
-81
-214
88
54
-178
30
186
-55
-37
214
56
-38
269
284
94
303
484
292
351
660
546
429
756
806
571
747
903
628
637
889
669
424
588
486
129
218
311
-49
-123
149
-80
-308
-25
-78
-367
-201
-76
-378
-364
-58
-263
-437
-133
-173
-434
-218
-82
-332
-293
-95
-247
-335
-103
-120
-354
-173
-7
-280
-228
36
-224
-367
1
-13
-349
-164
-55
-308
-217
-36
-232
-332
-24
-49
-371
-203
-36
-303
-252
-9
-223
-357
-77
-125
-414
-175
-25
-324
-275
-39
-229
-351
-105
-150
-361
-163
-49
-332
-293
-4
-185
-377
-136
-119
-355
-157
-11
-309
-237
57
-93
-183
90
42
-164
109
210
-133
-103
143
-68
-226
62
-26
-392
-226
-71
-309
-309
-96
-269
-430
-127
-138
-437
-196
-25
-289
70
1073
1690
2115
2451
1424
-198
-602
-430
-467
-296
-66
-306
-446
-110
-140
-422
-186
-46
-386
-334
15
-188
-401
-57
-67
-369
-133
9
-318
-252
62
-140
-252
29
-46
-252
10
142
-134
-54
197
-1
-89
207
201
-25
208
400
137
216
561
447
357
680
682
479
726
872
583
634
912
691
512
708
577
295
405
362
42
58
197
-58
-197
54
-40
-316
-111
16
-324
-297
-3
-215
-393
-134
-149
-344
-149
-98
-388
-320
-62
-249
-378
-110
-153
-366
-146
-54
-335
-209
34
-240
-317
-20
-104
-318
-106
-5
-301
-254
18
-200
-324
-43
-92
-288
-134
-74
-300
-222
-8
-196
-287
-27
-81
-317
-114
0
-290
-226
56
-172
-292
43
-64
-343
-99
26
-251
-198
58
-173
-316
-16
-44
-258
-81
25
-236
-173
70
-158
-234
105
74
-175
83
230
-115
-5
365
139
-26
221
118
-109
107
180
-158
-156
88
-152
-323
-13
-60
-315
-72
17
-278
-205
10
-137
-208
171
640
1292
2297
2724
1825
477
-245
-550
-452
-17
-15
-308
-142
-7
-290
-229
24
-165
-267
21
-28
-297
-102
57
-179
-140
81
-118
-206
83
19
-231
-12
157
-104
-73
210
36
-107
186
146
-63
189
342
98
120
390
263
180
517
540
335
586
787
553
625
948
804
694
954
888
665
833
889
526
486
678
364
140
393
262
-99
94
169
-182
-79
146
-116
-228
12
-51
-285
-99
9
-273
-207
83
-174
-350
-37
-87
-351
-109
40
-282
-218
50
-144
-222
51
-41
-274
-72
63
-176
-189
28
-154
-202
101
-60
-273
25
39
-300
-167
53
-174
-228
12
-48
-280
-82
53
-272
-197
91
-118
-228
32
-68
-317
-61
57
-248
-155
77
-180
-259
47
-20
-263
-70
31
-216
-135
86
-146
-232
81
-32
-276
-5
89
-213
-125
138
-38
-66
233
162
-89
129
367
43
32
333
49
-88
256
156
-135
22
53
-259
-183
102
-146
-286
38
-40
-294
-47
30
-245
-126
147
404
1191
2225
2525
1849
784
-220
-789
-525
-19
-170
-322
-1
-47
-329
-102
32
-285
-206
66
-172
-245
55
-68
-290
-25
74
-205
-119
118
-94
-200
113
80
-165
61
216
-45
-5
271
72
-39
304
214
-6
316
406
103
238
548
372
364
752
676
433
752
922
623
734
1014
751
628
924
798
469
627
662
257
246
420
113
-36
180
61
-172
18
67
-195
-123
27
-153
-196
12
-102
-309
-63
10
-309
-207
47
-188
-308
-18
-65
-304
-59
23
-275
-177
45
-159
-221
15
-73
-240
-44
20
-247
-167
80
-137
-214
74
-68
-326
-72
36
-235
-184
19
-190
-269
10
-102
-337
-41
53
-281
-164
59
-181
-248
-2
-104
-306
-56
20
-313
-203
49
-198
-283
-32
-91
-305
-92
22
-285
-191
89
-126
-188
159
86
-203
88
266
-82
-14
210
-78
-103
191
5
-246
-43
-12
-312
-241
-25
-245
-348
-73
-155
-362
-128
-66
-307
-234
77
427
1104
1997
2185
1374
337
-472
-944
-674
-143
-261
-391
-106
-188
-414
-156
-60
-347
-209
60
-208
-332
-43
-117
-327
-62
4
-316
-177
85
-201
-289
70
-8
-256
-9
84
-171
-54
164
-19
-83
204
142
-59
232
360
108
213
499
353
301
628
603
438
686
746
527
745
944
645
598
823
613
366
544
476
104
147
274
-55
-158
65
-115
-330
-102
-81
-376
-284
-72
-311
-434
-156
-255
-469
-198
-126
-444
-355
-87
-308
-373
-81
-169
-375
-169
-114
-374
-204
-5
-312
-352
-69
-174
-391
-148
-20
-327
-280
-64
-279
-338
-81
-189
-388
-149
-108
-395
-266
-61
-335
-372
-43
-218
-464
-149
-78
-391
-263
-33
-321
-398
-48
-168
-433
-195
-157
-418
-233
-16
-304
-382
-117
-208
-389
-151
-100
-434
-283
-6
-247
-242
84
-30
-281
-51
139
-72
5
172
-116
-187
61
-71
-306
-113
-104
-418
-285
-66
-333
-419
-131
-218
-469
-254
-160
-374
-242
-12
189
950
1966
2333
1923
964
-219
-881
-582
-169
-344
-376
-108
-232
-415
-207
-190
-423
-233
-45
-356
-372
-57
-204
-375
-101
-92
-367
-218
-35
-286
-278
33
-151
-346
-3
82
-206
-101
119
-125
-164
165
62
-89
182
227
16
169
412
222
222
573
504
357
668
786
520
637
869
629
572
811
650
418
578
491
121
230
341
-26
-108
111
-86
-290
-24
-7
-314
-208
-21
-302
-373
-60
-196
-417
-164
-116
-372
-301
-99
-275
-377
-116
-179
-388
-147
-41
-320
-246
-15
-236
-309
-17
-110
-346
-90
-30
-335
-171
25
-282
-299
0
-183
-376
-67
-34
-344
-176
11
-263
-264
-13
-153
-354
-92
-47
-367
-176
20
-298
-286
11
-128
-336
-109
-54
-305
-134
12
-262
-258
-12
-172
-340
-33
-33
-340
-171
22
-224
-251
39
-103
-292
48
109
-203
-16
179
-70
13
296
103
-89
157
126
-175
6
123
-235
-250
14
-165
-346
-134
-129
-379
-215
-27
-311
-301
30
-94
-165
615
1531
2005
2452
2066
402
-644
-426
-328
-400
-104
-96
-374
-209
-30
-282
-286
-25
-175
-335
-76
-57
-312
-152
49
-212
-242
53
-81
-261
-8
50
-171
-78
83
-108
-136
190
89
-174
120
192
-77
114
327
102
82
417
361
197
505
566
324
554
821
568
567
935
790
572
852
865
564
640
732
453
383
507
257
22
190
150
-167
-50
118
-161
-218
7
-151
-330
-72
-50
-342
-160
35
-310
-309
2
-222
-402
-67
-29
-370
-231
23
-251
-306
4
-157
-331
-15
-6
-291
-90
74
-248
-258
6
-164
-283
-26
-71
-246
-80
-35
-284
-266
3
-136
-327
-80
-44
-277
-159
-11
-167
-174
-58
-222
-343
-66
-27
-298
-162
35
-231
-289
14
-108
-289
-46
-26
-293
-174
55
-191
-275
-2
-136
-274
53
28
-261
-41
167
-90
-77
215
19
-113
294
285
-121
60
254
-99
-123
170
-31
-285
-48
-17
-304
-157
34
-250
-268
9
-135
-315
-63
-23
-285
111
1002
1592
2206
2523
1358
-161
-499
-459
-476
-166
5
-271
-296
-3
-144
-322
-31
-33
-320
-152
-3
-237
-197
61
-102
-286
-1
41
-216
-55
86
-198
-165
156
-3
-164
131
119
-138
100
271
-13
39
334
206
60
358
430
180
385
602
397
463
750
635
528
869
903
582
759
957
654
589
811
580
338
543
382
19
191
277
-72
-97
146
-38
-265
-47
-34
-315
-150
21
-268
-301
-14
-156
-340
-71
-102
-359
-152
7
-258
-229
22
-174
-320
-36
-53
-297
-95
53
-196
-188
56
-118
-308
-23
20
-292
-175
-3
-225
-191
37
-165
-302
-34
-77
-323
-122
-4
-277
-224
3
-206
-347
-40
-79
-349
-138
-38
-295
-229
31
-208
-385
-35
-49
-329
-133
-9
-299
-256
33
-149
-283
62
56
-211
-24
135
-64
-18
258
28
-211
86
24
-277
-47
98
-270
-306
-4
-219
-378
-64
-127
-407
-214
-82
-344
-241
10
-178
153
1238
1866
1932
1683
551
-741
-916
-496
-341
-340
-168
-162
-400
-212
-53
-321
-230
-8
-264
-351
-62
-111
-357
-171
8
-262
-244
33
-148
-274
29
17
-253
-50
125
-166
-111
187
-1
-120
170
160
-54
191
340
65
130
440
337
279
577
539
360
663
832
558
619
894
736
577
817
765
441
585
620
263
268
384
72
-96
138
31
-276
-96
2
-317
-290
-53
-279
-407
-106
-173
-425
-199
-81
-357
-305
-71
-271
-345
-23
-94
-377
-116
4
-330
-238
18
-183
-283
-7
-59
-312
-128
-8
-305
-250
18
-237
-336
-6
-118
-365
-104
-35
-326
-238
-12
-199
-309
-52
-116
-363
-162
-63
-344
-246
5
-269
-371
-29
-117
-384
-169
-55
-295
-249
-26
-217
-319
6
2
-242
-24
133
-158
-93
214
68
-61
178
117
-164
35
136
-196
-174
26
-236
-341
-26
-120
-383
-155
-66
-362
-281
-44
-245
-281
-11
12
356
1419
2168
2129
1609
479
-682
-861
-327
-198
-392
-216
-131
-326
-263
-90
-270
-358
-47
-125
-446
-216
-31
-295
-239
31
-194
-317
-12
-80
-333
-54
86
-250
-159
95
-136
-212
86
17
-166
110
188
-82
37
297
142
97
385
325
145
478
619
360
528
768
558
541
824
738
534
732
753
404
443
627
300
96
306
122
-173
41
65
-258
-181
15
-248
-365
-107
-235
-429
-168
-111
-400
-321
-87
-292
-394
-157
-193
-374
-192
-97
-341
-254
-28
-262
-334
-27
-145
-387
-71
-5
-370
-219
8
-254
-327
-40
-111
-358
-151
-47
-335
-300
-77
-239
-289
-28
-151
-398
-165
-58
-304
-213
2
-247
-341
-52
-152
-342
-110
-41
-299
-230
-27
-256
-312
-14
-124
-326
-83
-55
-294
-164
8
-215
-310
17
-16
-242
71
186
-128
-36
220
72
4
229
110
-133
111
205
-139
-88
102
-190
-259
-19
-166
-359
-122
-74
-366
-227
-35
-266
-232
43
-6
293
1406
2224
2302
2028
954
-428
-695
-192
-154
-378
-157
-72
-349
-189
16
-287
-322
12
-115
-347
-80
-31
-327
-189
33
-191
-250
-6
-100
-277
-2
45
-265
-76
130
-174
-159
151
13
-160
108
131
-130
101
362
106
85
439
331
161
527
648
373
506
786
602
585
920
789
539
768
824
547
602
685
331
251
414
168
-53
136
126
-197
-125
34
-227
-223
55
-139
-335
-87
-71
-323
-184
-3
-264
-339
-43
-136
-419
-166
-56
-354
-191
47
-266
-352
42
-63
-380
-78
-5
-338
-187
9
-221
-248
23
-121
-325
-46
-11
-303
-180
17
-239
-294
39
-80
-399
-122
-21
-354
-197
10
-250
-249
7
-146
-328
-54
-29
-343
-159
30
-266
-220
59
-155
-343
-64
-55
-305
-93
70
-217
-237
37
-106
-301
-7
64
-177
4
214
-24
-65
218
146
-19
222
219
-74
87
234
-85
-157
83
-99
-340
-43
14
-321
-188
4
-282
-281
-30
-178
-249
25
110
417
1468
2346
2399
1801
676
-482
-806
-266
-19
-300
-226
-45
-219
-201
9
-160
-311
-55
-47
-303
-121
63
-204
-184
85
-128
-275
30
55
-210
-74
132
-113
-140
166
85
-118
148
230
-85
90
332
61
110
431
251
113
433
489
275
503
700
490
570
870
728
585
910
915
609
753
956
625
479
733
449
155
414
315
-46
103
224
-99
-133
122
-77
-264
25
-7
-298
-93
52
-249
-259
-6
-151
-335
-73
-41
-332
-173
50
-216
-254
12
-141
-269
8
-7
-273
-114
63
-206
-234
97
-86
-327
-16
6
-291
-110
59
-225
-210
31
-127
-281
8
-1
-312
-115
19
-261
-211
70
-132
-290
36
-25
-328
-93
84
-232
-218
82
-120
-284
16
-1
-291
-128
58
-197
-175
164
-15
-91
240
78
-124
188
309
14
31
237
15
-149
107
47
-291
-98
26
-307
-174
71
-233
-341
-53
-106
-319
-107
46
-248
-72
854
1436
1824
2290
1450
-161
-645
-561
-653
-335
10
-216
-365
-102
-103
-356
-146
42
-271
-227
52
-174
-285
7
-33
-259
-54
70
-210
-146
154
-56
-226
127
122
-183
18
179
-78
-14
351
145
-94
260
280
12
273
483
222
324
667
499
418
731
712
520
765
902
635
684
928
700
535
742
583
259
434
495
48
19
255
-40
-170
80
-84
-362
-149
-26
-342
-318
-51
-265
-393
-128
-181
-373
-161
-55
-343
-276
-6
-222
-355
-70
-70
-315
-133
-1
-292
-211
71
-174
-336
-26
-65
-336
-102
26
-278
-256
-17
-189
-322
-54
-65
-345
-195
-45
-272
-239
-19
-221
-363
-62
-127
-375
-132
-44
-354
-255
-3
-256
-357
-56
-134
-390
-140
-44
-382
-295
6
-180
-269
70
61
-216
-70
97
-109
-39
222
-38
-175
167
3
-333
-96
-34
-361
-296
-54
-285
-409
-105
-177
-458
-227
-110
-355
-227
-47
-116
401
1484
2097
2073
1629
437
-813
-867
-350
-349
-385
-100
-206
-473
-206
-70
-369
-255
6
-285
-402
-93
-176
-406
-122
-3
-334
-223
44
-223
-305
-37
-99
-265
-79
23
-221
-153
123
-76
-173
157
87
-129
161
268
-7
122
397
200
188
573
511
304
610
762
504
600
895
707
546
775
676
418
544
517
160
142
290
0
-131
106
-65
-349
-142
-79
-380
-294
-94
-345
-413
-161
-292
-481
-200
-141
-423
-335
-129
-329
-405
-93
-165
-395
-181
-116
-389
-257
2
-250
-328
-64
-166
-358
-137
-76
-362
-237
3
-271
-351
-47
-152
-417
-180
-46
-364
-286
-28
-259
-351
-82
-188
-425
-151
-53
-362
-251
-18
-267
-342
-54
-138
-346
-120
-74
-387
-253
-1
-280
-347
-9
-158
-413
-121
-60
-329
-168
67
-122
-132
124
-28
-194
146
216
-93
2
149
-88
-150
114
-35
-360
-136
-88
-388
-233
-37
-334
-376
-68
-212
-421
-158
-47
-304
-152
494
1093
1840
2562
2166
734
-249
-511
-588
-295
-91
-342
-320
-81
-257
-426
-143
-91
-387
-253
-24
-282
-322
-19
-163
-380
-74
-9
-357
-225
16
-238
-251
55
-59
-241
-26
11
-203
-43
183
-35
-72
199
86
-56
255
352
88
229
522
330
319
662
567
441
776
845
549
668
888
639
570
828
642
322
467
426
78
132
244
-75
-165
75
-87
-283
-21
-33
-337
-197
-25
-319
-347
-46
-195
-391
-168
-156
-405
-245
-25
-274
-380
-99
-160
-372
-118
-72
-374
-230
-31
-284
-291
-19
-181
-344
-79
-36
-323
-238
-30
-263
-286
-9
-153
-347
-115
-87
-344
-195
7
-275
-292
12
-162
-342
-72
-75
-365
-194
-6
-264
-275
-2
-147
-342
-88
-55
-331
-164
51
-257
-310
7
-138
-312
-36
-52
-314
-123
69
-170
-160
164
11
-176
135
184
-56
97
256
-37
-94
179
48
-188
-15
-17
-309
-183
-17
-316
-329
-8
-192
-402
-80
-89
-350
-95
42
-87
606
1798
2295
2301
1752
277
-818
-581
-146
-315
-271
-15
-235
-399
-88
-20
-350
-235
25
-275
-339
-8
-132
-289
-14
-36
-299
-101
30
-244
-158
120
-72
-216
49
34
-203
6
223
-16
-42
234
106
-31
274
307
44
292
538
243
309
689
581
431
729
805
579
814
994
662
701
992
739
489
707
674
307
398
483
61
44
294
27
-162
101
46
-238
-62
50
-293
-239
77
-204
-340
0
-72
-330
-123
5
-298
-286
2
-171
-299
5
-46
-353
-187
-7
-217
-183
69
-73
-233
-26
-68
-281
-118
-12
-209
-159
70
-139
-288
3
-54
-298
-67
46
-241
-162
91
-138
-261
15
-33
-299
-123
41
-191
-136
83
-145
-281
13
-6
-297
-64
104
-233
-167
113
-135
-277
48
25
-240
-57
77
-97
13
209
55
-48
230
287
23
158
288
-20
1
242
-12
-185
99
22
-263
-66
20
-276
-239
43
-104
-281
-46
-68
-263
-60
166
403
1227
2150
2233
1517
473
-493
-911
-528
-106
-282
-221
63
-191
-308
-17
-76
-280
-60
51
-251
-208
64
-145
-221
89
-6
-252
-37
94
-168
-102
190
-40
-197
127
98
-132
84
238
-7
39
323
162
59
375
328
90
416
606
337
441
718
575
516
835
841
609
803
929
669
715
888
619
437
634
486
135
278
306
-65
-16
176
-172
-289
35
-61
-354
-139
-26
-358
-285
-27
-271
-388
-68
-152
-400
-171
-73
-342
-290
-9
-191
-300
0
-90
-355
-88
46
-271
-232
16
-155
-259
2
-72
-326
-128
-9
-296
-235
58
-168
-313
-16
-112
-358
-98
-22
-327
-210
15
-241
-336
-16
-98
-393
-163
-18
-303
-233
-8
-249
-339
-71
-136
-371
-126
-3
-356
-280
-5
-218
-269
66
-7
-263
-26
126
-106
16
231
-81
-190
116
-6
-254
-69
-15
-329
-325
-100
-307
-396
-104
-214
-475
-219
-119
-420
-232
-26
-279
188
1312
1901
2002
1770
617
-719
-884
-491
-446
-364
-125
-249
-449
-177
-85
-410
-330
-95
-308
-363
-83
-196
-429
-144
-36
-338
-210
6
-285
-309
57
-45
-289
-17
78
-241
-126
166
-62
-141
185
55
-139
181
278
28
178
432
221
223
578
504
333
642
758
511
678
892
618
553
796
689
423
588
622
187
205
373
-10
-110
155
-39
-306
-122
-44
-351
-334
-94
-345
-454
-152
-250
-452
-198
-154
-462
-339
-118
-375
-412
-100
-216
-449
-160
-48
-350
-264
-51
-287
-360
-27
-107
-381
-136
-56
-382
-260
-22
-284
-336
-51
-203
-427
-156
-116
-433
-250
-20
-338
-369
-52
-221
-427
-138
-116
-413
-287
-70
-302
-382
-88
-207
-461
-186
-78
-377
-245
-63
-346
-344
-70
-213
-380
-143
-122
-368
-207
8
-199
-220
106
-27
-308
63
214
-133
-12
176
-130
-174
76
-77
-321
-138
-88
-384
-279
-85
-375
-420
-78
-208
-458
-153
-118
-436
-241
116
388
1208
2241
2449
1749
628
-402
-829
-453
-84
-323
-368
-102
-226
-415
-196
-147
-400
-257
-47
-320
-330
-11
-182
-395
-89
0
-334
-215
13
-251
-257
42
-115
-304
-21
13
-250
-39
178
-117
-108
217
56
-114
184
244
16
198
449
251
298
632
501
374
711
781
521
702
902
589
564
853
632
349
564
543
128
176
306
-57
-129
160
-34
-321
-72
-44
-339
-200
-30
-312
-324
-25
-229
-443
-133
-93
-409
-296
-84
-290
-355
-136
-256
-418
-148
-92
-357
-203
-40
-330
-297
-6
-203
-381
-66
-86
-371
-170
-32
-317
-286
-23
-234
-374
-60
-67
-347
-159
-25
-310
-258
-6
-218
-367
-24
-65
-372
-191
-53
-288
-268
-19
-199
-351
-58
-70
-339
-208
-56
-256
-246
2
-195
-364
-17
-51
-361
-79
122
-168
-96
169
-35
-119
249
243
-90
71
206
-101
-65
161
-98
-298
-39
-88
-370
-159
-23
-312
-310
-52
-209
-371
-94
-45
-309
-125
492
1126
1941
2610
2089
595
-334
-600
-633
-177
8
-360
-342
-30
-211
-405
-116
-125
-365
-145
-3
-329
-314
29
-164
-338
-28
-45
-298
-83
59
-234
-182
103
-66
-193
63
15
-215
22
210
-80
-16
331
103
-41
325
331
64
333
585
298
372
740
582
486
814
788
580
803
926
675
653
816
530
306
561
461
90
151
238
-81
-121
130
-97
-253
27
-81
-378
-150
-17
-352
-298
3
-225
-404
-143
-145
-382
-223
-72
-335
-300
-55
-264
-322
-41
-155
-375
-112
14
-302
-250
11
-208
-337
-48
-66
-279
-94
-10
-297
-235
13
-208
-301
-6
-91
-344
-109
34
-290
-244
63
-167
-314
0
-65
-313
-123
-14
-242
-207
7
-169
-258
-7
-79
-298
-99
37
-213
-165
63
-149
-259
34
7
-230
47
261
-70
-66
252
91
-24
254
201
-89
94
192
-157
-140
73
-119
-229
7
-95
-380
-166
28
-227
-227
28
-163
-212
37
-15
324
1373
2139
2158
1687
624
-580
-897
-400
-139
-297
-116
29
-255
-229
35
-171
-284
63
-31
-303
-31
82
-239
-128
127
-113
-188
114
58
-186
13
139
-129
-75
170
-28
-83
223
113
-96
178
282
48
137
393
198
106
477
444
224
561
709
446
626
833
628
624
921
830
589
829
840
488
549
678
354
205
404
188
-129
57
86
-216
-108
67
-223
-323
-61
-158
-410
-203
-104
-334
-242
-36
-268
-380
-76
-138
-382
-159
-28
-297
-262
-15
-217
-322
-34
-120
-304
-54
-16
-310
-198
31
-207
-269
-3
-147
-348
-86
-59
-359
-217
-13
-269
-333
-57
-126
-340
-93
7
-346
-245
11
-250
-339
-34
-132
-362
-71
-35
-362
-199
9
-260
-306
-9
-119
-349
-75
27
-197
-50
114
-131
-157
200
144
-106
77
157
-95
-43
117
-155
-229
-31
-203
-378
-119
-64
-362
-243
-44
-314
-409
-103
-107
-285
-91
208
615
1457
2216
1988
968
-18
-725
-904
-401
-140
-394
-257
-54
-303
-296
-28
-219
-396
-88
-67
-347
-190
2
-256
-318
-30
-121
-337
-73
2
-282
-123
85
-195
-243
82
-5
-202
43
62
-180
35
235
-17
22
335
221
97
417
493
230
411
704
510
492
789
667
495
810
886
553
598
790
506
341
542
338
17
182
167
-192
-112
49
-248
-327
-72
-202
-426
-205
-166
-419
-312
-130
-371
-442
-162
-291
-473
-197
-177
-426
-248
-37
-310
-345
-12
-165
-368
-97
-84
-350
-236
-38
-284
-347
-3
-177
-451
-106
-57
-397
-229
-2
-278
-353
-77
-208
-401
-124
-101
-410
-258
-17
-296
-425
-100
-146
-388
-164
-133
-403
-221
-31
-318
-341
-55
-183
-394
-150
-61
-376
-280
-14
-217
-227
97
-23
-182
59
48
-141
75
239
-46
-107
111
-88
-302
1
-3
-385
-284
-58
-292
-371
-107
-198
-423
-190
-131
-446
-240
-16
-302
21
1064
1736
2086
2314
1377
-227
-697
-410
-429
-353
-66
-236
-463
-188
-130
-424
-343
-161
-340
-323
-73
-258
-377
-68
-90
-370
-187
14
-281
-286
20
-154
-346
-37
10
-284
-113
138
-110
-121
179
9
-135
188
227
-19
138
392
183
181
509
362
292
680
708
447
636
867
628
621
853
628
453
658
578
254
268
336
49
-29
178
-37
-290
-34
0
-291
-180
-13
-300
-339
-59
-256
-416
-166
-138
-357
-284
-135
-356
-320
-41
-252
-431
-109
-95
-419
-234
-1
-276
-281
-10
-201
-354
-93
-115
-324
-131
-17
-295
-284
-46
-208
-337
-51
-63
-383
-213
-10
-259
-247
-7
-174
-311
-67
-65
-287
-198
-53
-264
-259
2
-173
-328
-60
-62
-329
-173
-8
-255
-255
29
-142
-333
-44
-34
-293
-109
97
-110
-52
232
14
-132
214
218
6
169
204
-85
-97
161
-18
-281
-52
-81
-359
-150
-15
-315
-309
-87
-264
-346
-57
-93
-315
-131
131
467
1391
2346
2488
1797
648
-391
-783
-400
-61
-290
-289
-31
-240
-364
-86
-132
-344
-165
-23
-303
-281
40
-181
-333
-23
-64
-278
-55
75
-232
-202
96
-90
-204
93
55
-176
4
143
-130
-44
328
121
-33
325
295
45
336
527
274
389
690
513
430
758
797
594
792
938
655
655
894
695
436
605
534
134
203
355
16
-80
152
-62
-231
37
-42
-301
-121
-6
-271
-272
-28
-226
-376
-65
-93
-415
-199
-29
-328
-287
-63
-191
-297
-131
-142
-299
-128
-20
-288
-248
12
-168
-299
-12
-51
-337
-128
38
-276
-278
3
-168
-287
-36
-100
-326
-137
-20
-285
-245
-2
-200
-335
-39
-61
-327
-114
5
-295
-200
43
-230
-370
-26
-37
-322
-133
18
-244
-215
50
-163
-326
8
-42
-344
-86
104
-135
-41
213
-20
-144
242
257
-48
126
263
-86
-74
231
-2
-201
2
-105
-343
-86
4
-331
-237
15
-196
-336
-102
-117
-284
-94
72
295
1246
2255
2392
1856
790
-426
-864
-364
-28
-299
-269
-12
-220
-362
-39
-57
-375
-155
56
-212
-222
23
-156
-306
21
-3
-304
-63
107
-224
-155
149
-124
-229
160
125
-121
67
192
-25
33
284
128
45
335
287
78
355
558
324
402
711
574
524
842
761
565
855
960
669
666
882
695
489
694
587
187
284
372
19
26
285
26
-191
63
-26
-245
0
36
-274
-212
9
-174
-255
1
-57
-342
-162
-14
-289
-168
110
-138
-288
14
-6
-274
-69
83
-181
-124
118
-128
-271
46
17
-246
-24
135
-229
-206
120
-109
-281
10
-9
-262
2
76
-310
-131
156
-120
-224
55
8
-235
-39
75
-203
-145
52
-123
-192
37
-42
-244
-20
71
-177
-108
77
-132
-166
164
89
-136
132
231
-63
21
339
189
27
264
163
-93
128
230
-102
-149
36
-155
-279
-28
-73
-284
-28
27
-286
-197
54
-60
-216
57
486
1050
1965
2399
1652
461
-352
-798
-689
-109
-44
-289
-63
16
-262
-169
85
-159
-260
53
-52
-247
31
99
-236
-159
140
-8
-112
125
54
-168
40
178
-89
-1
298
5
-129
254
214
-62
206
370
66
218
509
219
170
581
535
319
603
798
548
607
888
691
629
934
826
552
750
816
443
424
592
282
103
248
109
-103
-7
29
-269
-224
46
-260
-367
-32
-166
-398
-144
-53
-363
-276
7
-225
-335
-32
-118
-331
-130
-62
-296
-203
31
-167
-264
10
-74
-339
-119
0
-306
-235
26
-218
-312
-19
-192
-464
-160
-66
-344
-228
-30
-232
-326
-101
-177
-428
-204
-56
-391
-356
-52
-268
-390
-113
-218
-444
-153
-67
-407
-281
-49
-308
-389
-96
-176
-433
-163
-37
-332
-154
109
-141
-196
92
58
-109
107
132
-209
-123
104
-121
-232
-49
-198
-399
-199
-146
-352
-297
-123
-303
-429
-162
-237
-451
-144
-87
-80
847
1866
2124
1880
1021
-301
-960
-592
-252
-422
-338
-90
-339
-443
-130
-183
-418
-181
-111
-456
-316
-76
-346
-407
-87
-97
-319
-158
-60
-308
-206
19
-228
-307
30
-36
-284
-37
77
-239
-116
224
-21
-138
184
207
45
267
414
177
288
547
391
396
730
688
489
719
792
477
582
789
506
350
551
409
39
184
251
-115
-91
61
-247
-302
-27
-207
-424
-170
-132
-423
-325
-136
-406
-447
-147
-275
-441
-191
-125
-408
-304
-47
-294
-373
-86
-180
-376
-175
-83
-315
-238
-2
-256
-351
-71
-174
-348
-133
-112
-345
-220
-60
-329
-346
17
-165
-454
-174
-115
-369
-226
-47
-323
-346
-21
-175
-395
-173
-119
-333
-260
-30
-223
-387
-81
-128
-417
-167
-68
-355
-240
-40
-235
-299
-58
-143
-336
-62
25
-220
-29
216
-135
-170
274
122
-126
153
195
-122
-77
107
-141
-244
-2
-171
-370
-91
-51
-368
-282
-68
-296
-333
-65
-143
-294
-80
308
842
1757
2529
2242
1030
-29
-605
-695
-209
-40
-346
-271
-26
-256
-360
-92
-203
-373
-116
-82
-318
-148
-1
-285
-313
-23
-69
-244
-25
48
-254
-156
72
-185
-194
171
-16
-235
104
100
-127
97
299
87
-5
274
255
78
364
535
259
335
661
555
515
826
752
521
811
904
599
691
836
547
442
577
353
101
297
270
-92
-18
133
-147
-206
48
-97
-292
-87
-69
-367
-286
-15
-216
-328
-69
-144
-331
-118
-71
-328
-187
50
-268
-339
27
-155
-343
-16
-62
-326
-120
50
-206
-257
54
-88
-315
-37
-38
-311
-173
55
-188
-323
-19
-119
-357
-74
23
-283
-190
15
-237
-294
-47
-139
-287
-26
-7
-344
-209
49
-188
-243
19
-112
-328
-101
-43
-249
-108
16
-200
-235
-11
-101
-270
9
59
-155
73
201
-96
-90
255
231
-33
134
237
-104
-33
189
-117
-224
12
-143
-320
-76
-54
-268
-148
-60
-303
-268
-18
-142
-303
-50
378
973
1925
2620
2162
857
-148
-649
-657
-127
-5
-342
-212
10
-269
-348
-44
-156
-361
-105
-33
-304
-179
41
-208
-259
52
-84
-295
-6
-21
-285
-59
162
-123
-202
144
63
-150
112
165
-91
67
283
66
43
310
252
155
447
507
231
482
798
494
512
906
739
522
813
861
592
698
792
468
421
617
352
55
254
238
-114
-28
120
-209
-298
-18
-186
-363
-69
-88
-379
-234
-53
-302
-331
-55
-251
-419
-91
-105
-374
-190
-1
-273
-349
-63
-113
-310
-120
-79
-309
-135
33
-269
-282
22
-136
-324
-86
-106
-348
-167
40
-254
-352
-2
-84
-319
-77
-48
-367
-195
28
-294
-343
-18
-123
-345
-96
-41
-324
-174
-1
-296
-305
-6
-153
-365
-92
4
-292
-234
-34
-231
-235
44
-67
-192
99
153
-164
-22
256
13
3
311
91
-171
67
49
-234
-128
-12
-258
-280
-51
-160
-366
-141
-10
-305
-262
-45
-239
-261
2
138
706
1764
2341
2011
1026
-140
-896
-779
-169
-126
-367
-124
-53
-365
-246
21
-230
-263
90
-127
-376
-36
19
-271
-150
103
-155
-242
82
-4
-188
28
65
-208
-47
226
-38
-92
228
110
-100
173
317
62
146
377
183
200
533
422
295
609
685
485
635
862
651
624
959
835
595
781
731
427
535
672
287
126
357
103
-139
78
18
-245
-155
-18
-224
-291
-66
-166
-380
-151
-70
-365
-260
10
-234
-343
-37
-114
-349
-117
-38
-308
-184
-8
-212
-259
-13
-94
-309
-71
-6
-294
-188
19
-246
-317
-36
-167
-354
-55
-41
-358
-188
-23
-318
-290
5
-143
-321
-122
-75
-328
-239
-6
-245
-313
-28
-147
-345
-102
-92
-334
-169
-39
-253
-244
-34
-170
-332
-68
25
-215
-26
147
-198
-145
200
55
-100
165
181
-124
-39
101
-187
-236
19
-202
-442
-145
-123
-394
-206
-88
-333
-307
-77
-162
-313
-111
179
581
1457
2179
1887
933
-38
-828
-937
-354
-145
-365
-223
-73
-287
-298
-58
-148
-314
-75
-67
-411
-201
84
-272
-301
42
-129
-306
-5
3
-316
-107
167
-146
-198
113
-32
-171
135
163
-107
59
226
-24
47
397
294
131
407
515
273
416
704
516
569
895
675
507
840
845
563
683
792
488
407
614
384
71
240
181
-199
-68
106
-264
-337
-39
-182
-373
-133
-144
-479
-345
-86
-279
-322
-73
-214
-417
-144
-109
-380
-172
6
-299
-304
-54
-211
-312
-11
-23
-302
-175
-47
-308
-328
-41
-185
-390
-105
-115
-434
-240
-51
-352
-322
3
-183
-454
-184
-96
-433
-322
-70
-315
-374
-73
-214
-423
-148
-146
-430
-249
-69
-366
-378
-104
-243
-400
-153
-133
-426
-256
-6
-237
-235
72
-76
-349
-60
187
-65
-39
148
-101
-156
85
-47
-265
-76
-78
-404
-286
-121
-399
-451
-177
-240
-439
-216
-161
-464
-277
-21
-173
367
1551
2050
2078
1822
521
-779
-765
-309
-380
-357
-79
-282
-508
-173
-109
-396
-210
-69
-356
-354
-71
-133
-328
-160
-135
-364
-139
37
-322
-303
122
-9
-309
-79
28
-195
-32
163
-110
-117
186
54
-128
197
278
1
235
502
219
235
630
528
369
676
694
480
717
899
622
564
820
654
445
674
608
208
288
387
8
-34
163
-69
-263
-27
-39
-366
-235
-4
-236
-274
-27
-207
-374
-106
-109
-376
-217
-26
-291
-350
-101
-175
-327
-54
38
-316
-227
24
-199
-246
-4
-119
-318
-91
-37
-271
-132
13
-243
-257
46
-100
-346
-98
-11
-255
-170
-32
-263
-249
55
-95
-359
-62
12
-323
-196
25
-217
-244
32
-155
-342
-58
-7
-270
-175
20
-235
-259
30
-116
-217
2
-77
-288
-32
175
-89
-21
246
22
-83
236
257
-12
92
245
-20
-74
152
-43
-258
-16
-22
-322
-180
-3
-261
-279
-11
-177
-383
-110
-6
-266
-42
664
1281
2006
2643
2039
458
-365
-466
-516
-210
-25
-295
-256
27
-116
-310
-94
-52
-302
-188
0
-202
-202
75
-125
-311
-9
-6
-239
-36
110
-196
-190
121
11
-141
101
142
-120
-30
219
36
2
338
251
37
301
455
162
232
594
468
485
822
687
509
812
900
676
802
962
708
609
808
598
371
593
493
123
198
275
-29
-102
127
-26
-273
-31
-8
-350
-199
32
-249
-281
-28
-170
-342
-58
-50
-388
-232
-63
-248
-222
-35
-156
-276
-4
-8
-338
-132
116
-211
-262
18
-172
-252
52
-29
-306
-181
-8
-224
-211
91
-112
-340
-53
-49
-315
-156
67
-171
-236
19
-127
-287
-65
-33
-296
-192
72
-187
-284
34
-115
-335
-35
-16
-306
-136
39
-204
-234
56
-88
-323
-17
20
-264
-56
140
-143
-76
268
46
-89
283
322
22
99
260
2
-51
192
53
-192
-31
-83
-326
-85
53
-250
-227
52
-193
-385
-79
-100
-296
-92
136
460
1365
2336
2532
1774
545
-433
-796
-362
60
-234
-330
-8
-104
-338
-49
82
-302
-220
60
-238
-238
84
-67
-218
-7
-8
-231
-67
88
-155
-123
146
-27
-180
123
166
-123
45
257
52
60
287
171
28
344
428
164
318
585
415
421
770
684
532
822
888
673
810
1006
781
702
916
714
475
717
655
216
275
392
32
-4
236
-5
-231
6
31
-230
-124
61
-181
-213
77
-105
-329
-79
5
-306
-212
102
-146
-233
59
-43
-233
-30
-38
-298
-103
141
-90
-197
29
-65
-233
0
51
-247
-103
164
-170
-236
51
-89
-230
-10
3
-241
-137
-6
-210
-153
97
-140
-345
33
27
-325
-79
96
-223
-250
-25
-94
-191
0
5
-282
-176
47
-162
-213
50
-49
-248
-48
-21
-224
-37
211
-11
-90
151
147
61
232
231
-37
91
233
-78
-165
166
52
-332
-94
23
-321
-204
26
-195
-241
-16
-147
-348
-59
37
-289
195
1262
1714
2107
2207
825
-609
-726
-515
-454
-173
67
-218
-295
38
-137
-310
-33
-8
-280
-173
53
-146
-187
65
-68
-229
53
49
-189
-42
104
-45
-66
105
32
-106
104
165
-50
115
350
80
31
403
265
50
423
506
218
444
724
485
499
822
698
608
902
909
678
797
917
631
568
807
588
213
384
400
12
83
227
-88
-175
56
-125
-376
-80
-37
-366
-222
-54
-355
-355
-2
-156
-361
-115
-108
-342
-148
54
-225
-231
-3
-172
-300
-58
-16
-257
-106
68
-190
-214
17
-128
-287
-46
-61
-338
-168
23
-291
-294
59
-127
-384
-123
-57
-330
-182
11
-273
-302
-72
-249
-373
-133
-124
-297
-185
-87
-333
-340
-27
-148
-371
-140
-52
-243
-95
82
-147
-157
166
91
-107
123
135
-122
74
212
-109
-197
5
-133
-335
-97
-67
-359
-252
-102
-376
-369
-74
-239
-496
-252
-114
-343
113
1043
1512
1958
2104
910
-500
-716
-625
-661
-274
-64
-413
-386
-42
-223
-384
-134
-118
-343
-192
-21
-277
-280
-52
-232
-381
-50
17
-266
-141
28
-214
-230
70
3
-210
9
88
-172
11
227
-59
-58
283
171
21
326
396
164
332
561
353
415
758
626
500
780
828
584
659
848
604
449
660
518
183
304
254
-110
17
163
-203
-333
-36
-171
-460
-192
-135
-444
-335
-139
-377
-441
-140
-233
-460
-218
-183
-451
-252
-76
-373
-373
-68
-162
-385
-139
-80
-403
-234
-19
-266
-312
-81
-221
-418
-182
-134
-367
-234
-66
-344
-351
-49
-215
-431
-168
-103
-420
-290
-70
-348
-369
-110
-226
-387
-168
-157
-431
-245
8
-279
-419
-186
-278
-398
-117
-100
-395
-230
24
-209
-222
127
34
-166
106
158
-134
-9
192
-131
-188
66
-161
-367
-164
-164
-415
-270
-93
-442
-487
-93
-268
-564
-261
-149
-443
-284
276
757
1502
2363
2240
1014
-107
-607
-761
-436
-83
-316
-430
-188
-299
-467
-253
-178
-390
-264
-81
-356
-430
-176
-225
-383
-144
-99
-384
-278
-41
-242
-356
-90
-167
-283
-9
-54
-291
-66
129
-151
-146
235
79
-183
140
275
67
253
460
269
307
629
562
407
695
814
578
690
839
534
483
806
656
322
493
486
73
92
260
-26
-127
53
-96
-269
-58
-84
-426
-272
-27
-246
-313
-69
-210
-430
-149
-80
-366
-279
-92
-285
-369
-130
-207
-423
-104
2
-323
-191
0
-298
-333
7
-121
-349
-87
-78
-338
-162
-19
-328
-287
85
-138
-411
-105
-43
-338
-197
12
-274
-340
-1
-147
-342
-45
-86
-365
-168
22
-305
-388
-6
-65
-311
-126
-96
-359
-217
-16
-230
-207
45
-63
-256
-5
144
-131
32
341
121
24
175
67
-91
48
54
-232
-164
-16
-327
-314
-10
-247
-420
-120
-123
-387
-218
-81
-339
-299
62
374
1000
2024
2547
1975
748
-316
-805
-589
-102
-119
-311
-210
-173
-343
-262
-104
-315
-365
-105
-234
-433
-97
-14
-331
-174
42
-266
-278
44
-111
-264
-39
-36
-251
-96
108
-92
-91
183
48
-129
136
193
-22
133
388
174
153
523
426
273
553
669
503
661
944
730
670
991
790
528
827
842
435
490
642
167
95
450
176
-79
139
108
-235
-163
52
-194
-265
-25
-180
-355
-95
-70
-387
-232
41
-229
-305
-3
-130
-372
-120
-43
-320
-205
83
-128
-295
-2
-45
-274
-12
29
-313
-151
55
-215
-204
72
-150
-347
9
51
-264
-131
52
-205
-228
36
-148
-313
-19
2
-306
-192
50
-204
-184
145
-66
-297
-53
9
-338
-226
118
-164
-271
77
44
-151
5
150
-20
85
333
81
35
367
197
-93
177
174
-164
-85
0
-194
-209
41
-91
-330
-97
-67
-333
-244
-83
-280
-231
58
-126
45
1072
1903
2189
2159
1206
-373
-857
-389
-235
-271
-75
-43
-268
-148
42
-283
-388
34
22
-250
-27
19
-294
-146
63
-200
-241
117
42
-200
53
97
-219
-36
219
-56
-77
224
137
-63
162
241
-38
204
494
198
170
506
442
309
639
727
479
665
920
695
656
985
877
610
894
934
542
642
720
327
225
466
287
-17
123
104
-147
-39
124
-206
-263
92
-120
-390
-128
-76
-329
-156
46
-234
-273
-29
-175
-280
4
4
-286
-155
66
-196
-279
61
-44
-284
-13
62
-285
-211
114
-111
-231
41
-86
-280
-29
14
-250
-149
21
-148
-179
48
-105
-349
-70
55
-211
-134
42
-207
-305
-6
-24
-259
-40
60
-198
-91
164
-5
-60
174
71
-18
245
259
-17
75
245
-44
-145
88
-114
-388
-92
33
-309
-244
8
-228
-335
-100
-170
-343
-82
27
-365
11
1075
1556
1962
2197
1037
-471
-746
-600
-593
-261
-38
-313
-361
-37
-208
-427
-57
27
-311
-236
-40
-237
-275
39
-49
-332
-99
10
-263
-175
120
-15
-177
91
91
-204
-2
180
-68
-4
220
-6
-42
357
266
57
307
369
256
458
677
468
452
797
669
522
823
837
623
739
904
643
441
659
522
213
383
345
-38
2
127
-195
-248
68
-113
-403
-159
-67
-372
-321
-184
-422
-424
-113
-182
-398
-213
-189
-410
-273
-55
-260
-321
-25
-159
-384
-95
-1
-309
-234
15
-248
-357
-46
-136
-363
-112
-54
-420
-319
-47
-291
-340
-74
-242
-404
-147
-133
-408
-296
-52
-335
-421
-47
-176
-425
-173
-83
-392
-297
-26
-252
-320
-10
-76
-261
30
113
-149
-34
166
-74
-172
134
27
-270
-89
-66
-402
-366
-107
-335
-508
-213
-274
-547
-307
-157
-512
-410
-52
-326
-239
726
1455
1870
2246
1476
-132
-750
-575
-557
-429
-195
-353
-546
-289
-147
-428
-379
-146
-405
-509
-167
-206
-447
-259
-137
-355
-282
-79
-324
-378
-75
-203
-369
-79
-25
-290
-118
91
-230
-263
125
37
-151
145
170
-91
123
340
107
215
620
501
324
594
640
451
672
867
591
520
799
689
447
612
633
268
209
377
52
-108
166
-37
-290
-126
-115
-311
-227
-97
-317
-364
-136
-212
-459
-276
-138
-404
-326
-135
-358
-363
-109
-179
-395
-234
-131
-387
-255
-20
-266
-328
-69
-206
-426
-122
33
-287
-237
-4
-266
-315
24
-159
-459
-197
-56
-316
-259
-55
-315
-374
-31
-138
-411
-113
20
-311
-246
-6
-232
-352
-80
-170
-383
-126
-42
-390
-285
22
-211
-301
-57
-159
-357
-93
14
-285
-156
79
-176
-208
145
97
-131
70
140
-32
139
232
-46
-110
101
-21
-294
-98
26
-310
-273
-40
-330
-395
-63
-157
-372
-163
-117
-349
-189
55
163
935
2029
2423
2155
1248
-55
-774
-448
-13
-255
-335
-13
-205
-423
-148
-129
-384
-261
-1
-239
-372
-39
-58
-329
-153
-22
-271
-167
55
-205
-258
35
-39
-261
-90
72
-118
-59
193
-19
-127
182
154
-32
215
297
76
231
409
287
338
620
586
435
783
907
582
710
945
678
619
883
746
512
629
547
158
225
394
35
-111
136
11
-189
5
-11
-325
-143
117
-214
-300
-30
-178
-388
-147
-95
-379
-268
-90
-321
-320
-36
-166
-343
-98
-67
-365
-223
30
-255
-288
27
-152
-365
-77
-7
-315
-204
58
-197
-297
11
-95
-348
-145
-51
-300
-200
17
-275
-352
11
-116
-344
-79
-70
-308
-160
-12
-254
-287
-19
-158
-350
-57
33
-282
-250
-15
-182
-282
-22
-75
-312
-203
-99
-204
-43
177
-72
-137
193
106
-106
142
230
-12
122
296
-33
-159
96
-57
-254
-4
-90
-378
-185
-42
-322
-354
-63
-223
-415
-139
-77
-308
-188
281
719
1521
2490
2426
1262
97
-546
-767
-378
11
-270
-377
-129
-223
-387
-148
-59
-392
-368
-74
-233
-290
2
-119
-372
-126
-6
-347
-199
86
-231
-280
76
-30
-293
-73
30
-153
1
190
-40
-81
188
105
-4
257
315
107
244
510
359
328
695
677
530
809
873
587
687
965
725
558
815
628
263
513
579
166
166
291
-33
-150
39
-103
-283
-104
-54
-348
-292
-103
-333
-306
-48
-200
-395
-196
-133
-388
-284
-74
-347
-407
-109
-257
-414
-111
-53
-343
-218
25
-279
-346
-8
-140
-383
-119
-47
-319
-241
-45
-266
-370
-12
-76
-347
-113
-95
-375
-198
3
-328
-379
-20
-104
-325
-163
-115
-324
-209
5
-196
-297
-32
-138
-411
-114
11
-305
-190
49
-257
-352
-29
-175
-319
-5
59
-174
9
213
-191
-143
349
183
-20
197
152
-74
-10
100
-104
-183
99
-42
-366
-131
-72
-390
-228
-32
-334
-368
-80
-111
-236
-78
19
218
1236
2270
2346
1766
674
-477
-873
-465
-136
-329
-284
-56
-215
-272
-27
-155
-375
-75
-24
-415
-170
167
-214
-294
-1
-148
-349
-17
105
-276
-142
146
-97
-149
71
22
-125
34
175
-36
66
320
51
-28
333
330
139
399
519
268
432
725
538
530
904
820
575
833
954
683
739
908
540
376
698
505
158
335
261
-83
62
187
-188
-249
52
-166
-389
-63
-62
-385
-229
-24
-280
-324
-29
-151
-366
-145
-65
-356
-294
-20
-234
-330
-64
-143
-316
-67
-6
-269
-193
29
-140
-304
-66
-75
-281
-51
-8
-353
-205
-4
-287
-265
35
-91
-311
-109
-80
-321
-180
4
-217
-273
-14
-95
-322
-152
-65
-248
-29
162
-149
-165
120
34
-81
235
272
-79
63
280
4
-135
96
-1
-262
-44
-18
-344
-299
-102
-244
-297
-65
-205
-409
-142
-97
-316
-160
99
391
1091
1910
2131
1418
321
-547
-1015
-694
-160
-271
-338
-73
-135
-335
-164
-69
-352
-304
-31
-269
-333
2
-196
-454
-66
37
-276
-131
76
-199
-268
55
-18
-251
-29
89
-147
-3
241
-66
-132
292
231
-38
234
327
56
274
531
345
365
629
591
442
693
810
604
746
913
693
607
758
603
331
456
417
60
108
214
-84
-178
56
-112
-398
-150
-51
-338
-264
-110
-360
-405
-163
-291
-462
-175
-91
-399
-269
-63
-364
-394
-62
-144
-358
-140
-66
-366
-320
-106
-196
-212
-54
-171
-367
-186
-120
-390
-287
-41
-307
-401
-72
-165
-453
-288
-134
-317
-275
-82
-295
-351
-87
-255
-494
-251
-137
-367
-260
-86
-357
-343
-36
-201
-303
39
39
-226
-39
188
-59
-137
152
104
-120
12
-1
-335
-230
-95
-414
-362
-75
-253
-456
-262
-224
-486
-339
-137
-402
-379
-104
-163
247
1381
2052
2021
1597
501
-714
-920
-380
-278
-472
-235
-216
-488
-343
-199
-363
-373
-168
-254
-466
-217
-110
-459
-357
-74
-274
-329
-52
-167
-386
-152
-50
-297
-174
52
-245
-278
91
-37
-258
36
152
-156
-19
269
63
81
412
335
158
477
607
351
572
841
545
489
846
773
545
779
772
381
442
520
180
151
336
89
-174
25
49
-317
-258
-12
-253
-333
-72
-203
-472
-221
-80
-397
-337
-165
-401
-385
-69
-171
-461
-223
-73
-360
-236
-40
-332
-351
-48
-269
-449
-118
-80
-316
-218
-19
-241
-370
-88
-132
-350
-120
-39
-355
-280
-54
-291
-407
-82
-71
-334
-119
-21
-352
-255
-33
-269
-321
-25
-122
-377
-117
-69
-449
-276
6
-270
-327
18
-79
-297
-34
51
-157
-33
162
-56
-91
253
138
-105
190
223
-143
-10
220
-84
-217
-13
-183
-381
-130
-73
-350
-256
-27
-326
-414
-60
-160
-335
-57
152
382
1389
2352
2322
1751
648
-536
-746
-219
-76
-359
-246
-112
-340
-256
-18
-222
-369
-77
-45
-354
-245
-4
-211
-253
26
-130
-343
-30
74
-275
-184
108
-167
-249
143
33
-268
35
186
-84
30
258
41
-1
312
261
91
391
521
252
401
694
533
494
833
816
645
922
954
587
685
967
698
481
631
462
182
302
250
-82
-5
193
-67
-161
126
-70
-340
-68
-68
-333
-152
-5
-285
-300
-57
-241
-345
-60
-46
-319
-273
-27
-236
-353
-35
-120
-372
-174
-51
-210
-83
65
-229
-273
37
-57
-285
-84
-15
-270
-149
52
-196
-281
-22
-140
-380
-77
32
-290
-171
35
-228
-272
14
-165
-355
-37
-8
-296
-132
38
-365
-360
116
-28
-306
-71
-29
-259
-179
-12
-166
-244
-9
-79
-287
-90
-37
-215
-24
179
-87
-96
246
62
-123
232
301
-2
101
267
-50
-101
176
-46
-266
-12
-1
-330
-272
27
-196
-313
-13
-174
-418
-153
-31
-247
-146
315
937
1789
2511
2329
1140
28
-512
-674
-257
82
-217
-337
-84
-186
-370
-76
-30
-340
-187
14
-213
-251
21
-130
-328
11
8
-300
-63
124
-181
-183
71
-99
-214
116
133
-158
2
219
-1
10
351
210
5
314
360
159
360
567
387
356
665
674
538
833
932
604
773
1096
789
671
954
732
426
603
566
173
144
314
97
-20
154
-32
-247
-20
33
-206
-90
99
-183
-266
6
-185
-379
-75
-41
-324
-219
-47
-252
-235
49
-65
-280
1
28
-337
-136
114
-191
-234
74
-104
-329
8
106
-201
-149
62
-112
-213
37
-52
-280
17
70
-269
-166
-2
-202
-182
23
-115
-224
-30
-25
-244
-97
101
-172
-241
9
-110
-213
26
-55
-313
-128
68
-145
-203
48
-17
-166
89
211
-46
68
274
-16
38
367
191
5
216
215
-113
-79
119
-108
-230
-55
-147
-323
-95
-61
-397
-192
75
-229
-253
62
-73
13
1014
1843
2060
2078
1192
-280
-854
-557
-327
-320
-135
-113
-327
-148
16
-226
-213
3
-154
-270
-11
-30
-297
-131
108
-143
-281
23
13
-164
42
56
-152
18
181
-10
-96
144
158
-47
191
255
-70
193
459
187
198
493
453
339
578
681
502
642
839
673
663
907
849
684
830
853
544
642
801
379
279
483
237
-53
105
165
-158
-99
54
-264
-255
16
-182
-336
-33
-23
-296
-177
4
-233
-343
16
-36
-303
-63
36
-280
-228
97
-97
-197
91
-62
-325
-18
112
-226
-161
37
-168
-207
0
-159
-311
22
60
-290
-192
42
-258
-341
64
-45
-299
-85
-57
-230
-103
-13
-271
-319
-69
-115
-251
-34
-48
-301
-167
14
-168
-187
102
14
-164
75
122
-146
39
368
87
-73
223
83
-164
72
61
-287
-201
-31
-275
-279
-57
-220
-355
-112
-104
-364
-248
-62
-255
-297
172
716
1305
2047
2117
984
-177
-567
-795
-604
-84
-205
-436
-134
-85
-376
-248
-70
-291
-303
-24
-136
-342
-85
-17
-360
-244
26
-270
-299
52
-141
-305
49
41
-242
-85
98
-101
-113
156
55
-119
140
266
-18
12
324
229
232
546
469
302
577
698
495
638
843
601
597
889
677
414
697
741
281
244
438
124
-36
218
9
-290
-35
-65
-424
-289
-54
-278
-423
-176
-252
-465
-210
-184
-459
-318
-130
-343
-356
-113
-235
-374
-129
-154
-440
-249
19
-239
-322
-9
-167
-399
-132
-83
-386
-288
-33
-259
-303
-16
-241
-457
-91
-54
-409
-234
0
-311
-354
-84
-223
-414
-176
-128
-358
-227
-84
-362
-387
-33
-163
-391
-156
-129
-393
-256
-28
-294
-322
24
-153
-351
35
92
-229
-42
217
-13
-82
149
26
-156
66
45
-237
-121
4
-305
-370
-112
-250
-432
-174
-153
-465
-322
-91
-369
-363
-49
-159
131
1227
2006
2191
2057
1051
-433
-825
-301
-239
-429
-227
-153
-400
-337
-148
-298
-289
-85
-246
-398
-141
-95
-371
-214
21
-261
-316
-2
-133
-391
-102
32
-251
-112
63
-208
-174
167
65
-196
32
141
-123
17
286
101
84
411
333
137
440
614
420
552
762
581
571
836
718
495
753
798
521
555
573
303
198
377
136
-146
114
114
-204
-141
-28
-277
-299
-51
-183
-355
-94
-69
-401
-296
-84
-287
-301
-37
-120
-384
-282
-191
-316
-151
-20
-297
-294
1
-151
-318
-65
-28
-285
-162
37
-256
-386
-55
-101
-328
-87
-31
-261
-126
-39
-277
-247
-24
-159
-328
-144
-105
-246
-116
-59
-263
-208
12
-145
-263
-68
-91
-371
-308
48
-131
-250
41
-155
-335
-42
-46
-310
-118
39
-312
-280
104
7
-162
69
145
-75
-19
224
69
93
391
72
-167
169
142
-177
18
161
-225
-296
26
-148
-393
-77
-60
-359
-205
-80
-285
-271
10
-98
-205
675
1687
2078
2451
2001
336
-612
-415
-322
-337
-97
-108
-317
-174
-61
-298
-271
21
-136
-337
-48
-20
-299
-118
48
-228
-237
27
-55
-197
-6
15
-215
-70
88
-117
-82
175
30
-179
86
149
-103
125
355
95
86
359
319
222
553
660
363
591
847
561
551
903
854
628
803
843
558
642
779
454
339
465
219
-6
201
188
-198
-129
113
-159
-221
34
-168
-360
-58
-72
-402
-185
3
-336
-371
-88
-231
-349
-61
-120
-359
-152
-18
-254
-225
3
-201
-282
38
-36
-338
-160
-11
-249
-184
35
-135
-279
-35
-7
-298
-180
47
-241
-312
15
-82
-254
-42
-60
-296
-140
17
-234
-277
7
-93
-288
-56
-26
-282
-111
42
-267
-239
44
-153
-283
45
58
-271
-188
63
-66
-28
230
80
-128
124
242
8
209
376
-20
14
267
-36
-172
80
14
-249
-141
-74
-314
-230
45
-147
-341
-148
-106
-259
-120
15
-80
476
1577
2112
2179
1770
428
-664
-602
-244
-277
-296
-46
-112
-278
-44
-30
-279
-153
4
-202
-202
-36
-187
-202
91
-3
-275
-38
142
-189
-175
182
-10
-197
112
142
-109
54
234
-30
-7
335
184
6
381
404
90
320
538
327
416
768
593
464
848
836
563
817
1026
700
638
926
789
559
709
619
284
357
428
62
-52
182
69
-112
63
2
-353
-215
60
-214
-288
2
-129
-345
-145
-51
-301
-172
63
-248
-265
-3
-159
-293
-7
52
-344
-237
78
-152
-195
32
-127
-225
-8
-30
-257
-176
26
-177
-281
-45
-167
-279
2
-26
-310
-207
-23
-214
-235
4
-172
-364
-76
-64
-329
-127
16
-262
-226
-21
-209
-226
119
72
-151
-3
134
23
36
278
146
-80
177
159
-159
-109
-23
-205
-199
24
-194
-391
-79
-72
-398
-264
-51
-283
-326
-60
-104
-357
-4
749
1237
1904
2225
1152
-127
-585
-848
-753
-181
-81
-368
-226
-126
-407
-278
45
-156
-382
-145
-74
-305
-172
-42
-275
-246
-8
-132
-308
-66
46
-217
-101
126
-172
-184
172
-9
-199
150
148
-167
149
377
42
85
417
326
182
423
470
324
566
770
560
600
864
702
549
832
841
523
606
678
349
300
490
180
-74
152
26
-236
-69
-7
-267
-281
-89
-255
-370
-155
-184
-422
-274
-99
-378
-385
-72
-214
-399
-114
-141
-418
-188
1
-245
-319
-44
-127
-302
-19
-60
-334
-171
-65
-311
-263
-83
-287
-328
-63
-106
-350
-217
-59
-345
-343
1
-247
-448
-138
-151
-363
-201
-73
-348
-352
-41
-240
-429
-115
-138
-360
-176
7
-206
-205
117
-33
-164
97
68
-104
46
99
-178
-153
89
-169
-401
-116
-270
-532
-196
-125
-399
-374
-188
-369
-484
-150
-118
-375
-224
309
896
1670
2390
1992
639
-336
-730
-745
-357
-107
-366
-478
-140
-200
-402
-177
-201
-438
-239
-111
-391
-341
-58
-232
-365
-96
-158
-444
-201
38
-252
-281
44
-132
-388
-16
80
-218
-31
78
-195
-106
222
56
-110
286
324
81
347
562
286
308
644
533
452
769
755
494
683
790
487
512
727
495
270
416
308
-21
46
127
-194
-237
18
-174
-303
-7
-128
-520
-319
-85
-381
-384
-122
-305
-451
-226
-224
-432
-253
-120
-387
-316
-100
-321
-353
-21
-62
-326
-212
-122
-322
-231
-11
-203
-367
-142
-182
-400
-157
-70
-365
-314
-177
-313
-274
-61
-149
-366
-176
-35
-306
-316
-121
-282
-355
-122
-198
-442
-219
-105
-465
-359
23
-190
-398
-108
-139
-457
-239
-46
-297
-216
79
-116
-270
62
48
-226
66
237
-111
-83
183
-49
-267
-23
-84
-450
-240
-41
-363
-338
-134
-383
-466
-192
-261
-454
-267
-124
-327
-176
572
1211
1812
2506
2027
339
-541
-519
-588
-379
-169
-359
-390
-161
-182
-426
-290
-107
-378
-350
-35
-263
-419
-96
-123
-373
-180
-98
-363
-274
-3
-148
-291
-30
-61
-274
-17
79
-252
-164
193
17
-138
164
139
-115
189
448
158
162
492
421
332
649
683
461
723
900
543
625
940
691
503
670
606
321
403
467
86
-13
135
-67
-184
43
4
-300
-139
36
-322
-309
6
-212
-397
-110
-115
-380
-248
-124
-312
-250
-33
-222
-337
-132
-202
-372
-147
25
-255
-354
-87
-115
-276
-59
-66
-323
-138
5
-226
-240
-50
-190
-292
-26
-106
-393
-147
16
-280
-231
31
-190
-332
-51
-99
-338
-109
16
-321
-255
21
-255
-308
51
-70
-353
-98
55
-255
-216
23
-187
-290
-5
-16
-269
-137
76
-73
-15
196
59
-1
209
224
7
143
315
-17
-54
159
-135
-258
22
-55
-257
-93
-111
-359
-163
52
-257
-342
11
-14
-274
-84
491
1137
2008
2659
2038
645
-250
-628
-602
-122
52
-244
-250
-49
-221
-357
-40
9
-326
-191
-18
-222
-127
58
-199
-246
144
36
-277
-17
79
-243
-137
163
-15
-173
103
132
-90
120
242
-14
61
314
183
112
366
361
200
435
565
359
527
816
646
559
826
841
683
881
951
656
681
853
549
319
571
499
138
222
299
-25
-43
181
-47
-206
28
-42
-288
-53
54
-289
-250
-29
-270
-349
18
-66
-322
-91
22
-309
-384
-33
-66
-215
14
-48
-301
-84
10
-257
-114
92
-130
-230
-39
-88
-283
-54
21
-268
-130
65
-203
-238
80
-32
-318
-120
39
-220
-174
104
-112
-293
17
23
-262
-107
-2
-215
-105
144
-13
-93
178
90
-98
224
323
19
112
307
107
31
201
33
-230
-14
48
-309
-235
22
-230
-334
-6
-83
-380
-167
-73
-241
-45
72
94
741
1754
2146
1800
1001
-161
-928
-769
-257
-274
-415
-75
-67
-311
-68
13
-286
-177
29
-227
-274
60
-25
-340
-111
77
-214
-194
80
-148
-286
75
42
-181
8
50
-112
36
199
9
-10
301
181
-72
211
349
131
291
519
345
391
693
587
480
818
833
549
693
886
680
627
860
673
365
543
514
120
142
280
17
-159
11
-73
-304
-77
-8
-375
-310
-20
-303
-462
-112
-138
-392
-232
-144
-377
-242
-35
-276
-326
-112
-177
-313
-156
-76
-234
-189
-43
-234
-315
-45
-105
-326
-166
-103
-376
-300
-12
-225
-361
-125
-230
-391
-154
-86
-364
-297
-79
-297
-403
-166
-206
-402
-215
-197
-473
-270
-42
-322
-390
-113
-164
-347
-104
-22
-280
-117
118
-113
-138
165
12
-181
89
106
-268
-233
-24
-316
-425
-99
-223
-502
-184
-116
-495
-397
-175
-402
-499
-181
-152
-367
6
646
1184
2012
2402
1354
-65
-553
-734
-765
-287
-142
-475
-397
-148
-395
-466
-131
-204
-429
-216
-133
-421
-366
-137
-284
-329
-117
-260
-478
-133
-9
-377
-225
60
-196
-269
11
-73
-253
25
104
-195
-82
188
-3
-19
291
128
-34
322
441
228
422
724
508
467
768
637
458
747
822
477
507
685
354
186
407
181
-123
103
94
-305
-211
66
-261
-444
-131
-243
-462
-174
-142
-445
-382
-171
-370
-498
-175
-166
-397
-238
-174
-419
-277
-107
-375
-327
-49
-209
-367
-153
-135
-356
-225
-42
-295
-377
-84
-185
-402
-86
-66
-453
-278
-47
-286
-317
-97
-190
-385
-176
-90
-380
-290
-49
-267
-353
-99
-206
-384
-164
-196
-391
-190
-46
-254
-311
-37
-160
-392
-118
-85
-329
-153
98
-143
-183
201
55
-158
182
232
-27
108
222
-34
-46
171
-62
-310
-72
-45
-352
-248
13
-241
-351
-98
-247
-395
-124
-81
-296
-168
224
622
1465
2404
2446
1444
185
-535
-728
-351
45
-275
-445
-82
-150
-378
-169
-78
-314
-261
-82
-324
-331
-11
-111
-325
-108
-39
-322
-177
59
-219
-214
110
-101
-274
63
96
-197
-63
135
-127
-70
279
131
-25
226
321
156
292
480
259
343
772
625
438
756
736
528
834
995
659
612
831
640
374
524
534
180
128
245
-8
-97
179
-43
-329
11
61
-273
-177
-16
-269
-326
-65
-194
-411
-171
-103
-336
-183
-67
-391
-352
-40
-211
-346
-66
-46
-289
-175
-36
-238
-255
-29
-137
-289
-35
-13
-313
-232
-43
-255
-244
55
-109
-333
-85
-24
-297
-153
-11
-384
-291
98
-161
-394
-68
-31
-320
-155
18
-246
-262
-9
-200
-316
-8
-96
-324
-156
-58
-238
-221
26
-110
-323
-52
27
-199
3
147
-125
-83
235
88
-82
284
268
-128
53
245
-68
-105
58
-165
-301
-67
-50
-357
-263
-42
-263
-344
-82
-129
-382
-110
-20
-263
360
1384
1920
2374
2197
653
-659
-575
-265
-354
-166
-50
-386
-328
-16
-230
-374
-97
-111
-385
-216
49
-234
-326
-41
-134
-241
13
-30
-305
-104
76
-220
-203
109
-66
-196
117
95
-149
62
184
-126
-12
425
289
74
338
387
216
404
565
455
556
797
694
581
858
906
626
726
896
700
630
755
511
242
456
382
-32
62
204
-87
-127
61
-135
-265
-3
-105
-401
-170
-17
-302
-262
-44
-262
-352
-78
-160
-388
-197
-57
-287
-263
26
-266
-488
-48
3
-293
-88
72
-241
-248
22
-145
-271
-60
-128
-302
-109
40
-220
-249
-28
-178
-253
-12
-62
-292
-162
-21
-242
-283
-31
-130
-289
-40
-71
-316
-112
-8
-216
-132
53
-165
-283
-40
-75
-242
-77
-19
-290
-189
147
-63
-231
105
95
-157
115
324
64
56
265
134
8
197
72
-164
41
73
-173
-144
40
-191
-386
-34
-4
-347
-161
0
-349
-256
132
-162
-245
671
1487
1928
2340
1746
111
-722
-511
-447
-373
-28
-46
-326
-163
33
-231
-239
28
-142
-281
69
31
-346
-165
32
-153
-98
97
-103
-192
96
50
-181
-3
155
-101
-104
214
71
-124
184
250
22
220
374
92
147
556
423
237
606
626
381
620
824
623
672
945
818
663
856
850
594
655
720
399
305
488
266
-4
157
137
-153
-58
51
-201
-211
-17
-224
-360
-22
-81
-341
-161
-70
-285
-221
66
-128
-328
-55
-38
-331
-179
31
-212
-210
39
-133
-221
124
13
-313
-83
38
-236
-166
84
-172
-335
1
-37
-338
-158
-26
-230
-121
71
-176
-277
-15
-55
-260
-68
45
-259
-268
-37
-190
-293
38
9
-301
-49
106
-181
-44
226
-20
-64
290
213
-54
135
287
31
-13
162
-44
-167
46
-57
-361
-203
3
-300
-293
7
-317
-418
42
-88
-358
-148
-52
125
913
1797
2066
1734
886
-319
-986
-628
-218
-326
-234
-15
-272
-371
-72
-178
-347
-79
-54
-318
-219
44
-190
-364
-3
-63
-357
-55
56
-262
-167
99
-121
-297
72
88
-200
36
115
-124
-14
193
83
20
297
286
82
297
424
218
395
696
499
476
778
704
517
722
848
594
565
802
590
336
522
378
61
185
215
-92
-99
66
-213
-382
-104
-171
-492
-262
-123
-461
-328
-40
-302
-427
-189
-237
-401
-182
-101
-403
-316
-5
-202
-391
-171
-155
-271
-28
25
-305
-270
-13
-202
-383
-60
-70
-336
-110
-57
-366
-322
-69
-194
-334
-79
-91
-357
-178
-75
-374
-261
-37
-333
-336
-7
-161
-391
-207
-144
-402
-365
-47
-139
-295
-79
-158
-393
-169
-64
-339
-258
-10
-192
-212
113
-29
-260
101
185
-163
-3
267
14
-111
147
39
-272
-80
-48
-429
-290
-33
-344
-405
-69
-233
-488
-211
-155
-398
-221
-37
-203
192
1270
1932
2170
2110
911
-611
-792
-292
-308
-350
-140
-264
-435
-166
-116
-411
-266
-31
-356
-471
-71
-141
-392
-132
-69
-359
-257
24
-173
-317
-64
-106
-293
-29
75
-283
-234
107
-39
-115
171
29
-148
225
323
-16
142
458
281
254
565
528
370
603
705
576
715
908
730
594
846
771
430
618
632
199
248
451
172
-44
91
0
-208
-13
24
-278
-166
39
-270
-338
44
-126
-403
-99
-38
-355
-254
-32
-304
-356
-10
-125
-340
-90
-61
-336
-210
28
-187
-280
-13
-102
-307
-91
0
-267
-164
48
-229
-255
56
-69
-324
-70
44
-321
-254
68
-215
-364
-4
-156
-355
-2
-25
-312
-133
16
-240
-246
18
-171
-352
-85
-70
-290
-149
34
-208
-346
-96
-85
-229
-34
23
-275
-197
56
-162
-212
88
17
-144
101
125
-174
41
364
155
78
277
109
-111
124
146
-179
-136
-10
-233
-305
-52
-154
-356
-105
-99
-332
-157
7
-281
-319
46
343
954
1982
2555
2117
1042
-120
-808
-525
-6
-145
-349
-160
-149
-347
-199
-2
-253
-360
-75
-101
-300
-86
-45
-365
-186
58
-219
-253
42
-67
-229
-30
5
-154
-55
87
-90
-106
119
3
-98
194
218
-70
114
445
243
179
490
426
292
586
698
503
630
832
647
661
929
737
587
870
866
532
482
579
298
101
297
126
-131
95
47
-291
-96
76
-314
-358
1
-100
-336
-111
-104
-386
-225
-67
-290
-300
-74
-214
-400
-148
-98
-382
-255
-15
-288
-320
50
-62
-305
-106
-59
-302
-173
15
-254
-297
-12
-188
-333
-75
-108
-288
-102
12
-281
-325
-29
-154
-392
-88
-19
-391
-260
-25
-215
-257
-68
-172
-388
-108
46
-262
-223
-76
-289
-262
41
-97
-381
-180
0
-208
-178
7
-234
-309
33
-87
-342
-98
-64
-263
-42
133
-142
-104
228
30
-122
271
267
-32
144
285
-20
-58
217
35
-191
-37
-99
-310
-148
17
-210
-254
-30
-226
-405
-60
-57
-300
-168
21
438
1358
2294
2422
1578
523
-342
-773
-428
-61
-314
-380
-43
-135
-324
-88
-121
-454
-238
118
-148
-269
38
-77
-275
-19
11
-251
-107
76
-212
-272
77
60
-138
56
99
-126
31
219
27
3
260
186
15
256
352
225
373
480
324
473
764
594
515
833
809
625
854
925
680
756
966
689
382
534
552
239
262
364
17
-44
207
-86
-276
70
67
-243
-115
61
-230
-242
13
-176
-311
-3
-29
-355
-174
30
-236
-276
33
-67
-261
18
27
-264
-144
39
-164
-198
55
-94
-274
8
7
-251
-86
32
-246
-297
-6
-49
-257
-58
-65
-360
-137
57
-251
-270
-18
-146
-338
-124
-41
-307
-259
-52
-280
-331
22
-88
-297
-25
32
-198
-25
193
-64
-98
207
107
-38
155
111
-38
96
148
-149
-230
37
-143
-348
-57
-80
-384
-262
-100
-314
-328
-45
-197
-307
-30
-110
23
996
1863
2018
1760
854
-426
-990
-675
-308
-292
-175
-71
-289
-258
21
-140
-289
-10
-54
-371
-170
36
-268
-252
45
-85
-210
-12
-5
-214
-191
14
-53
-84
166
-13
-190
140
45
-182
150
283
41
106
391
260
107
418
467
246
438
656
472
497
797
657
563
874
841
601
758
842
505
449
643
361
58
269
182
-178
13
140
-210
-271
-77
-216
-370
-111
-99
-422
-208
-56
-417
-410
-171
-283
-349
-128
-148
-349
-163
-66
-320
-261
-2
-139
-286
-62
-179
-407
-138
-46
-269
-206
-60
-270
-356
-125
-175
-399
-173
-57
-425
-355
-61
-302
-491
-151
-99
-419
-276
-111
-395
-407
-121
-321
-532
-214
-177
-458
-289
-68
-320
-331
-59
-233
-259
75
-73
-265
3
107
-73
-61
95
-156
-384
-82
-67
-338
-210
-172
-498
-420
-146
-401
-535
-255
-297
-495
-312
-180
-426
-443
-36
345
1002
1983
2257
1400
151
-679
-940
-633
-241
-370
-490
-262
-288
-537
-354
-196
-454
-392
-166
-393
-531
-268
-271
-453
-249
-119
-387
-395
-105
-268
-439
-102
-85
-327
-148
-22
-249
-235
-36
-143
-184
88
103
-135
83
299
21
111
384
221
256
591
569
326
527
760
473
553
905
637
411
669
609
251
343
448
72
-52
108
-120
-230
23
-114
-398
-236
-169
-392
-364
-175
-319
-457
-173
-174
-500
-346
-132
-372
-369
-86
-280
-449
-145
-158
-431
-251
-38
-273
-329
-106
-253
-311
-17
-130
-361
-158
-16
-282
-385
-107
-179
-351
-86
-144
-420
-156
-15
-347
-318
-19
-248
-398
-59
-130
-352
-114
-118
-403
-235
0
-257
-401
-80
-106
-398
-191
-31
-296
-247
-16
-251
-407
-96
-45
-302
-147
-15
-262
-165
88
-107
-219
149
176
-109
135
284
6
34
220
28
-130
80
40
-230
-79
-2
-322
-299
-97
-234
-291
-90
-120
-361
-244
-75
-257
-204
224
744
1492
2360
2522
1430
165
-432
-636
-356
-50
-232
-361
-127
-141
-376
-175
-56
-337
-337
-71
-148
-293
-59
-71
-348
-165
-39
-304
-198
35
-188
-221
86
18
-239
-48
155
-154
-156
230
42
-155
179
190
-45
182
341
88
171
527
414
289
649
730
473
667
861
578
659
942
746
622
790
655
321
459
558
197
128
260
4
-152
127
49
-319
-110
98
-263
-300
-9
-179
-332
-95
-161
-418
-230
-94
-339
-270
-56
-282
-360
-67
-176
-416
-122
10
-335
-300
8
-208
-347
-30
-87
-311
-87
-28
-316
-235
-15
-246
-397
-26
-8
-347
-176
-30
-271
-218
-11
-212
-294
-20
-143
-374
-127
-33
-298
-249
-33
-264
-370
-9
-78
-361
-98
58
-215
-257
-50
-175
-300
26
-45
-370
-63
41
-319
-206
88
-26
-112
125
103
-134
136
356
69
69
264
58
-77
159
99
-176
-44
-15
-336
-241
77
-206
-404
-64
-150
-381
-67
-32
-308
-170
36
241
1044
2171
2541
1936
871
-217
-811
-559
-67
-209
-321
15
-36
-342
-182
-42
-287
-211
11
-214
-298
8
-34
-317
-148
16
-195
-102
147
-99
-232
67
24
-114
95
149
-105
-84
185
-10
-130
279
262
-34
227
438
207
315
549
338
341
686
682
520
762
879
639
730
946
761
627
874
792
437
515
555
273
272
407
87
-92
193
65
-281
-53
56
-312
-241
-17
-255
-249
25
-164
-380
-114
-48
-271
-183
-32
-210
-262
6
-68
-329
-165
-109
-318
-110
141
-123
-257
11
-67
-289
-48
55
-234
-201
41
-102
-226
-2
-65
-340
-105
55
-252
-155
93
-153
-213
33
-54
-246
-90
23
-228
-160
105
-206
-407
-2
33
-215
19
52
-228
-127
38
-165
-211
42
2
-101
33
90
-64
25
333
139
-16
318
271
-13
142
210
-124
-140
105
-118
-276
27
-56
-416
-201
21
-302
-230
73
-191
-326
16
-49
-155
707
1565
1827
2124
1649
21
-908
-641
-496
-442
-52
-43
-403
-218
60
-240
-336
-21
-110
-315
-54
-14
-311
-206
28
-168
-255
17
-48
-252
-14
69
-208
-65
182
-89
-159
195
129
-126
102
219
-48
85
459
270
112
442
380
157
542
693
402
593
903
708
641
925
764
485
860
973
577
644
737
352
178
358
242
-61
111
193
-251
-254
42
-184
-309
-53
-174
-413
-187
-84
-298
-225
-89
-295
-325
-90
-186
-309
-78
-66
-336
-196
3
-159
-183
-31
-107
-268
-71
-10
-322
-213
24
-222
-228
28
-139
-396
-241
-23
-209
-180
62
-228
-345
-85
-221
-386
-142
-73
-321
-236
-87
-355
-353
-9
-151
-408
-136
-56
-402
-280
-6
-287
-286
28
-166
-285
67
80
-236
-70
157
-36
-82
131
37
-216
-34
11
-305
-217
-39
-335
-498
-226
-252
-462
-209
-162
-544
-458
-144
-262
-371
-122
155
731
1720
2242
1772
657
-349
-922
-840
-269
-193
-457
-244
-134
-421
-259
-22
-348
-399
-107
-250
-475
-164
-90
-474
-236
41
-322
-396
-51
-115
-339
-95
-25
-324
-203
32
-161
-202
92
36
-171
31
135
-37
64
274
135
123
423
392
232
498
691
427
507
829
572
509
869
723
481
718
687
286
298
420
152
38
204
0
-276
-52
-5
-315
-229
-92
-396
-399
-91
-297
-493
-218
-213
-513
-418
-127
-255
-354
-144
-289
-431
-88
-86
-400
-284
-115
-312
-313
-62
-167
-379
-185
-81
-326
-205
5
-256
-289
-43
-164
-308
-82
-90
-404
-233
-32
-291
-275
-52
-196
-390
-188
-56
-296
-280
-88
-266
-292
-35
-235
-440
-97
-43
-383
-230
-20
-323
-325
-14
-166
-412
-126
30
-201
-41
177
-122
-251
95
150
-7
224
225
-113
39
245
-59
-199
47
-68
-413
-206
-53
-343
-243
-36
-267
-404
-251
-205
-239
-33
-30
-135
617
1704
2109
2232
1913
467
-672
-508
-253
-370
-254
-79
-319
-346
5
-117
-415
-206
-38
-253
-204
-43
-252
-256
-58
-155
-234
-19
-9
-291
-101
94
-277
-276
88
15
-148
87
98
-205
-20
267
44
-10
318
233
2
316
479
240
414
605
399
510
790
681
557
816
862
558
769
1005
609
485
698
421
209
480
382
-30
26
144
-109
-156
28
-142
-317
-66
-60
-367
-236
-7
-225
-305
-105
-195
-330
-103
-87
-368
-233
-61
-289
-278
-42
-186
-301
-13
-9
-317
-147
47
-279
-286
25
-130
-280
8
-22
-295
-177
-35
-190
-222
-13
-183
-351
-2
5
-307
-184
-57
-304
-250
42
-116
-319
-43
33
-314
-245
38
-167
-247
59
-79
-332
-73
15
-257
-178
27
-270
-331
81
-40
-244
11
-18
-310
-185
31
-215
-258
60
-16
-240
-88
91
2
75
228
51
48
254
162
45
233
220
-111
-2
161
-202
-253
21
-161
-326
-26
-8
-304
-164
-16
-288
-307
17
-110
-273
456
1325
1866
2501
2350
788
-410
-432
-402
-359
-54
-94
-361
-153
34
-228
-290
-43
-120
-335
-201
-114
-186
-80
-3
-190
-178
68
-82
-259
18
91
-162
-15
201
-83
-162
180
99
-109
173
260
-49
47
332
186
200
465
297
150
519
621
410
607
849
667
683
948
777
631
918
904
597
733
856
471
363
595
315
-41
204
291
-38
37
177
-165
-211
67
-145
-371
-52
20
-324
-179
-7
-304
-296
-34
-129
-279
-44
-70
-321
-131
41
-208
-244
64
-117
-356
-34
53
-237
-134
93
-164
-240
40
-87
-242
-25
-44
-281
-102
91
-263
-278
136
-53
-332
-56
-1
-270
-143
46
-185
-207
67
-102
-375
-93
52
-234
-157
19
-160
-166
19
-117
-261
-19
7
-280
-144
54
-225
-251
121
41
-173
123
187
-66
82
266
33
43
380
238
-71
183
232
-154
-24
170
-127
-155
108
-118
-322
-61
-74
-299
-157
15
-184
-191
103
-132
-172
807
1626
1932
2293
1738
88
-722
-446
-431
-416
-20
-24
-268
-108
33
-219
-221
69
-93
-274
-26
-23
-256
-58
146
-123
-171
66
-53
-173
94
104
-137
18
185
-16
-53
150
72
-27
198
245
14
169
432
224
245
552
377
248
604
630
462
732
885
591
611
982
871
710
947
876
583
736
816
418
318
483
206
10
257
209
-147
-113
103
-182
-257
79
-108
-324
-61
-89
-366
-194
-40
-298
-245
19
-189
-331
12
45
-257
-123
16
-216
-173
85
-72
-240
-25
-47
-310
-138
61
-268
-296
84
-46
-249
-15
-40
-287
-124
36
-222
-237
25
-176
-354
-66
-33
-298
-212
25
-151
-229
-6
-171
-355
-68
-11
-255
-79
121
-124
-86
163
-6
-104
102
132
-28
121
240
-117
-143
149
-86
-332
-84
-133
-404
-231
-105
-374
-346
-62
-250
-435
-196
-129
-321
-57
591
1114
1800
2285
1478
27
-586
-710
-761
-316
-66
-383
-403
-124
-244
-380
-100
-115
-400
-250
-40
-250
-275
-14
-186
-371
-74
-36
-301
-134
19
-273
-223
73
-102
-252
54
82
-242
-79
165
-52
-32
290
175
-12
289
350
112
332
543
310
382
731
605
516
823
763
486
692
857
507
483
814
533
235
420
230
-119
20
98
-220
-256
-52
-241
-400
-222
-329
-557
-301
-125
-421
-432
-172
-332
-481
-235
-225
-463
-296
-142
-446
-410
-63
-223
-438
-258
-208
-302
-156
-63
-373
-362
-49
-308
-489
-157
-140
-394
-268
-154
-370
-308
-101
-348
-520
-223
-141
-355
-292
-196
-421
-384
-103
-265
-392
-165
-229
-463
-254
-75
-380
-409
-102
-214
-435
-191
-88
-290
-131
30
-151
-120
91
-64
-148
185
172
-136
25
154
-196
-181
85
-176
-369
-143
-177
-368
-219
-223
-500
-346
-93
-336
-464
-89
-48
-273
255
1112
1620
2209
2396
1092
-422
-601
-420
-501
-258
-151
-456
-364
-24
-207
-421
-154
-162
-434
-225
-97
-302
-184
-37
-257
-338
-75
-73
-320
-175
-13
-303
-252
81
-127
-231
73
14
-207
18
169
-79
-26
258
118
-14
277
298
150
390
506
325
450
764
599
462
872
884
544
749
883
531
498
753
523
234
386
272
-65
92
168
-174
-137
65
-145
-288
-44
-57
-359
-200
-61
-376
-276
1
-302
-449
-123
-159
-389
-194
-45
-241
-280
-121
-245
-313
-42
-119
-385
-115
63
-271
-285
-34
-189
-330
-64
-41
-304
-146
22
-251
-265
-47
-211
-282
-8
-92
-363
-182
-26
-235
-185
29
-198
-305
-78
-162
-280
-99
-47
-230
-206
-36
-195
-318
-50
-65
-323
-120
38
-255
-241
12
-150
-291
-24
41
-134
54
181
-84
-27
246
58
-52
253
208
-87
131
249
-114
-103
107
-150
-323
-26
-58
-302
-146
-53
-289
-343
-58
-182
-400
-70
-59
-129
765
1830
2277
2416
1744
171
-738
-506
-260
-323
-145
-32
-309
-254
-44
-299
-427
-117
-66
-282
-138
36
-209
-248
-24
-175
-276
-47
-63
-228
-33
63
-258
-189
143
-42
-146
138
37
-139
147
216
-44
43
263
125
130
424
378
148
394
668
461
529
833
683
572
863
828
566
784
892
595
588
714
447
213
346
282
-16
66
185
-156
-242
4
-123
-281
-115
-153
-345
-189
-92
-346
-315
-60
-238
-393
-125
-143
-414
-205
-79
-398
-285
36
-211
-402
-131
-142
-326
-110
-18
-278
-216
29
-207
-427
-120
-4
-261
-156
19
-234
-269
-84
-197
-253
-93
-140
-348
-175
7
-325
-306
7
-246
-355
-11
-88
-364
-141
-52
-337
-240
-57
-252
-339
-79
-110
-360
-143
-27
-327
-258
16
-178
-306
-73
-108
-342
-162
29
-230
-165
135
-36
-132
36
21
8
234
278
29
39
165
0
-59
167
70
-273
-188
-5
-225
-242
-86
-359
-405
-1
-29
-376
-197
28
-296
-156
713
1359
1968
2646
2046
336
-510
-515
-557
-341
-51
-200
-287
-39
-102
-351
-154
17
-256
-254
10
-114
-287
-69
-49
-272
-86
34
-217
-174
46
-101
-193
119
107
-180
-4
213
-19
-12
269
46
-29
390
358
51
225
438
242
298
620
508
456
773
735
554
828
965
654
676
983
800
586
827
717
348
467
502
159
112
332
128
-155
105
101
-233
-86
46
-220
-213
19
-162
-270
-34
-121
-336
-83
46
-264
-196
49
-159
-244
40
-12
-276
-125
-18
-282
-130
200
-101
-276
-1
-7
-205
-36
50
-264
-226
37
-101
-201
-4
-119
-370
-78
110
-275
-232
112
-167
-296
61
-47
-316
-98
4
-258
-209
17
-184
-311
-15
-104
-339
2
127
-201
-108
147
-39
-49
193
86
-10
203
246
45
96
309
59
-231
66
126
-184
-44
30
-301
-224
28
-239
-372
-65
-103
-298
-173
-50
-174
-183
409
1068
1676
2386
1918
321
-476
-566
-771
-417
18
-227
-354
-63
-88
-314
-123
8
-297
-273
35
-112
-223
42
-18
-284
-76
54
-238
-117
180
-110
-268
107
84
-222
12
193
-49
67
300
83
4
281
234
22
332
543
212
208
615
583
433
740
745
549
771
884
705
765
934
677
504
731
615
326
468
440
40
33
245
-29
-255
42
-25
-373
-173
-74
-394
-309
-39
-262
-401
-133
-190
-420
-151
0
-304
-274
-10
-235
-413
-46
-18
-294
-104
20
-296
-224
78
-232
-427
-36
-40
-331
-129
-44
-347
-274
-31
-234
-359
-74
-109
-367
-171
-40
-328
-325
-77
-301
-467
-125
-125
-425
-191
-6
-338
-327
-71
-294
-495
-126
-84
-421
-161
24
-288
-257
-8
-103
-163
70
25
-178
83
193
-166
-100
117
-198
-357
-86
-157
-426
-218
-165
-512
-389
-138
-404
-521
-182
-222
-498
-218
-91
-226
492
1569
1965
2027
1510
41
-945
-715
-394
-522
-429
-137
-330
-449
-120
-273
-593
-271
-106
-405
-367
-114
-311
-411
-109
-197
-428
-189
-126
-393
-227
45
-172
-335
-70
-50
-262
-78
38
-160
-38
177
-65
-124
234
192
16
275
416
215
342
633
467
418
737
693
474
713
863
626
646
832
575
343
578
463
118
245
279
-75
-144
63
-96
-263
-40
-158
-451
-169
-77
-432
-363
-107
-331
-460
-175
-243
-419
-177
-124
-370
-258
0
-251
-414
-84
-136
-393
-136
14
-319
-311
-14
-178
-319
-93
-118
-271
-82
-45
-297
-213
-17
-268
-337
-23
-162
-476
-249
1
-225
-226
-11
-269
-429
-119
-99
-340
-175
-115
-330
-196
-38
-285
-406
-95
-131
-397
-134
-13
-315
-244
-25
-206
-198
93
28
-143
61
195
-55
-11
266
33
-149
96
16
-188
-4
15
-373
-366
-24
-236
-425
-110
-166
-438
-262
-132
-394
-317
-21
-199
135
1386
2165
2263
2118
930
-586
-735
-226
-261
-307
-90
-245
-414
-106
-30
-398
-338
-18
-241
-386
-73
-124
-364
-97
46
-330
-312
15
-200
-258
115
-27
-304
-65
34
-214
-101
143
-25
-96
147
98
-139
137
323
56
219
492
319
242
517
530
371
648
833
581
672
977
727
549
856
821
523
644
654
278
232
366
91
-79
162
-11
-309
-27
13
-294
-206
-5
-272
-426
-84
-123
-397
-176
-93
-398
-291
-76
-326
-448
-143
-110
-332
-134
-61
-389
-380
-37
-88
-285
-73
-154
-359
-85
-66
-368
-252
-2
-215
-326
-47
-101
-336
-231
-67
-247
-254
-7
-226
-308
-17
-140
-383
-136
-39
-353
-238
-52
-278
-245
0
-169
-398
-129
28
-278
-231
72
-222
-442
-41
-39
-330
-137
-57
-315
-225
-6
-195
-249
14
-105
-395
-172
-1
-234
-124
148
-71
-214
73
91
-133
62
269
58
108
318
54
-138
75
44
-217
-56
58
-317
-308
-3
-218
-331
-100
-236
-411
-199
-53
-235
-203
171
556
1384
2354
2436
1554
411
-435
-795
-429
-52
-302
-364
-98
-170
-363
-144
-19
-334
-282
25
-153
-271
-32
-127
-324
-48
63
-215
-122
123
-94
-223
57
15
-238
20
196
-84
-25
197
-7
-42
315
293
50
269
437
183
261
559
419
442
799
699
502
752
886
664
750
1019
765
678
941
742
475
638
628
260
235
382
99
-93
184
71
-236
-27
48
-217
-205
18
-151
-271
13
-70
-329
-83
37
-302
-230
45
-218
-304
20
-124
-374
-75
46
-247
-153
56
-186
-213
78
-55
-292
-76
-10
-323
-259
24
-178
-308
27
-46
-359
-72
-9
-373
-190
52
-228
-299
-10
-112
-332
-150
-187
-435
-150
119
-176
-290
-78
-169
-336
-95
10
-290
-243
-16
-241
-335
-60
-139
-386
-247
-53
-169
-146
68
-153
-254
106
68
-164
64
210
-23
59
305
0
-133
209
98
-240
-41
107
-238
-240
-27
-255
-334
-57
-129
-376
-157
-17
-399
-380
6
-162
-63
852
1526
1882
2161
1320
-256
-751
-517
-556
-431
-76
-165
-400
-152
-112
-359
-183
43
-159
-305
-70
-113
-317
-49
40
-256
-175
1
-178
-223
60
54
-214
-45
126
-91
-35
173
-32
-66
248
157
-41
206
311
68
197
465
295
269
617
569
351
618
775
583
664
882
672
550
876
794
487
682
673
262
268
372
62
-38
156
-56
-315
-105
-109
-351
-210
-41
-286
-418
-159
-195
-429
-206
-106
-399
-300
-60
-299
-398
-120
-189
-408
-219
-62
-234
-179
-9
-264
-345
-63
-186
-386
-85
-76
-410
-222
-31
-348
-402
-106
-165
-365
-180
-120
-370
-264
-52
-300
-440
-158
-189
-390
-218
-149
-389
-314
-126
-416
-463
-63
-173
-494
-237
-84
-416
-346
-36
-208
-300
-43
-91
-304
-42
135
-154
-97
164
-29
-136
45
-105
-310
-87
-29
-413
-404
-129
-349
-473
-216
-296
-509
-288
-177
-448
-332
-119
-324
67
1253
1941
2089
2004
803
-725
-903
-401
-436
-479
-177
-247
-474
-321
-227
-365
-267
-101
-342
-384
-56
-199
-416
-156
-102
-390
-310
-82
-246
-248
-21
-160
-329
-119
-16
-204
-97
67
-129
-131
113
46
-112
115
191
-20
182
444
200
190
582
506
259
567
783
524
606
837
625
548
797
725
453
542
516
214
236
335
35
-160
43
-66
-358
-107
-14
-370
-274
-67
-365
-477
-200
-281
-434
-166
-198
-498
-324
-120
-368
-401
-106
-307
-488
-109
-54
-404
-320
-17
-234
-334
-25
-170
-399
-164
-105
-365
-249
-11
-289
-389
-100
-186
-359
-129
-86
-397
-270
-3
-277
-299
-28
-248
-443
-150
-73
-379
-265
4
-290
-390
-116
-205
-333
-97
-38
-302
-269
-105
-275
-287
10
-125
-406
-168
-43
-294
-211
-12
-144
-161
76
37
-190
2
167
14
120
301
62
-68
198
129
-145
42
98
-236
-181
20
-225
-371
-89
-130
-391
-167
-51
-341
-263
22
-249
-215
744
1539
1993
2548
2107
416
-524
-419
-381
-251
-52
-178
-295
-88
-121
-365
-138
5
-293
-280
-33
-195
-328
-8
47
-296
-192
90
-116
-205
32
-53
-195
57
121
-192
-104
177
-35
-94
205
130
-42
205
252
19
188
441
282
270
572
481
318
661
818
587
725
976
743
630
882
766
534
748
749
398
420
520
172
-10
228
134
-138
29
36
-265
-152
10
-258
-249
-52
-239
-297
-102
-97
-341
-256
7
-215
-311
-64
-160
-327
-66
-26
-334
-235
-19
-253
-248
68
-78
-268
-59
-49
-349
-227
87
-160
-321
17
-52
-353
-109
-8
-327
-224
28
-199
-256
18
-146
-385
-112
-1
-317
-208
45
-240
-349
-40
-123
-306
7
12
-347
-244
4
-155
-213
8
-129
-332
-67
9
-294
-180
22
-258
-366
-36
-12
-209
6
87
-149
-2
210
-33
-35
273
130
-10
262
267
-31
-14
131
-87
-155
57
-155
-338
-54
-48
-351
-222
-13
-274
-339
-52
-116
-276
-85
142
576
1594
2468
2418
1562
380
-519
-741
-357
-94
-277
-263
-35
-189
-274
-4
-145
-429
-161
38
-269
-207
-11
-262
-215
46
-130
-299
-20
43
-185
-22
178
-75
-144
123
13
-150
153
201
-112
41
258
43
68
368
291
208
506
549
332
508
731
563
620
904
772
611
874
942
655
736
899
585
450
639
468
213
365
329
-72
-24
195
-124
-209
40
-139
-326
-113
-66
-346
-213
-8
-319
-320
-32
-154
-311
-113
-74
-335
-264
-62
-217
-258
-16
-160
-361
-38
26
-280
-152
22
-268
-309
44
-88
-350
-25
4
-349
-185
49
-195
-271
1
-105
-265
-83
-123
-307
-146
13
-262
-297
26
-70
-322
-124
-15
-281
-201
22
-205
-324
-26
-58
-277
-50
-23
-339
-225
50
-137
-254
-37
-150
-293
-10
61
-167
-42
190
-18
-80
244
168
-71
247
364
-38
16
223
-30
-102
84
-9
-201
-74
-57
-329
-193
10
-236
-245
31
-110
-351
-55
37
-225
447
1534
1999
2367
2094
534
-647
-581
-373
-378
-182
-21
-198
-216
33
-67
-292
-112
-59
-227
-88
6
-232
-186
151
7
-236
-4
94
-136
-42
155
-106
-184
204
144
-125
171
223
-68
141
329
71
91
436
330
100
386
521
335
539
737
512
573
894
795
619
902
1012
710
832
1039
692
604
868
592
276
470
414
26
93
294
-8
-125
90
-125
-304
-38
-55
-267
-107
28
-232
-270
-38
-155
-294
-126
-88
-263
-146
40
-180
-237
24
-86
-315
-29
61
-269
-132
112
-143
-242
29
-98
-300
4
-10
-377
-162
94
-215
-270
28
-88
-326
-100
-34
-332
-188
68
-236
-345
-26
-101
-322
-113
-55
-293
-198
-44
-234
-265
-20
-148
-378
-83
37
-271
-150
97
-103
-80
171
46
-93
164
271
-55
22
246
-102
-216
85
-41
-308
-117
-83
-388
-243
-25
-284
-311
-63
-177
-407
-185
1
-324
-112
732
1196
1741
2268
1409
-74
-594
-697
-733
-282
-25
-334
-388
-55
-182
-412
-77
-69
-401
-205
-3
-244
-231
22
-155
-325
-46
-23
-289
-73
89
-192
-189
34
-65
-177
102
169
-124
4
284
10
-64
330
272
112
353
373
167
345
567
425
498
785
645
530
844
856
585
728
901
623
556
776
557
272
415
326
-39
-16
127
-73
-161
53
-136
-366
-127
-118
-413
-339
-116
-325
-370
-82
-194
-384
-173
-185
-445
-230
8
-266
-295
21
-122
-325
-73
-52
-325
-178
7
-309
-325
-15
-240
-381
-35
-28
-320
-204
8
-279
-402
-30
-129
-415
-151
-90
-361
-290
-128
-305
-395
-149
-192
-437
-205
-78
-397
-321
-101
-349
-369
-43
-163
-367
-96
-25
-307
-162
93
-195
-144
244
51
-125
98
76
-180
-122
-73
-269
-177
0
-271
-445
-154
-198
-506
-352
-208
-442
-419
-147
-253
-392
-173
103
579
1538
2263
2087
1190
68
-735
-858
-380
-228
-428
-287
-183
-390
-394
-175
-299
-436
-167
-147
-460
-374
-79
-236
-327
-68
-247
-435
-52
-18
-347
-158
33
-274
-238
97
-103
-243
68
47
-235
-17
223
-19
19
330
201
50
358
478
260
375
644
557
547
818
768
563
744
851
587
611
777
491
361
485
255
30
188
123
-187
-85
34
-205
-244
-69
-212
-390
-157
-125
-480
-347
-111
-413
-396
-114
-341
-545
-184
-82
-429
-284
-31
-322
-360
-70
-233
-381
-133
-151
-400
-284
-118
-308
-291
-96
-312
-425
-121
-99
-345
-213
-77
-312
-290
-27
-197
-434
-221
-132
-333
-241
-68
-333
-407
-75
-147
-380
-151
-91
-380
-260
-107
-360
-356
-37
-132
-371
-187
-193
-369
-134
-29
-317
-286
78
-14
-190
69
54
-153
56
238
10
-9
222
56
-170
-12
16
-193
-147
-59
-313
-375
-87
-191
-385
-150
-134
-452
-294
-11
-224
-258
95
568
1343
2313
2618
1669
358
-388
-700
-444
4
-169
-446
-213
-100
-397
-308
-63
-276
-348
-96
-182
-392
-170
-103
-317
-114
31
-326
-338
11
-127
-279
13
37
-237
-144
105
-104
-191
140
74
-47
215
205
-49
131
379
90
116
588
499
312
623
668
430
707
950
612
562
890
801
600
781
706
341
489
597
168
83
274
13
-148
86
-4
-344
-239
-50
-227
-271
-63
-146
-355
-129
-84
-428
-307
-65
-310
-319
-87
-266
-402
-108
-76
-341
-185
11
-240
-289
-11
-99
-314
-172
-85
-246
-187
-70
-275
-234
17
-191
-386
-85
-26
-334
-158
39
-270
-286
-26
-147
-311
-138
-65
-291
-215
23
-249
-321
-28
-210
-303
-32
-80
-235
-106
-53
-334
-294
29
-113
-282
-15
-8
-317
-201
-24
-220
-190
115
15
-180
76
182
-123
-22
277
44
32
361
86
-137
262
212
-148
-30
61
-156
-237
-54
-114
-333
-89
-4
-317
-211
-51
-300
-204
126
-92
29
1085
1948
2207
2252
1431
-163
-766
-403
-319
-325
-11
33
-274
-225
-28
-182
-246
-19
-108
-299
-90
-34
-260
-109
88
-164
-155
133
-67
-269
16
88
-143
-15
192
-6
-71
182
-4
-186
290
303
-29
205
423
188
141
489
433
265
576
708
484
647
917
683
610
941
857
675
957
897
543
687
790
378
249
479
249
-32
202
190
-160
-51
88
-207
-196
62
-138
-308
2
-22
-319
-107
76
-224
-289
-22
-131
-307
-71
-6
-290
-212
-7
-216
-182
106
-124
-361
-60
-18
-278
-132
16
-219
-243
-15
-121
-299
-66
-33
-308
-126
56
-258
-296
46
-86
-306
-84
-185
-401
-69
66
-259
-222
46
-191
-416
-70
13
-310
-158
77
-183
-228
91
24
-170
95
179
-111
24
321
76
-50
260
160
-102
101
95
-222
-107
36
-254
-249
-6
-231
-381
-77
-59
-417
-302
-40
-217
-215
56
365
963
1856
2282
1588
426
-380
-858
-761
-202
-183
-428
-184
-133
-383
-201
-29
-296
-330
22
-125
-414
-60
-26
-321
-95
57
-222
-231
23
-133
-269
20
30
-229
-81
179
-62
-151
151
50
-58
196
221
20
181
399
164
163
490
450
345
638
693
422
655
959
657
567
888
790
569
754
716
356
407
482
130
0
170
-4
-242
-65
-66
-318
-205
-48
-302
-359
-114
-288
-463
-160
-152
-476
-298
-129
-429
-340
-56
-265
-422
-139
-80
-347
-255
-47
-242
-286
-24
-124
-325
-120
-89
-390
-300
-50
-248
-319
-58
-189
-415
-118
-10
-343
-258
-72
-326
-279
-20
-254
-421
-173
-163
-400
-223
4
-307
-363
-40
-216
-388
-90
-126
-341
-97
76
-161
-159
99
-45
-188
32
80
-99
23
246
-23
-187
43
-130
-349
-106
-109
-392
-307
-185
-384
-341
-123
-324
-519
-270
-172
-354
-183
128
433
1296
2335
2416
1482
341
-562
-864
-451
-150
-389
-396
-126
-259
-388
-106
-116
-407
-308
-143
-329
-329
-42
-149
-347
-174
-132
-332
-240
-86
-313
-324
-13
-88
-247
-27
5
-230
-116
106
-69
-93
193
87
-65
233
246
-23
229
497
330
368
626
486
405
795
851
555
714
930
648
561
770
609
369
501
367
30
192
189
-134
-81
70
-195
-356
-95
-41
-278
-204
-73
-397
-399
-40
-199
-378
-135
-124
-378
-278
-75
-302
-351
-65
-170
-396
-147
-25
-307
-218
-72
-288
-228
15
-160
-328
-74
-80
-357
-169
33
-238
-336
-96
-168
-364
-92
-33
-345
-192
-14
-310
-285
43
-171
-331
-37
-122
-332
-115
11
-239
-251
-28
-275
-395
-19
-40
-295
-124
10
-278
-244
67
-131
-275
16
1
-216
-29
166
-10
-68
162
61
-74
302
379
10
90
275
-91
-186
152
-40
-325
-84
-41
-287
-224
-196
-382
-196
67
-152
-354
-56
-4
-207
538
1622
2067
2439
2198
595
-669
-486
-191
-321
-212
-72
-255
-237
7
-161
-326
-83
-111
-385
-180
39
-243
-246
14
-152
-276
-22
8
-260
-145
81
-148
-131
154
-39
-188
135
178
-76
69
246
-25
-18
376
250
78
451
492
179
408
709
500
536
892
756
582
932
933
646
802
938
691
656
821
492
224
469
411
-7
63
224
-149
-201
72
-87
-261
-68
-31
-241
-142
-35
-297
-256
11
-180
-324
-160
-247
-319
-70
-19
-300
-322
-38
-99
-284
-41
-33
-311
-116
23
-254
-284
-33
-123
-247
-7
-14
-295
-112
50
-318
-242
68
-160
-322
-101
-70
-283
-191
13
-183
-251
0
-149
-321
-31
10
-254
-160
-18
-294
-300
64
-59
-240
5
-34
-266
-88
22
-262
-216
76
-108
-262
15
-14
-288
-123
23
-222
-178
158
1
-185
154
126
-170
87
293
37
39
347
162
-89
244
280
-96
-18
212
-79
-225
76
-31
-296
-72
-1
-283
-152
50
-243
-273
119
-22
-172
673
1626
2022
2468
2101
376
-617
-446
-350
-234
54
21
-273
-128
110
-162
-202
59
-107
-168
81
-63
-271
-22
154
-121
-132
114
-45
-186
81
175
-124
15
245
-123
-92
277
50
-56
261
138
-44
271
398
174
240
532
420
248
547
662
450
654
882
684
722
960
828
658
884
878
572
745
863
446
361
574
311
32
199
192
-111
-45
137
-174
-303
-17
-150
-326
-36
3
-285
-166
-8
-334
-359
29
-53
-283
-63
-63
-315
-136
25
-177
-165
-19
-178
-226
19
-35
-269
-109
22
-202
-238
28
-80
-325
-48
-5
-351
-212
42
-207
-278
-34
-116
-249
-40
-54
-377
-211
49
-260
-311
10
-201
-408
-41
22
-301
-161
20
-283
-207
150
-44
-155
136
89
-167
-11
250
53
-15
269
20
-252
67
39
-299
-149
-39
-347
-357
-80
-220
-414
-183
-191
-469
-220
49
-272
-367
163
780
1384
2061
2027
932
-205
-718
-858
-558
-123
-281
-392
-113
-174
-404
-259
-98
-328
-318
-32
-232
-358
-32
-120
-383
-155
1
-279
-300
57
-50
-273
-6
-6
-313
-131
108
-70
-81
129
55
-101
106
204
6
124
324
155
205
561
435
294
638
682
438
640
851
618
630
898
707
471
675
627
309
388
398
5
-25
141
-122
-333
-83
-44
-390
-290
-146
-433
-405
-155
-281
-452
-246
-202
-519
-390
-104
-411
-426
-62
-281
-457
-154
-174
-397
-234
-69
-301
-334
-39
-181
-349
-103
-171
-425
-215
-66
-353
-318
-96
-301
-421
-137
-159
-455
-306
-164
-366
-287
-69
-302
-437
-148
-197
-439
-352
-273
-379
-294
-65
-267
-439
-189
-220
-386
-194
-108
-357
-309
36
-52
-253
-36
81
-135
-52
167
-96
-157
180
-24
-304
-41
-105
-448
-294
-146
-383
-392
-195
-355
-513
-245
-178
-425
-260
-50
-324
-118
892
1656
2066
2376
1555
-104
-753
-543
-498
-365
-103
-260
-458
-279
-233
-383
-275
-146
-340
-335
-111
-297
-453
-180
-187
-439
-232
-20
-294
-311
-17
-162
-356
-96
-43
-282
-87
89
-168
-175
118
-8
-229
117
254
-11
184
413
152
205
588
440
291
630
721
524
685
866
603
533
825
725
483
630
513
203
337
415
65
-33
103
-158
-266
44
-32
-368
-223
-91
-367
-328
-125
-311
-363
-91
-155
-405
-241
-114
-404
-400
-106
-261
-377
-65
-99
-430
-234
-37
-365
-296
-3
-201
-264
-14
-95
-345
-180
12
-235
-320
-90
-220
-302
-6
-112
-407
-166
45
-280
-297
54
-111
-319
-49
-51
-325
-166
4
-274
-274
-13
-181
-286
-16
-38
-290
-137
7
-225
-202
41
-97
-212
-24
-82
-266
-117
39
-208
-242
71
-82
-307
-6
89
-139
61
265
-66
-22
343
115
-25
303
237
-80
96
262
-80
-199
40
-112
-277
-44
-107
-335
-189
-85
-310
-267
21
-170
-338
-47
14
159
1190
2271
2480
2157
1193
-253
-771
-309
-184
-371
-144
-22
-356
-343
-13
-180
-367
-99
-116
-307
-114
-9
-269
-258
51
-83
-296
-23
-11
-281
-38
144
-155
-149
125
0
-136
126
129
-108
95
302
68
74
371
263
112
400
451
243
428
627
557
652
852
732
673
947
873
613
868
1009
622
505
681
439
214
419
303
-118
2
238
-79
-139
66
-141
-210
33
-42
-350
-253
-43
-257
-294
-82
-241
-377
-109
-95
-357
-150
20
-269
-250
-6
-214
-370
-123
-156
-282
-70
8
-269
-320
-28
-117
-300
-32
-49
-339
-130
25
-274
-249
20
-198
-322
-25
-69
-315
-144
33
-252
-325
-43
-89
-208
-43
-55
-289
-140
53
-224
-224
20
-205
-304
26
-57
-392
-246
-71
-237
-166
53
-162
-341
-63
-36
-296
-129
30
-278
-308
24
-85
-290
7
155
-41
71
225
27
70
370
182
-64
175
161
-172
-33
125
-222
-260
-21
-158
-277
-43
-69
-355
-201
-36
-303
-292
34
-119
-77
893
1717
2125
2465
1696
51
-617
-387
-371
-319
-37
-133
-345
-110
29
-257
-244
44
-175
-326
99
122
-245
-64
160
-146
-182
105
1
-125
75
81
-121
19
197
-27
-44
184
39
-39
243
207
-20
183
374
187
206
550
510
322
605
685
454
674
857
631
724
1024
879
688
902
879
611
791
848
446
343
496
281
17
213
227
-86
-7
94
-189
-167
117
-126
-366
-32
27
-274
-130
74
-225
-271
36
-127
-292
2
-13
-286
-88
50
-258
-225
49
-120
-257
-40
-49
-165
25
79
-204
-157
101
-115
-290
25
46
-278
-113
48
-274
-270
1
-160
-278
-22
-48
-313
-109
38
-297
-194
118
-148
-294
12
-29
-367
-199
26
-269
-283
-2
-122
-205
72
46
-188
14
147
-50
36
322
102
-123
196
134
-203
-101
21
-191
-224
-32
-228
-448
-199
-110
-334
-191
-32
-368
-414
-16
-122
-289
413
1168
1536
2140
2018
478
-652
-669
-702
-604
-126
-135
-413
-213
-63
-329
-310
-70
-213
-335
-146
-150
-315
-105
57
-260
-293
-11
-164
-279
48
51
-280
-133
74
-182
-138
176
22
-117
199
164
-159
147
349
34
152
435
288
167
438
590
364
510
777
604
655
864
665
567
825
785
487
566
669
343
206
336
128
-52
152
-5
-356
-162
-51
-344
-306
-68
-317
-498
-218
-234
-452
-260
-136
-466
-441
-127
-307
-406
-142
-179
-389
-210
-101
-357
-309
-2
-165
-363
-138
-232
-472
-193
-29
-356
-299
-37
-278
-414
-148
-179
-414
-218
-120
-371
-357
-149
-279
-392
-124
-199
-450
-298
-208
-384
-395
-111
-220
-446
-142
-160
-534
-348
-56
-290
-276
-26
-229
-269
47
-14
-263
-89
149
-50
-147
80
-69
-223
15
-137
-425
-218
-174
-467
-418
-156
-293
-481
-285
-321
-502
-268
-199
-437
-311
139
605
1382
2304
2347
1198
20
-537
-795
-525
-137
-358
-540
-216
-178
-494
-331
-140
-390
-338
-112
-274
-393
-190
-231
-485
-297
-52
-314
-371
-22
-171
-332
-42
-83
-317
-135
4
-216
-158
74
-87
-236
13
75
-110
51
247
141
228
474
324
231
591
616
411
664
806
545
660
885
586
544
845
618
250
409
453
69
13
206
-73
-269
32
-43
-322
-108
-37
-412
-384
-54
-271
-459
-119
-121
-462
-297
-135
-458
-387
-67
-238
-371
-125
-155
-423
-212
-12
-295
-286
-51
-248
-323
-19
-94
-405
-131
91
-279
-308
-47
-247
-379
-48
-52
-328
-120
-37
-410
-331
11
-232
-378
40
23
-354
-175
19
-253
-217
29
-176
-342
-54
-43
-328
-134
-8
-363
-272
31
-209
-321
-41
-22
-162
59
134
-86
-25
188
106
-5
214
224
29
164
239
-111
-180
100
-111
-239
33
-117
-367
-173
-72
-395
-351
16
-151
-328
-40
-73
-304
197
1032
1613
2379
2683
1378
-166
-497
-466
-499
-187
15
-295
-333
-39
-193
-303
-61
-143
-377
-186
-28
-232
-221
-62
-198
-276
13
-5
-305
-122
29
-195
-136
107
-66
-160
162
81
-187
54
206
1
66
280
110
49
432
470
217
401
603
443
524
844
725
596
864
849
628
813
994
693
575
782
522
297
559
372
-16
176
270
-93
-136
107
-111
-284
-15
-133
-405
-146
-71
-348
-221
-16
-250
-359
-76
-106
-353
-158
-31
-268
-212
-11
-201
-324
-61
-77
-353
-166
18
-247
-195
57
-153
-302
-59
-67
-303
-105
76
-233
-228
48
-157
-305
-35
-49
-303
-179
-35
-219
-150
78
-174
-385
-82
-22
-313
-118
63
-260
-178
77
-193
-307
-35
-48
-208
-51
35
-143
-30
232
46
-124
119
135
40
303
342
47
111
252
-52
-170
124
7
-324
-163
-32
-285
-258
-12
-240
-374
-75
-185
-356
60
85
-259
423
1608
2113
2354
2137
750
-584
-645
-288
-305
-224
-50
-249
-288
40
-64
-375
-116
78
-296
-300
106
-38
-260
23
32
-255
-112
57
-134
-80
82
-99
-112
160
137
-80
51
211
-29
39
354
140
48
362
287
67
411
629
351
443
733
561
486
860
878
597
869
1064
755
749
880
685
580
761
634
319
410
393
21
32
260
-30
-250
55
36
-272
-107
54
-225
-294
-52
-140
-282
-62
-106
-334
-148
-84
-349
-242
43
-122
-316
-70
-39
-288
-37
126
-211
-192
80
-129
-295
34
-15
-309
-153
-60
-249
-145
93
-132
-294
-20
-58
-311
-58
89
-265
-189
75
-196
-292
-5
-78
-369
-179
49
-202
-237
20
-134
-218
121
117
-103
71
196
-27
50
280
95
17
254
95
-170
24
56
-207
-161
20
-181
-355
-124
-148
-389
-169
-19
-273
-260
-56
-187
-226
353
1037
1561
2168
2050
704
-441
-639
-702
-542
-108
-184
-384
-134
-56
-315
-256
-20
-167
-318
-131
-168
-309
-57
6
-231
-163
-1
-148
-223
16
-20
-254
-43
79
-204
-92
158
-71
-150
121
104
-45
188
316
41
109
454
284
151
517
529
355
612
709
499
639
885
663
562
845
736
469
622
653
298
222
400
103
-145
106
-40
-362
-113
-43
-370
-309
-120
-308
-403
-163
-260
-571
-252
-113
-511
-375
-84
-345
-515
-203
-170
-394
-217
-100
-432
-378
14
-228
-423
-52
-122
-484
-233
-54
-373
-335
-124
-319
-402
-206
-336
-473
-184
-140
-428
-333
-130
-399
-430
-86
-213
-459
-231
-147
-458
-405
-119
-246
-338
-123
-162
-312
-124
-1
-168
-100
106
-23
-115
121
5
-291
-123
-111
-390
-333
-154
-339
-496
-229
-242
-529
-363
-292
-478
-362
-194
-354
-425
72
658
1205
2115
2355
1154
-147
-702
-897
-687
-215
-239
-547
-341
-167
-488
-482
-166
-326
-513
-237
-234
-477
-240
-110
-476
-463
-112
-280
-431
-95
-141
-407
-164
-54
-358
-281
-33
-219
-230
95
-10
-256
-24
170
-24
-2
276
219
159
439
440
239
537
754
469
551
817
593
525
848
761
451
628
684
287
209
354
98
-82
137
-11
-321
-131
-28
-305
-290
-161
-394
-415
-110
-204
-465
-277
-162
-434
-401
-122
-307
-418
-117
-223
-473
-222
-112
-399
-307
-69
-338
-428
-116
-163
-336
-128
-59
-389
-332
-53
-233
-329
-117
-175
-339
-136
-101
-432
-294
-26
-309
-344
-18
-142
-457
-276
-39
-272
-276
-58
-279
-318
-85
-208
-341
-121
-60
-333
-263
0
-217
-359
-78
-109
-244
7
53
-168
-86
208
99
-48
247
187
-93
87
149
-182
-182
50
-190
-358
-59
-124
-381
-230
-207
-372
-223
-69
-283
-342
-42
-72
-138
803
1887
2196
2422
1861
78
-860
-392
-158
-357
-186
-110
-399
-281
-3
-255
-395
-74
-106
-386
-162
-16
-336
-278
-14
-247
-367
-18
-73
-330
-70
3
-312
-201
97
-67
-183
56
38
-143
38
164
-64
-14
275
117
40
419
444
247
463
606
449
573
829
664
593
943
886
602
812
867
531
568
702
397
264
483
290
-57
80
135
-188
-155
108
-137
-305
-47
-116
-323
-160
-104
-358
-279
-24
-252
-308
-2
-152
-421
-206
-126
-387
-264
-55
-306
-354
-84
-165
-335
-117
-39
-354
-273
39
-188
-317
21
-80
-422
-180
-5
-275
-205
14
-245
-362
-84
-231
-423
-29
41
-347
-214
25
-314
-371
-4
-100
-324
-111
-35
-294
-225
-40
-247
-278
-38
-165
-383
-134
13
-312
-242
74
-158
-315
39
104
-159
67
200
-105
30
241
11
-12
227
155
-43
60
77
-209
-187
25
-241
-363
25
-62
-351
-112
-85
-422
-302
-51
-224
-271
8
333
967
2012
2624
2174
1060
-53
-741
-599
-26
-116
-458
-177
-3
-357
-318
-38
-264
-350
-24
-69
-326
-213
-71
-265
-248
-40
-195
-209
61
18
-227
-65
59
-178
-47
184
-58
-151
133
96
-74
108
168
-3
172
431
248
195
543
477
244
550
759
597
681
898
788
725
927
847
605
789
909
538
472
652
307
136
355
176
-87
20
82
-115
-65
144
-74
-241
-35
-92
-322
-101
84
-216
-225
-24
-207
-358
-123
-40
-260
-100
-14
-286
-171
51
-195
-293
16
-50
-282
-91
32
-164
-139
11
-214
-297
64
9
-255
-54
-13
-282
-141
103
-117
-229
41
-26
-322
-91
17
-313
-174
83
-169
-276
63
11
-319
-100
38
-244
-171
50
-142
-223
39
19
-164
76
190
-117
-16
289
73
3
386
250
-46
174
145
-132
12
177
-119
-301
-67
-82
-302
-133
-79
-359
-218
2
-291
-303
132
-36
-243
642
1589
1862
2139
1740
217
-759
-618
-469
-424
-116
-65
-307
-209
-18
-234
-308
-1
-82
-353
-113
-32
-275
-119
85
-168
-281
22
-61
-250
-1
-1
-217
-68
148
-36
-129
163
115
-80
162
224
-5
117
354
198
163
417
304
235
545
646
510
632
850
694
616
909
865
599
827
918
556
585
719
359
220
372
105
-62
173
125
-155
-126
35
-200
-321
-37
-158
-380
-165
-122
-401
-294
-43
-302
-417
-153
-198
-383
-161
-45
-329
-277
-64
-267
-282
17
-81
-331
-161
-48
-316
-292
14
-165
-324
-49
-152
-422
-200
-96
-323
-196
-6
-312
-370
-3
-126
-379
-135
-74
-357
-302
-123
-270
-316
-103
-226
-431
-133
-59
-400
-306
-114
-309
-268
29
-73
-276
-35
40
-186
-5
204
2
-70
86
-46
-203
18
41
-315
-308
-60
-274
-428
-199
-273
-468
-237
-187
-462
-363
-207
-404
-419
-80
279
953
1902
2276
1674
587
-321
-925
-804
-193
-221
-506
-317
-230
-520
-461
-152
-384
-526
-143
-149
-441
-279
-181
-429
-315
-87
-283
-363
-111
-163
-407
-181
-65
-317
-224
-85
-242
-187
88
-31
-216
38
113
-72
66
271
97
46
388
382
155
399
579
435
613
816
578
539
859
793
518
671
685
281
321
511
151
-17
163
-61
-350
-147
-6
-262
-270
-119
-331
-371
-128
-260
-502
-273
-136
-442
-412
-128
-332
-477
-212
-307
-508
-171
-90
-518
-350
42
-232
-342
-92
-236
-413
-119
-36
-364
-282
-48
-325
-424
-86
-167
-467
-207
-25
-349
-280
-24
-277
-334
-75
-217
-388
-110
-69
-396
-240
22
-284
-379
-47
-156
-417
-185
-78
-291
-181
-22
-272
-334
-48
-141
-401
-112
55
-305
-281
-47
-279
-329
-5
-51
-248
-25
86
-129
-36
191
27
-87
187
201
-48
133
223
-152
-178
70
-134
-360
-82
-86
-379
-165
-68
-378
-316
-125
-354
-396
-22
-73
-304
265
1211
1805
2361
2480
1133
-376
-562
-394
-405
-133
-71
-358
-310
-117
-277
-390
-136
-196
-439
-219
-107
-367
-299
-44
-250
-353
-19
-84
-360
-121
43
-220
-192
52
-91
-182
41
-74
-230
118
203
-91
24
280
107
32
332
325
149
410
556
330
462
779
631
557
822
761
595
839
884
545
615
781
457
286
454
293
1
166
228
-125
-102
28
-239
-238
-50
-188
-297
-91
-58
-386
-314
-62
-324
-399
-94
-205
-419
-153
-93
-403
-303
-29
-233
-380
-138
-153
-348
-135
-51
-406
-267
5
-297
-284
6
-172
-335
-129
-72
-301
-216
15
-238
-396
-60
-18
-314
-181
-74
-399
-276
73
-208
-339
-29
-138
-315
-73
-30
-312
-230
27
-204
-373
-71
-75
-369
-226
-14
-216
-213
3
-241
-354
-12
-72
-289
-63
-10
-289
-237
-37
-245
-302
25
-4
-180
47
169
-77
-84
135
70
21
269
216
-46
102
161
-127
-94
107
-120
-254
-50
-141
-287
-107
-76
-347
-263
5
-265
-397
9
-55
-260
556
1623
2114
2558
2178
530
-545
-475
-293
-310
-126
-83
-423
-279
31
-227
-359
-89
-113
-373
-163
-12
-297
-203
53
-153
-220
57
-71
-315
-98
43
-135
-75
105
-104
-232
72
134
-77
88
176
-81
64
329
164
92
323
346
215
445
605
400
557
828
628
625
875
824
669
857
936
570
553
728
474
283
439
319
28
192
172
-176
-52
81
-216
-229
37
-148
-379
-105
-55
-328
-217
-39
-277
-350
-29
-104
-376
-174
-159
-404
-158
85
-247
-374
17
-21
-259
-79
-22
-270
-235
10
-137
-248
-20
-124
-393
-147
5
-264
-118
89
-266
-268
85
-88
-297
-63
-31
-277
-158
-6
-270
-342
-38
-84
-302
-75
47
-197
-171
13
-215
-291
24
-103
-350
-76
-9
-310
-170
65
-157
-221
19
-115
-311
-3
100
-189
-94
128
-87
-102
234
108
-122
206
330
4
89
336
68
-103
132
102
-97
32
47
-219
-150
48
-168
-285
-62
-158
-340
-30
51
-249
-171
52
357
1191
2223
2495
1774
663
-311
-770
-517
-98
-212
-264
24
-54
-330
-201
18
-164
-169
32
-137
-199
71
-34
-311
-55
83
-186
-115
98
-129
-231
115
105
-99
132
131
-153
23
204
46
37
304
284
8
209
397
182
304
558
390
391
701
651
492
692
890
700
660
944
735
603
916
760
427
566
587
185
190
358
55
-57
82
-85
-213
8
-48
-400
-177
90
-226
-302
-33
-132
-353
-112
-34
-330
-210
-8
-245
-311
-3
-70
-267
7
15
-269
-127
90
-143
-273
37
-23
-356
-128
93
-169
-203
-2
-165
-243
68
-58
-358
-59
55
-298
-215
15
-224
-301
3
-46
-295
-83
34
-225
-215
-24
-157
-265
20
-51
-359
-138
-28
-323
-191
73
-194
-287
-8
-71
-240
9
77
-201
-39
219
-39
-142
197
197
-43
163
223
-84
-10
162
-102
-139
109
-139
-383
-95
-11
-304
-284
-79
-271
-355
-43
-78
-249
-79
135
518
1355
2079
2011
1204
190
-621
-899
-464
-150
-311
-270
-128
-245
-264
7
-94
-392
-147
-7
-276
-190
31
-134
-179
2
-109
-284
-54
90
-188
-135
102
-121
-138
137
-6
-237
62
281
-5
12
313
150
13
338
328
121
386
539
349
435
615
501
505
754
730
560
754
832
554
627
818
519
361
578
400
63
192
216
-174
-216
55
-118
-290
-53
-178
-498
-248
-116
-429
-287
-57
-325
-364
-106
-239
-406
-154
-76
-375
-297
-17
-231
-307
-30
-136
-364
-158
-48
-264
-174
15
-209
-309
-108
-170
-312
-116
-107
-368
-218
-28
-288
-379
-115
-145
-306
-123
-98
-342
-260
-114
-287
-320
-72
-197
-427
-90
-43
-461
-313
-40
-255
-316
-104
-183
-290
-8
47
-246
-153
95
-90
-123
194
76
-177
93
159
-155
-56
90
-263
-398
-51
-95
-350
-162
-146
-452
-343
-108
-338
-450
-157
-180
-405
-186
183
625
1598
2486
2250
1103
-33
-709
-741
-281
-137
-413
-378
-152
-289
-365
-143
-294
-438
-84
-58
-350
-286
-128
-267
-285
-29
-101
-312
-110
10
-304
-252
63
-158
-237
59
14
-160
23
88
-142
11
250
28
-19
362
319
78
391
521
304
444
652
515
496
751
705
610
826
839
602
628
729
544
438
582
374
29
188
202
-128
-55
138
-149
-291
-7
-93
-340
-164
-127
-322
-180
-26
-345
-411
-60
-177
-371
-112
-74
-367
-270
57
-115
-308
-103
-180
-306
-5
28
-255
-162
-26
-276
-286
53
-77
-357
-81
11
-277
-165
48
-183
-330
-75
-87
-287
-60
27
-316
-257
15
-215
-313
26
-58
-341
-91
18
-265
-146
24
-256
-283
55
-63
-367
-120
43
-186
-83
172
-7
-41
209
52
-106
216
327
53
113
255
17
-53
128
-13
-232
-76
-19
-270
-202
0
-249
-343
-17
-106
-377
-144
-27
-313
-224
404
1014
1766
2620
2458
1130
-34
-458
-571
-311
-21
-208
-284
-105
-211
-333
-87
-50
-300
-175
5
-227
-250
63
-74
-328
-40
65
-226
-125
95
-119
-182
88
-17
-227
97
235
-78
-2
232
-31
-53
366
256
17
313
442
174
287
604
457
445
735
673
575
803
889
697
727
906
758
633
833
710
358
464
511
175
205
374
58
-128
54
-5
-178
-1
37
-244
-145
29
-231
-371
-90
-70
-305
-106
-7
-258
-168
12
-223
-259
33
-77
-287
-34
70
-212
-162
27
-170
-233
18
-111
-318
-10
85
-249
-150
81
-176
-235
58
-12
-281
-131
34
-210
-186
22
-186
-246
10
-84
-296
-152
-48
-207
-141
47
-126
-159
78
-79
-275
-12
8
-279
-108
144
-61
-106
159
52
-85
194
307
145
161
317
146
-34
148
82
-160
-4
59
-258
-204
2
-280
-363
-17
-151
-471
-137
5
-275
-155
85
367
1190
2237
2596
1978
801
-292
-763
-496
-105
-207
-250
-9
-164
-351
-68
-39
-320
-168
14
-259
-282
31
-101
-318
-43
62
-194
-101
87
-145
-208
101
56
-183
44
175
-59
29
238
60
29
268
168
97
377
443
224
301
531
350
375
787
743
589
847
883
638
797
1034
786
639
890
772
433
564
612
226
227
442
70
-165
146
146
-125
14
74
-279
-260
29
-122
-214
71
-9
-344
-192
21
-230
-159
104
-183
-276
38
-24
-192
24
58
-211
-129
77
-75
-135
87
-78
-300
26
121
-164
-114
71
-108
-235
26
38
-192
-1
50
-241
-139
36
-154
-192
-17
-133
-242
8
69
-269
-205
126
-126
-288
47
-3
-231
-10
72
-176
-81
142
-39
-103
186
148
-18
220
258
-12
126
335
95
-46
147
75
-134
-7
3
-261
-226
24
-188
-367
-69
-75
-298
-157
-79
-244
-167
164
586
1306
2143
2240
1301
152
-546
-921
-638
-54
-197
-332
-7
-97
-342
-86
2
-270
-230
-58
-183
-251
5
18
-216
-87
-18
-248
-147
116
-49
-224
100
95
-233
40
214
-93
-33
182
23
-3
259
269
102
252
447
261
279
551
391
422
816
668
454
795
896
595
722
950
662
530
773
618
347
527
522
135
100
208
-106
-176
140
21
-264
-97
-46
-338
-254
-23
-242
-334
-83
-148
-345
-131
-58
-310
-224
-63
-195
-274
-39
-17
-282
-60
81
-241
-145
70
-209
-286
-1
-118
-319
-62
-27
-323
-195
-31
-279
-315
-15
-71
-354
-147
-18
-292
-264
-64
-222
-301
-67
-162
-341
-108
8
-260
-245
44
-91
-175
77
13
-96
132
152
-96
-3
265
-1
-223
49
-66
-339
-105
-74
-429
-316
-16
-272
-453
-157
-227
-493
-233
-104
-324
-277
123
593
1170
1989
2096
1018
-76
-695
-940
-546
-163
-371
-426
-187
-257
-372
-243
-229
-382
-253
-32
-256
-374
-69
-164
-436
-171
-38
-357
-342
15
-102
-324
-80
-87
-304
-117
-9
-224
-119
95
-88
-131
164
131
-75
190
329
79
130
376
367
368
630
549
303
588
729
480
593
823
588
389
527
441
225
315
281
-83
-78
135
-136
-323
-95
-209
-508
-294
-166
-458
-417
-165
-375
-567
-244
-219
-493
-222
-106
-521
-417
-29
-285
-458
-153
-183
-358
-159
-107
-367
-305
-127
-336
-434
-138
-111
-337
-179
-128
-402
-283
-62
-250
-387
-159
-122
-361
-283
-151
-315
-291
-109
-279
-442
-157
-149
-430
-180
-18
-369
-331
-65
-325
-401
-81
-146
-278
-36
-10
-230
-73
147
-43
-132
146
111
-105
106
152
-205
-175
3
-224
-269
-31
-190
-452
-224
-139
-436
-363
-136
-379
-482
-89
-100
-415
15
889
1537
2170
2414
1336
-137
-560
-527
-507
-218
-162
-406
-343
-179
-336
-377
-102
-200
-506
-252
-52
-332
-299
-68
-244
-323
-73
-151
-346
-124
-33
-312
-242
93
-99
-256
48
7
-198
-66
42
-48
65
255
35
-66
294
350
150
359
498
308
527
806
521
494
857
762
511
705
822
557
603
740
373
206
399
230
-34
97
124
-196
-213
68
-136
-321
-71
-164
-413
-175
-67
-394
-311
-31
-267
-416
-106
-156
-442
-206
-80
-425
-322
50
-209
-386
-23
-149
-419
-90
-17
-326
-218
0
-275
-361
-62
-125
-300
-92
-94
-412
-262
21
-229
-371
-74
-130
-346
-86
-51
-360
-246
-14
-218
-371
-95
-149
-422
-156
-26
-319
-240
-8
-234
-311
-39
-137
-352
-122
-63
-350
-175
96
-142
-242
60
81
-130
86
231
-24
38
261
75
-86
85
7
-253
-71
22
-325
-306
-103
-322
-365
-60
-180
-429
-184
-118
-346
-189
23
90
757
1881
2416
2176
1295
10
-820
-689
-163
-223
-340
-43
-181
-421
-154
-34
-319
-288
-27
-208
-305
-23
-125
-376
-159
-16
-264
-217
23
-223
-307
32
-26
-225
18
145
-116
-82
119
-45
-54
239
159
-58
226
421
141
241
526
347
343
616
584
513
741
832
622
735
928
689
657
910
733
397
594
675
252
240
412
71
-68
179
37
-211
-2
42
-268
-181
46
-194
-285
5
-90
-351
-99
16
-306
-180
85
-188
-285
39
-47
-300
-69
16
-192
-141
4
-116
-186
89
26
-247
-21
43
-234
-127
135
-74
-264
54
82
-217
-53
82
-198
-157
67
-134
-201
31
-103
-268
-19
4
-224
-75
143
-108
-208
113
-9
-323
-113
60
-177
-128
109
-119
-278
6
-25
-256
-26
80
-200
-119
176
26
-58
302
289
28
236
269
-83
82
324
-26
-112
169
4
-262
-35
16
-332
-264
33
-170
-395
-147
-132
-312
9
62
-224
402
1495
1908
2133
2010
621
-686
-735
-458
-402
-210
10
-176
-324
-126
-137
-271
-62
45
-248
-213
30
-163
-240
44
-13
-201
-20
-29
-286
-121
124
-46
-118
120
5
-231
88
262
-2
63
286
49
16
357
285
67
336
538
301
390
614
449
494
830
727
524
853
972
624
694
922
619
460
688
515
206
339
306
-24
-24
107
-50
-175
49
-16
-299
-152
-131
-356
-202
11
-232
-330
-99
-175
-325
-120
-74
-345
-244
7
-167
-233
21
-128
-399
-144
44
-134
-127
11
-144
-198
54
-50
-331
-97
-22
-362
-243
45
-172
-275
-14
-119
-366
-129
0
-291
-283
-72
-212
-274
-44
-148
-328
-49
-65
-414
-205
58
-223
-294
-7
-96
-289
-5
68
-217
-39
181
-26
-31
186
67
-105
90
169
-170
-148
138
-107
-300
-100
-183
-395
-184
-111
-417
-340
-80
-310
-457
-144
-114
-366
7
733
1153
1880
2387
1289
-157
-551
-688
-691
-223
-111
-404
-325
-151
-364
-423
-99
-146
-369
-192
-122
-381
-345
-71
-206
-309
-79
-158
-323
-124
-63
-307
-244
4
-154
-268
27
12
-213
20
120
-149
-6
231
42
40
312
299
139
351
484
271
465
743
536
489
778
748
560
740
788
511
535
658
375
223
389
209
-126
6
89
-258
-278
-45
-242
-366
-116
-212
-455
-242
-180
-486
-407
-128
-394
-487
-144
-238
-462
-232
-98
-383
-309
-63
-265
-349
-86
-166
-442
-185
-38
-332
-278
-79
-319
-357
7
-125
-408
-140
-61
-369
-293
-61
-288
-418
-111
-167
-431
-236
-148
-331
-213
-94
-343
-351
-83
-253
-423
-132
-67
-342
-324
-135
-305
-398
-112
-178
-451
-222
-95
-317
-238
-79
-227
-231
58
-41
-287
-12
176
-101
-33
256
0
-149
179
11
-342
-84
39
-276
-255
-116
-369
-342
-86
-268
-459
-219
-171
-427
-286
-3
-172
-77
877
1774
2229
2465
1594
-131
-761
-373
-354
-358
-69
-186
-437
-265
-117
-311
-263
-32
-290
-455
-56
-71
-377
-126
-42
-348
-206
15
-232
-273
-2
-103
-252
-54
-59
-230
-66
101
-62
-63
229
114
-117
170
268
22
175
432
230
198
556
527
394
719
771
475
596
846
769
696
838
711
468
641
621
268
299
415
154
13
139
-41
-262
-2
64
-290
-262
-71
-243
-228
1
-207
-459
-189
-62
-355
-244
27
-302
-401
-46
-161
-377
-114
-65
-386
-331
-90
-193
-194
44
-101
-389
-214
-59
-221
-148
-10
-237
-314
-19
-99
-349
-144
-135
-375
-226
-49
-224
-262
-68
-184
-368
-129
-60
-306
-190
-26
-246
-317
-35
-99
-350
-154
-84
-333
-189
56
-195
-340
-82
-108
-288
-72
-22
-309
-205
26
-183
-275
-26
-74
-176
116
131
-187
-10
312
65
1
358
219
-63
171
223
-98
-24
138
-249
-374
50
-45
-336
-82
-45
-383
-253
15
-260
-379
-12
-48
-236
474
1499
2022
2506
2352
769
-502
-493
-410
-384
-60
10
-275
-279
-63
-241
-309
-9
-122
-332
-67
-10
-288
-163
15
-173
-239
-19
-54
-269
17
123
-182
-63
163
-104
-250
167
171
-131
140
236
-42
102
329
91
32
403
432
256
505
672
435
554
865
686
589
882
828
640
850
899
611
621
790
482
249
449
295
-41
141
276
-60
-99
112
-140
-256
4
-102
-354
-184
-41
-263
-222
-25
-259
-355
-33
-126
-367
-110
-13
-253
-194
-4
-198
-244
45
-81
-330
-96
-7
-276
-132
94
-204
-239
59
-131
-379
-100
38
-245
-200
34
-139
-223
5
-80
-304
-85
-15
-303
-156
62
-194
-271
11
-83
-342
-90
36
-242
-181
16
-172
-234
-49
-107
-243
-66
50
-175
-139
30
-256
-349
23
-13
-253
-65
-15
-214
-67
140
-35
-85
246
149
-104
260
358
-22
95
327
94
74
295
77
-218
-39
15
-273
-116
126
-192
-293
-2
-112
-327
-91
-13
-284
-169
213
477
1244
2306
2513
1739
617
-377
-816
-416
29
-198
-292
7
-98
-273
-36
-15
-264
-90
104
-246
-271
136
8
-203
61
8
-254
-26
170
-52
-123
118
59
-117
111
201
-72
15
264
51
8
300
227
106
348
445
248
356
570
351
394
795
705
515
799
918
698
800
918
631
634
912
729
450
569
549
190
203
344
43
-64
52
-99
-195
4
49
-236
-213
-21
-282
-342
-17
-104
-326
-122
-56
-298
-182
-13
-202
-248
-6
-13
-271
-164
-42
-259
-139
117
-146
-304
-10
-15
-221
-34
-19
-307
-145
81
-173
-252
-6
-90
-306
-120
-6
-355
-320
48
-193
-253
89
-121
-332
-48
-15
-325
-200
52
-200
-258
24
-111
-288
-54
17
-222
-25
262
-20
-55
264
163
-60
167
214
-150
-42
178
-89
-212
-73
-203
-408
-151
-57
-374
-215
10
-352
-395
-29
-115
-317
15
616
1140
1848
2312
1523
110
-570
-771
-773
-282
-46
-348
-308
-70
-235
-307
-58
-155
-385
-131
-56
-319
-193
9
-241
-312
5
-103
-292
12
54
-223
-87
92
-167
-223
61
-29
-115
189
186
-83
61
289
69
44
386
344
211
481
547
304
483
760
553
537
840
756
584
777
771
467
592
748
359
240
501
274
-92
60
35
-278
-108
9
-325
-287
-10
-244
-481
-227
-162
-463
-341
-64
-322
-379
-71
-210
-407
-185
-108
-336
-259
-31
-264
-343
-1
-111
-350
-66
-33
-331
-201
-48
-253
-245
-31
-196
-359
-176
-179
-382
-251
-57
-307
-359
-62
-244
-457
-124
-125
-426
-264
-86
-301
-378
-148
-200
-429
-224
-107
-429
-294
-17
-257
-233
48
-119
-226
100
134
-142
-43
114
-109
-204
21
-74
-321
-254
-321
-474
-305
-173
-382
-376
-172
-371
-537
-264
-209
-426
-280
-5
258
1115
2110
2199
1486
431
-565
-923
-577
-213
-356
-464
-281
-303
-398
-242
-210
-442
-325
-105
-398
-507
-125
-185
-433
-156
-164
-475
-225
-1
-307
-344
2
-135
-360
-94
-68
-272
-63
67
-242
-167
215
34
-165
215
277
-4
181
407
227
289
646
534
369
646
722
516
644
830
516
460
788
565
244
399
333
14
97
177
-135
-240
-51
-199
-411
-221
-142
-340
-265
-152
-452
-493
-166
-236
-434
-247
-188
-420
-350
-116
-277
-377
-123
-294
-510
-131
-52
-389
-229
-11
-336
-339
-14
-188
-368
-116
-108
-355
-231
-92
-315
-377
-73
-137
-444
-232
-109
-435
-314
27
-253
-372
-95
-225
-428
-207
-140
-394
-268
-113
-321
-306
-100
-260
-437
-181
-159
-439
-285
-86
-323
-314
-56
-201
-351
-52
18
-272
-128
167
-58
-99
185
56
-95
127
129
-161
-91
12
-273
-272
-33
-230
-434
-221
-217
-471
-280
-22
-316
-430
-119
-206
-385
-60
389
995
1957
2605
2134
862
-173
-745
-651
-105
-110
-394
-254
-146
-425
-389
-61
-203
-413
-159
-90
-452
-337
-12
-269
-325
-73
-217
-335
-77
-110
-419
-200
33
-205
-187
44
-71
-217
6
105
-126
-31
201
-37
-7
366
228
112
320
388
348
522
709
535
529
820
722
542
848
854
498
606
768
497
348
516
271
-25
259
227
-182
-118
24
-264
-253
44
-136
-333
-120
-124
-435
-294
-61
-316
-314
-14
-226
-468
-204
-165
-389
-253
-101
-332
-360
-73
-198
-374
-132
-106
-332
-196
6
-241
-273
15
-131
-340
-105
-65
-355
-230
-20
-272
-343
-111
-193
-269
-85
-124
-350
-234
8
-202
-296
-34
-152
-331
-67
-31
-345
-293
-57
-237
-287
17
-113
-351
-85
-39
-302
-91
3
-312
-275
-32
-161
-255
96
112
-191
-5
159
-109
-27
321
176
-15
172
184
-99
-89
83
-114
-205
-35
-228
-401
-100
-85
-431
-307
-82
-334
-333
-99
-218
-317
51
709
1316
2157
2751
1863
301
-392
-595
-603
-178
-58
-373
-269
-79
-361
-401
-95
-207
-414
-118
-20
-363
-247
21
-264
-316
-15
-164
-339
-16
42
-238
-85
71
-196
-188
131
5
-188
141
208
-63
80
238
52
81
401
329
176
511
557
315
606
833
575
646
887
688
609
935
865
524
759
899
467
349
555
341
53
168
170
-89
-27
120
-170
-217
-29
-235
-326
-92
-146
-352
-123
35
-252
-276
-24
-244
-446
-68
21
-347
-290
-60
-295
-286
59
-81
-259
6
-5
-297
-144
3
-229
-200
18
-139
-298
-49
-17
-315
-211
-4
-187
-183
25
-147
-291
-5
-59
-369
-116
26
-298
-246
51
-120
-371
-170
-56
-228
-110
34
-184
-248
-46
-124
-311
-78
16
-237
-66
192
-32
-106
140
44
-83
245
251
-84
124
296
-119
-137
153
-125
-367
-126
-43
-239
-182
-45
-317
-402
-139
-243
-384
-76
-29
-343
153
1154
1624
2046
2229
967
-496
-629
-613
-630
-173
-58
-350
-302
-53
-271
-406
-3
5
-320
-130
34
-282
-283
11
-101
-252
6
30
-259
-97
64
-198
-115
167
-26
-204
28
95
-86
106
290
12
23
364
222
80
461
482
200
422
659
477
500
794
726
574
844
879
567
741
969
658
578
751
446
161
360
326
-26
20
133
-136
-179
16
-167
-354
-175
-153
-350
-191
-64
-375
-347
-39
-221
-460
-160
-72
-383
-213
0
-295
-314
-36
-183
-298
-14
-118
-414
-167
15
-263
-277
-38
-170
-318
-87
-87
-404
-279
-38
-268
-361
-93
-193
-378
-104
-120
-434
-236
0
-259
-326
-107
-229
-367
-101
-92
-408
-266
-55
-265
-270
18
-43
-210
-17
73
-78
51
236
-12
-69
202
3
-246
4
-65
-399
-257
-171
-398
-347
-161
-341
-419
-127
-147
-424
-284
-73
-317
-246
508
1131
1687
2296
1736
164
-653
-706
-709
-409
-97
-310
-473
-141
-88
-409
-325
-105
-331
-366
-68
-242
-476
-209
-110
-332
-219
-43
-281
-312
-44
-121
-240
12
7
-268
-79
93
-172
-126
133
-5
-58
244
243
-27
112
346
226
299
568
469
388
658
704
510
719
896
599
593
869
662
464
672
534
164
233
322
26
-21
150
-129
-349
-87
-76
-346
-213
-118
-444
-407
-98
-310
-559
-228
-192
-559
-306
-80
-392
-353
-64
-234
-412
-139
-99
-376
-280
-99
-262
-232
-17
-247
-363
-45
-125
-379
-163
-33
-301
-305
-52
-234
-408
-97
-89
-414
-266
-25
-315
-389
-94
-193
-346
-102
-108
-400
-229
-23
-333
-367
-28
-207
-422
-154
-143
-410
-250
-15
-235
-237
9
-194
-210
108
42
-127
45
226
21
-23
182
24
-120
32
-79
-375
-252
-17
-220
-323
-91
-262
-485
-165
-152
-474
-242
-38
-309
-252
260
740
1470
2395
2406
1249
48
-466
-623
-417
-79
-275
-498
-166
-102
-403
-208
-56
-351
-389
-139
-231
-408
-134
-132
-403
-138
36
-282
-290
-12
-204
-341
35
22
-289
-85
72
-194
-111
171
-57
-166
223
252
-24
150
363
183
242
521
446
343
643
715
483
721
916
638
641
877
724
581
803
721
348
408
471
69
-13
264
36
-198
74
22
-283
-85
9
-371
-333
-36
-227
-373
-110
-127
-413
-210
-33
-391
-423
-50
-103
-322
-130
-104
-340
-195
-53
-320
-279
11
-165
-361
-154
-119
-332
-188
-62
-337
-268
66
-145
-358
-103
-134
-365
-175
-12
-251
-256
-32
-240
-395
-115
-135
-389
-152
28
-290
-293
-24
-215
-398
-80
-103
-408
-200
-33
-297
-259
11
-158
-312
-99
-173
-432
-110
84
-240
-141
136
-87
-170
135
48
-92
202
283
15
1
221
85
-149
-4
-11
-253
-129
-6
-263
-266
-87
-282
-351
-77
-86
-328
-237
-77
-296
-230
443
1076
1801
2637
2359
897
-203
-508
-554
-309
-30
-192
-337
-123
-169
-389
-162
-24
-295
-292
-80
-203
-312
-143
-108
-240
-124
-11
-253
-201
77
-121
-234
38
27
-190
-21
168
-90
-80
187
-2
-78
277
245
0
269
417
139
271
665
536
406
701
744
537
746
985
674
635
947
790
627
787
599
324
471
489
196
119
239
57
-134
49
-42
-345
-117
70
-269
-298
-23
-179
-302
-85
-127
-361
-207
-52
-312
-315
-18
-187
-381
-97
-87
-379
-194
31
-216
-239
-82
-252
-200
82
-75
-304
-97
8
-268
-262
-11
-154
-278
-15
-66
-345
-169
-35
-257
-169
19
-296
-347
41
-19
-289
-179
0
-199
-257
18
-126
-270
24
-27
-317
-176
-8
-204
-163
23
-199
-275
-48
-118
-280
-53
123
-100
-71
209
65
-96
165
184
-20
184
357
85
34
266
34
-100
141
3
-234
-32
111
-195
-225
38
-186
-370
-27
-6
-281
-109
82
-233
-109
838
1517
2015
2549
1833
179
-514
-444
-462
-192
73
-201
-350
-22
-31
-288
-51
109
-207
-207
61
-161
-275
114
57
-207
12
103
-162
-58
222
-10
-153
138
107
-105
109
232
-16
59
333
205
97
272
266
170
436
586
289
392
716
544
494
853
869
641
790
958
758
761
1039
818
542
760
736
382
409
511
173
28
223
62
-115
108
-4
-287
-70
23
-270
-208
-26
-312
-361
28
-18
-295
-119
-39
-272
-191
-49
-243
-271
34
11
-288
-159
18
-237
-208
76
-78
-219
-11
-38
-269
-85
25
-285
-221
36
-188
-360
-62
-42
-320
-167
-62
-285
-175
9
-235
-323
-35
-20
-242
-147
-39
-280
-255
24
-175
-303
17
-44
-304
-43
122
-176
-134
189
62
-11
259
170
-63
151
279
-37
-55
134
-115
-283
-4
-19
-328
-196
-100
-358
-283
-90
-242
-329
-118
-87
-259
-120
210
630
1480
2285
2018
906
-67
-716
-931
-396
-50
-357
-315
-63
-281
-380
-54
-94
-343
-132
-11
-310
-298
-32
-204
-358
-44
44
-200
-65
68
-253
-229
111
4
-181
77
107
-187
17
146
-122
71
371
142
60
375
332
153
387
522
395
523
717
561
548
857
848
566
748
956
658
631
821
564
301
458
396
53
94
166
-117
-168
42
-135
-343
-141
-182
-357
-104
-31
-335
-345
-135
-274
-394
-122
-157
-437
-210
13
-221
-195
-29
-239
-288
-25
-104
-357
-101
82
-235
-238
9
-206
-361
-98
-116
-320
-161
-40
-282
-313
-84
-215
-361
-146
-188
-408
-148
-15
-323
-302
-78
-250
-442
-160
-78
-355
-209
-87
-387
-327
-53
-322
-401
39
-20
-284
-90
49
-126
-50
222
58
-100
168
96
-229
-29
85
-214
-202
-27
-246
-414
-168
-181
-453
-258
-78
-366
-362
-111
-290
-342
-101
-38
372
1445
2259
2222
1659
520
-672
-840
-297
-178
-426
-280
-155
-431
-390
-78
-219
-403
-204
-222
-374
-168
-70
-292
-292
-74
-200
-339
-70
-75
-327
-177
-37
-221
-158
26
-162
-241
35
10
-145
101
173
-124
-3
328
152
47
392
424
161
411
613
409
564
794
662
597
739
698
565
753
793
440
389
542
266
47
249
139
-170
-69
-35
-336
-321
-47
-200
-400
-165
-207
-458
-194
-67
-424
-352
-60
-310
-431
-118
-182
-443
-218
-122
-431
-346
-54
-230
-370
-66
-62
-401
-247
-2
-254
-280
-40
-233
-376
-96
-177
-432
-181
-63
-377
-317
-27
-266
-413
-118
-118
-387
-285
-55
-285
-297
-2
-246
-461
-135
-124
-342
-167
-88
-307
-311
-67
-235
-417
-121
-171
-395
-122
28
-286
-286
2
-194
-299
48
0
-182
65
121
-118
-8
231
68
-31
212
149
-134
-69
22
-184
-162
36
-228
-402
-118
-133
-441
-292
-40
-253
-267
-24
-226
-447
15
700
1395
2319
2694
1759
333
-392
-565
-434
-58
-102
-458
-274
-32
-328
-332
-101
-294
-337
-21
-88
-405
-214
-16
-352
-337
23
-173
-357
-54
-76
-319
-55
80
-288
-248
109
6
-136
150
131
-161
36
207
-7
84
372
212
177
491
378
277
650
746
501
586
805
707
688
886
820
559
665
756
441
389
549
287
11
203
189
-118
-6
39
-328
-289
35
-158
-336
-20
-102
-439
-184
-19
-286
-238
-29
-248
-372
-92
-105
-312
-131
-42
-351
-277
8
-194
-321
-10
-27
-325
-109
28
-253
-234
-61
-215
-283
-12
-41
-289
-119
-15
-328
-268
-21
-281
-355
7
-51
-336
-153
-35
-365
-338
28
-153
-311
-23
-99
-359
-160
-80
-358
-209
53
-241
-367
-21
-68
-382
-244
-11
-201
-249
13
-150
-308
32
47
-192
29
125
-140
12
275
73
4
270
166
-181
38
193
-150
-117
69
-252
-440
-65
-30
-373
-195
-54
-389
-303
-45
-269
-341
-102
3
390
1471
2320
2390
1921
734
-521
-745
-268
-132
-326
-213
-70
-302
-314
-94
-283
-353
-33
-105
-428
-224
28
-239
-257
-22
-152
-223
35
-61
-295
-35
30
-192
-69
146
-53
-152
174
138
-142
134
284
-67
82
459
285
168
446
473
303
580
771
500
624
949
786
687
923
864
608
787
924
597
528
627
379
239
378
226
-57
102
137
-202
-106
123
-177
-314
-41
-94
-301
-139
-49
-263
-214
2
-226
-373
-1
-14
-324
-141
-29
-271
-184
17
-171
-220
-15
-96
-229
-67
-51
-270
-110
117
-144
-259
39
19
-263
-106
53
-252
-254
7
-175
-283
-47
-123
-310
-51
57
-189
-137
48
-199
-311
49
4
-280
-110
-19
-282
-203
49
-139
-269
-20
-70
-285
-21
75
-216
-142
73
-96
-157
157
147
-142
-24
174
76
153
350
119
22
354
253
-108
32
145
-153
-216
-70
-194
-245
-43
-129
-332
-101
29
-269
-263
45
-68
-274
245
1009
1549
2331
2556
1244
-149
-499
-571
-430
-46
-88
-321
-125
5
-275
-194
105
-150
-353
6
47
-283
-109
96
-200
-162
156
-108
-284
93
63
-229
-18
149
-94
-28
280
85
-58
225
200
-46
174
402
140
201
480
280
209
597
724
551
696
823
641
714
973
837
738
984
864
616
751
758
460
396
495
215
90
355
183
-185
-5
101
-203
-186
-7
-190
-282
-12
-81
-368
-160
-29
-298
-218
-25
-275
-256
46
-70
-317
-139
40
-218
-143
78
-174
-235
14
-24
-235
-113
-64
-311
-175
80
-135
-260
-29
-102
-390
-187
10
-276
-193
62
-220
-327
-91
-142
-299
-148
-22
-212
-206
6
-173
-286
-74
-164
-358
-122
57
-254
-209
89
-171
-198
158
67
-138
153
342
53
41
154
-57
-23
230
74
-240
-58
46
-271
-235
-113
-286
-309
-85
-151
-409
-188
-36
-326
-284
-28
-51
417
1532
2154
2041
1429
192
-882
-867
-371
-337
-402
-131
-117
-358
-177
-7
-313
-242
67
-199
-318
-37
-99
-285
-120
-36
-234
-159
13
-162
-215
38
69
-159
-14
183
-105
-65
221
-18
-129
214
254
18
228
427
126
193
571
415
306
646
712
534
742
896
648
701
944
756
623
814
693
424
532
525
120
130
351
51
-133
104
-6
-280
-128
-58
-335
-307
-22
-188
-354
-164
-223
-384
-128
-3
-323
-328
-112
-254
-273
16
-76
-316
-142
-28
-214
-151
51
-186
-288
-31
-124
-388
-167
67
-202
-231
-46
-221
-276
-59
-125
-329
-161
-32
-391
-338
73
-171
-387
-58
-107
-493
-221
49
-307
-301
-25
-245
-420
-105
-59
-332
-112
106
-175
-147
84
-51
-97
177
177
-97
21
165
-98
-157
35
-171
-347
-78
-136
-433
-300
-186
-406
-343
-84
-284
-444
-196
-185
-316
9
649
1210
1954
2517
1677
145
-507
-681
-699
-277
-84
-339
-347
-146
-300
-368
-173
-261
-420
-198
-81
-373
-337
-95
-335
-359
13
-84
-384
-230
-25
-255
-284
-22
-146
-275
-63
-60
-242
-41
91
-214
-100
283
87
-38
285
252
74
397
548
294
475
769
489
363
737
815
550
675
855
544
465
635
415
225
374
301
-60
-8
133
-218
-282
-65
-285
-392
-167
-291
-476
-205
-107
-396
-361
-146
-371
-475
-143
-189
-497
-322
-159
-384
-352
-113
-240
-358
-190
-237
-354
-110
-43
-425
-370
-34
-223
-363
-132
-188
-389
-181
-112
-436
-322
-40
-304
-430
-120
-116
-335
-229
-160
-343
-291
-86
-271
-389
-95
-168
-474
-277
-111
-302
-234
-98
-316
-332
-106
-245
-378
-132
-47
-298
-283
-55
-209
-293
-23
-44
-194
29
133
-121
-33
269
118
-72
113
87
-226
-54
157
-154
-222
-81
-313
-370
-45
-119
-405
-221
-124
-424
-360
-68
-181
-260
86
570
1272
2194
2580
1823
558
-289
-631
-504
-108
-114
-403
-234
-87
-332
-297
-125
-264
-305
-114
-192
-458
-246
11
-299
-333
45
-119
-332
-49
-57
-276
-89
8
-263
-137
173
-42
-177
63
36
-107
99
261
90
128
341
239
201
508
495
266
587
823
522
545
921
806
611
917
906
579
750
833
447
406
548
235
31
196
124
-103
4
51
-238
-182
70
-173
-314
-3
-22
-336
-228
-83
-307
-271
-105
-342
-402
-34
-77
-398
-245
-32
-255
-305
11
-140
-334
-34
-102
-426
-191
-14
-273
-194
-25
-257
-324
-50
-98
-324
-167
-137
-307
-157
29
-197
-340
-161
-211
-284
-58
-17
-345
-316
-23
-225
-350
-11
-105
-359
-83
-6
-289
-242
-14
-160
-289
-63
-66
-276
-129
-25
-319
-270
73
-130
-288
2
-38
-188
56
137
-60
30
242
95
12
225
132
-50
95
190
-17
-79
103
-84
-251
-10
-103
-376
-136
4
-322
-295
4
-207
-400
-112
-122
-144
717
1735
2141
2430
2091
481
-668
-449
-241
-379
-131
0
-336
-310
-54
-221
-348
-117
-139
-399
-232
-5
-188
-165
101
-73
-259
-9
-40
-284
-43
72
-250
-153
165
-1
-106
93
-6
-106
104
241
53
71
394
187
43
445
485
260
482
691
467
544
865
726
610
854
906
729
855
995
677
589
788
529
265
463
335
-43
96
149
-193
-149
126
-106
-303
20
24
-292
-107
39
-280
-278
-40
-235
-319
-49
-120
-319
-179
-109
-302
-221
-5
-178
-294
-55
-59
-326
-128
83
-246
-249
79
-94
-248
2
-116
-338
-94
-2
-219
-163
-7
-218
-285
26
-38
-303
-56
56
-279
-218
27
-121
-217
-38
-106
-293
-77
37
-236
-198
64
-103
-201
29
-62
-164
41
118
15
50
180
49
46
386
355
71
181
260
9
49
265
20
-246
-5
59
-204
-36
16
-331
-153
126
-145
-272
-36
-3
-205
-33
520
1046
1789
2497
2114
765
-195
-554
-633
-195
44
-236
-185
61
-98
-237
8
-34
-309
-110
75
-210
-190
143
-58
-160
169
18
-283
-22
162
-91
-86
135
-31
-144
187
231
-60
111
329
50
119
476
249
98
447
424
203
527
676
360
525
861
685
619
939
965
715
855
930
608
686
918
603
370
504
365
93
181
215
-139
-153
43
-184
-217
56
-80
-315
-138
-55
-277
-289
-53
-139
-275
-60
-105
-333
-183
-37
-248
-291
-27
-107
-238
32
22
-220
-102
-20
-256
-158
148
-80
-294
-55
-80
-339
-153
18
-242
-211
21
-191
-328
-16
-61
-402
-191
42
-235
-263
-5
-180
-312
-34
-73
-311
-140
2
-187
-122
110
-72
-187
101
91
-95
99
227
53
67
267
19
-239
1
-26
-263
-94
2
-304
-298
-101
-287
-371
-143
-162
-383
-216
-37
-239
-196
323
852
1459
2246
2063
669
-347
-614
-789
-497
-51
-304
-449
-139
-136
-348
-199
-66
-290
-231
-43
-245
-359
-99
-89
-286
-127
-39
-274
-203
53
-97
-193
76
41
-228
-63
115
-141
-103
217
31
-86
233
185
-10
263
418
142
233
585
431
269
679
812
543
738
919
623
612
879
656
465
679
564
257
343
387
7
-107
79
-147
-312
-33
-91
-388
-268
-128
-374
-388
-122
-295
-449
-174
-169
-441
-281
-117
-386
-392
-99
-200
-377
-156
-216
-492
-203
2
-336
-335
-96
-204
-285
-101
-147
-408
-211
-104
-416
-266
24
-249
-421
-142
-137
-373
-214
-72
-369
-367
-35
-222
-417
-173
-194
-423
-266
-77
-299
-316
-82
-259
-431
-134
-15
-210
-93
69
-175
-171
209
91
-121
79
26
-210
-66
64
-223
-246
-67
-364
-525
-221
-259
-516
-289
-139
-419
-380
-187
-357
-371
-138
6
462
1549
2351
2152
1367
283
-698
-815
-348
-303
-504
-268
-99
-381
-410
-196
-326
-434
-207
-196
-435
-337
-159
-329
-324
-135
-378
-500
-64
-10
-287
-138
-16
-287
-269
48
-151
-302
-10
-30
-202
-20
144
-65
-50
269
174
30
362
488
247
400
690
496
513
853
661
539
855
788
521
654
755
473
397
493
223
10
191
118
-181
-63
32
-241
-276
-34
-203
-341
-57
-146
-423
-272
-148
-396
-345
-65
-309
-505
-189
-124
-421
-268
6
-277
-342
-75
-248
-376
-123
-191
-379
-129
-9
-327
-354
-88
-225
-390
-106
-90
-392
-210
-34
-325
-289
-3
-205
-347
-78
-158
-434
-195
-36
-343
-322
-12
-172
-386
-119
-142
-429
-220
-4
-241
-265
-49
-221
-346
-113
-108
-316
-190
8
-132
-151
56
-45
-168
101
135
-90
130
288
-34
-41
239
32
-200
52
44
-264
-162
-35
-311
-351
-57
-163
-387
-117
-83
-364
-225
-72
-294
-252
415
1136
1843
2623
2417
863
-223
-346
-495
-316
19
-212
-388
-129
-119
-337
-196
-31
-328
-370
12
-130
-387
-99
-41
-279
-148
-10
-227
-233
36
-90
-276
4
75
-187
-51
122
-155
-155
140
97
-30
166
219
44
261
405
126
282
673
499
388
704
765
573
737
923
685
687
916
743
576
812
761
385
425
448
89
55
293
20
-244
70
45
-305
-146
6
-272
-310
-52
-189
-332
-57
-123
-366
-177
-78
-300
-289
-99
-259
-339
-81
-143
-387
-193
23
-263
-281
8
-142
-269
-53
-145
-376
-86
80
-254
-257
28
-209
-424
-114
-80
-344
-173
23
-231
-252
-33
-122
-243
-54
-78
-345
-177
0
-247
-283
-47
-161
-301
-69
-121
-378
-125
104
-187
-243
-2
-132
-280
-108
-100
-258
-129
-36
-256
-187
-1
-181
-308
-105
-76
-290
-86
136
-112
-109
198
94
-75
137
134
-54
184
345
24
1
269
80
-121
100
63
-253
-148
21
-216
-204
49
-162
-391
-96
-9
-352
-210
22
-262
49
1094
1811
2295
2578
1607
-48
-577
-333
-303
-239
-39
-176
-352
-36
9
-311
-146
65
-184
-197
92
-85
-321
-25
36
-271
-72
173
-155
-236
115
120
-107
72
146
-126
68
276
-35
-15
288
179
61
290
273
51
275
521
332
403
720
606
516
785
851
675
808
1003
799
769
1026
839
549
728
695
334
390
506
204
90
268
93
-112
96
26
-307
-91
132
-176
-197
81
-122
-357
-126
-64
-336
-213
84
-174
-272
30
-134
-320
5
5
-340
-153
64
-216
-226
49
-126
-360
-111
-37
-228
-48
106
-205
-259
4
-145
-310
-57
-29
-287
-191
-59
-283
-306
-96
-210
-326
-76
-21
-301
-180
-8
-291
-245
10
-224
-471
-121
-4
-348
-197
-49
-353
-272
127
-3
-230
4
81
-113
25
254
58
-45
146
29
-154
53
46
-329
-259
-46
-292
-354
-70
-222
-488
-195
-120
-393
-282
-66
-224
-350
-30
395
1018
1922
2202
1441
396
-418
-957
-830
-283
-204
-371
-180
-128
-360
-217
-37
-298
-312
-42
-249
-422
-45
6
-348
-249
-5
-221
-279
48
-87
-329
5
47
-277
-86
130
-121
-111
182
-20
-200
224
312
10
194
357
159
292
565
414
282
577
639
457
702
849
601
612
828
758
624
751
656
352
420
427
55
-45
152
32
-162
-28
-48
-363
-276
-62
-361
-389
-76
-327
-544
-184
-147
-456
-329
-102
-363
-448
-163
-210
-336
-145
-112
-329
-254
-74
-278
-346
-67
-155
-346
-128
-99
-384
-316
-92
-277
-355
-73
-232
-464
-148
-108
-400
-302
-143
-354
-389
-116
-193
-404
-258
-207
-389
-279
-125
-386
-481
-166
-207
-394
-171
-187
-399
-214
-118
-293
-205
43
-77
-238
50
113
-199
-144
98
-29
-91
134
-36
-327
-153
-134
-412
-346
-176
-399
-446
-198
-337
-458
-178
-219
-518
-355
-117
-60
589
1674
2179
2106
1419
52
-946
-874
-309
-304
-426
-167
-347
-554
-219
-198
-527
-340
-96
-381
-408
-114
-216
-445
-300
-171
-356
-263
-121
-393
-419
-68
-69
-336
-149
25
-245
-157
59
-204
-185
124
11
-111
143
211
-23
142
415
168
215
637
553
365
659
770
460
535
800
640
585
765
585
324
494
500
55
48
266
-39
-241
-61
-147
-306
-111
-120
-440
-356
-119
-339
-435
-171
-254
-401
-186
-207
-435
-303
-148
-358
-382
-131
-261
-459
-189
-92
-335
-255
-103
-273
-297
-61
-196
-436
-146
-57
-356
-235
-105
-352
-297
-50
-205
-366
-127
-167
-481
-252
-29
-300
-325
-78
-242
-454
-152
-74
-387
-287
-88
-281
-317
-58
-187
-398
-129
-80
-401
-321
-26
-204
-326
-99
-235
-422
-128
-32
-296
-236
6
-104
-149
115
47
-157
93
170
-90
90
291
-40
-71
225
26
-234
-8
43
-316
-246
-7
-278
-394
-112
-136
-347
-141
-81
-364
-222
-18
-53
638
1906
2509
2459
1858
411
-729
-550
-49
-191
-322
-86
-218
-470
-183
-100
-393
-242
-45
-303
-338
-17
-73
-307
-124
-30
-268
-207
-1
-212
-291
48
-5
-205
14
25
-193
-13
126
-152
-91
283
153
-18
244
246
57
281
533
347
337
666
563
428
782
853
621
771
936
714
674
923
698
379
666
678
253
260
341
-9
-102
186
31
-196
31
17
-322
-208
58
-226
-344
-103
-189
-332
-137
-53
-333
-304
-119
-341
-349
-22
-160
-380
-101
-90
-391
-196
16
-238
-264
-33
-173
-355
-103
-3
-272
-195
-10
-267
-327
0
-47
-274
-109
-69
-305
-198
15
-178
-275
-45
-91
-315
-136
-3
-223
-138
-1
-248
-239
19
-67
-283
-72
52
-286
-192
85
-181
-253
28
-113
-350
-42
61
-265
-146
35
-198
-198
71
-32
-180
104
123
-127
75
272
96
102
327
243
33
223
284
-29
16
191
-46
-173
52
-27
-252
5
-63
-455
-129
175
-140
-258
10
12
-218
217
1032
1615
2341
2662
1527
-23
-433
-431
-426
-14
50
-293
-219
59
-86
-190
41
-103
-310
12
102
-197
-109
118
-173
-275
183
108
-179
98
134
-112
50
240
0
-101
176
178
-2
150
278
87
159
415
206
157
535
467
233
547
706
455
658
930
687
647
966
889
660
948
