-39
73
48
-47
111
227
92
56
151
21
-144
-145
-192
-203
-125
-142
-240
-194
-132
-226
-218
-113
-171
-209
-154
-183
-254
-331
-329
0
888
2010
2646
2287
1071
-50
-499
-406
-144
-114
-206
-155
-156
-261
-188
-139
-267
-242
-113
-185
-230
-113
-157
-226
-96
-111
-210
-138
-66
-84
-164
-150
-115
-105
-14
-3
-69
-48
-4
-48
-24
104
60
44
201
219
162
236
379
349
336
488
484
456
614
644
556
645
671
542
477
485
389
234
245
155
-60
-35
16
-141
-217
-74
-107
-260
-192
-156
-262
-224
-133
-240
-294
-191
-196
-268
-212
-165
-241
-216
-156
-234
-247
-147
-157
-262
-172
-99
-233
-196
-95
-198
-245
-115
-119
-262
-188
-96
-208
-180
-100
-216
-232
-79
-132
-255
-177
-108
-165
-211
-163
-154
-240
-233
-156
-206
-220
-164
-252
-256
-159
-231
-247
-164
-223
-258
-187
-161
-219
-223
-127
-116
-156
-80
-54
-148
-72
47
6
-15
29
3
-21
55
39
-155
-235
-211
-312
-281
-178
-294
-314
-203
-281
-354
-263
-215
-264
-244
-211
-317
-426
-380
-83
633
1701
2586
2668
1674
348
-392
-439
-170
-148
-248
-179
-206
-301
-216
-149
-258
-232
-110
-195
-270
-138
-121
-198
-104
-78
-158
-137
-74
-116
-142
-45
-66
-172
-107
-7
-67
-82
17
29
-1
81
161
86
105
257
226
172
319
382
373
501
560
544
605
674
625
587
686
700
566
567
544
380
288
227
116
39
51
-77
-186
-91
-68
-198
-183
-96
-207
-228
-76
-146
-293
-157
-131
-260
-159
-116
-235
-254
-131
-115
-221
-149
-114
-213
-175
-90
-151
-218
-141
-95
-184
-145
-69
-204
-190
-50
-152
-212
-64
-122
-226
-108
-105
-200
-137
-79
-193
-234
-117
-140
-232
-110
-100
-229
-150
-90
-179
-236
-151
-85
-187
-181
-106
-208
-221
-101
-183
-263
-143
-166
-265
-145
-40
-123
-101
-7
-74
-105
-1
9
-29
61
84
38
99
112
-111
-326
-223
-193
-336
-216
-139
-276
-306
-255
-296
-288
-190
-281
-378
-243
-192
-431
-505
-164
486
1487
2584
2914
1935
524
-274
-444
-292
-173
-239
-241
-139
-223
-379
-295
-218
-325
-303
-113
-214
-377
-195
-153
-293
-240
-176
-220
-227
-167
-168
-195
-133
-146
-194
-90
-49
-154
-148
-35
-11
-33
69
87
-18
93
221
154
197
362
355
372
523
551
540
637
719
642
639
759
665
544
607
496
220
197
174
17
6
20
-84
-137
-49
-83
-195
-122
-99
-198
-159
-78
-161
-213
-89
-63
-201
-162
-75
-141
-96
-84
-150
-150
-80
-74
-176
-110
-90
-207
-128
-44
-127
-115
-1
-54
-157
-70
-7
-128
-144
-27
-66
-132
-69
-83
-126
-67
-88
-186
-158
-83
-110
-145
-90
-23
-122
-175
-54
-117
-186
-63
-113
-179
-58
-94
-179
-97
-45
-117
-142
-60
-125
-202
-65
-12
-84
-35
43
25
-27
21
65
30
121
177
76
102
154
77
5
-104
-220
-206
-120
-127
-215
-220
-153
-159
-195
-155
-217
-270
-143
-179
-295
-252
-338
-363
214
1257
2280
2913
2530
1009
-218
-360
-206
-181
-145
-51
-110
-271
-206
-181
-259
-132
-126
-273
-206
-132
-210
-201
-122
-128
-209
-179
-79
-155
-142
0
-89
-133
9
-41
-159
-44
55
-71
-64
105
51
-14
131
142
73
200
293
270
363
497
490
467
585
690
607
660
784
608
581
678
484
329
335
273
141
77
24
-93
-126
-93
-194
-256
-83
-117
-301
-214
-135
-203
-282
-235
-204
-229
-129
-146
-263
-227
-139
-225
-284
-178
-226
-279
-182
-194
-268
-174
-89
-190
-180
-111
-188
-240
-172
-114
-190
-221
-176
-228
-228
-135
-165
-210
-133
-189
-268
-160
-172
-262
-175
-139
-249
-257
-171
-193
-245
-166
-119
-221
-245
-159
-211
-287
-147
-110
-267
-229
-139
-221
-238
-130
-150
-205
-151
-128
-135
-81
-16
-98
-117
33
9
-45
93
84
-1
81
107
31
-48
-136
-222
-263
-143
-75
-245
-240
-142
-245
-237
-169
-225
-241
-161
-175
-276
-294
-387
-460
17
1073
2124
2831
2625
1195
-132
-411
-276
-173
-130
-123
-154
-273
-251
-194
-256
-189
-116
-242
-227
-115
-203
-237
-129
-84
-135
-165
-126
-173
-157
-30
-87
-170
-22
20
-119
-22
43
-84
-59
71
56
-12
104
144
83
204
298
251
362
509
454
459
564
583
533
639
747
616
567
662
558
388
377
247
54
47
65
-67
-120
-27
-138
-238
-124
-122
-264
-219
-110
-230
-254
-115
-183
-277
-177
-190
-243
-162
-165
-265
-234
-103
-154
-188
-112
-159
-212
-154
-58
-128
-221
-96
-115
-241
-161
-99
-190
-136
-48
-196
-213
-119
-189
-201
-138
-212
-274
-168
-80
-186
-235
-109
-177
-285
-148
-115
-232
-188
-115
-212
-232
-123
-135
-200
-146
-148
-239
-148
-76
-199
-191
-106
-178
-226
-128
-129
-173
-35
6
-121
-97
37
-4
-15
100
78
42
118
149
54
-37
-103
-177
-253
-172
-91
-213
-205
-119
-197
-201
-109
-156
-224
-189
-170
-268
-333
-380
-400
109
1254
2322
2814
2369
953
-209
-371
-246
-260
-155
-73
-171
-233
-170
-180
-283
-214
-137
-210
-194
-73
-133
-277
-155
-64
-203
-147
-41
-150
-157
-49
-63
-95
-18
-28
-110
-40
57
-7
-30
90
89
32
125
210
174
239
405
323
331
534
497
493
644
636
555
625
713
675
638
645
561
459
414
306
139
75
86
-42
-77
22
-115
-223
-148
-162
-205
-151
-119
-233
-272
-128
-152
-278
-185
-122
-215
-177
-105
-192
-178
-91
-183
-179
-78
-136
-188
-126
-96
-165
-167
-36
-72
-243
-143
-54
-144
-138
-107
-190
-229
-114
-146
-214
-64
-77
-228
-151
-120
-213
-208
-124
-150
-231
-119
-116
-274
-210
-121
-208
-207
-128
-202
-257
-150
-144
-217
-197
-199
-265
-243
-138
-175
-280
-200
-136
-260
-178
-9
-135
-174
-7
-22
-52
80
65
-31
32
136
41
-12
31
-223
-368
-237
-227
-296
-242
-197
-297
-293
-196
-264
-330
-247
-240
-253
-215
-278
-471
-474
192
1273
2334
2941
2282
698
-303
-406
-321
-260
-162
-189
-302
-275
-254
-320
-260
-208
-278
-297
-238
-225
-313
-248
-164
-283
-244
-132
-230
-246
-134
-188
-263
-152
-82
-160
-127
-47
-154
-154
-19
-22
-50
17
68
60
80
181
206
205
341
387
377
489
549
496
532
595
555
547
601
593
430
325
317
102
2
93
-40
-140
-100
-166
-243
-200
-168
-260
-268
-188
-256
-242
-150
-193
-216
-254
-302
-323
-283
-221
-294
-273
-142
-197
-283
-217
-169
-242
-197
-103
-209
-203
-91
-150
-228
-204
-202
-237
-166
-110
-213
-254
-158
-180
-250
-150
-117
-239
-182
-114
-236
-205
-92
-131
-225
-203
-143
-188
-198
-187
-238
-225
-116
-134
-210
-106
-72
-232
-211
-90
-171
-208
-98
-95
-183
-169
-124
-187
-139
27
-40
-124
7
11
-55
62
96
11
103
210
84
43
69
-114
-232
-173
-172
-207
-159
-127
-168
-221
-180
-195
-267
-159
-144
-264
-222
-215
-443
-370
387
1387
2380
3034
2369
750
-221
-340
-265
-186
-117
-102
-199
-247
-183
-238
-251
-145
-224
-237
-120
-173
-216
-129
-83
-160
-166
-95
-135
-190
-85
-5
-134
-134
-59
-129
-57
37
-45
-20
114
84
6
126
230
117
149
323
309
296
480
589
487
549
684
598
613
741
694
664
747
694
557
490
423
302
236
197
66
-50
1
14
-66
-70
-71
-114
-108
-36
-113
-206
-90
-79
-206
-161
-102
-160
-113
-69
-146
-142
-27
-57
-157
-91
-18
-93
-112
-14
-29
-106
-56
-53
-168
-88
-32
-117
-71
-58
-123
-135
-55
-44
-156
-116
-66
-150
-128
-52
-116
-157
-57
-60
-162
-102
-39
-103
-76
-68
-171
-124
-42
-96
-147
-129
-81
-108
-114
-69
-125
-145
-59
-60
-138
-120
-56
-58
2
147
59
-85
37
90
-16
59
180
130
107
189
140
-29
-84
-155
-199
-120
-78
-143
-144
-49
-203
-287
-88
-96
-217
-155
-98
-214
-359
-365
-31
847
2052
2909
2648
1355
105
-439
-418
-189
-73
-126
-121
-141
-259
-186
-142
-232
-156
-122
-158
-118
-132
-181
-157
-72
-53
-135
-136
-26
-49
-87
-7
-43
-119
-16
66
-17
7
76
-23
-20
144
147
68
197
314
238
264
388
446
479
510
547
547
632
677
625
732
761
649
598
649
563
370
371
277
56
32
168
73
-166
-104
-54
-165
-101
-47
-200
-155
-38
-241
-304
-110
-117
-233
-160
-90
-228
-224
-49
-120
-225
-100
-84
-172
-110
-86
-146
-47
-15
-159
-159
-72
-125
-211
-119
-45
-161
-134
-60
-164
-128
-90
-163
-203
-140
-73
-181
-221
-146
-181
-216
-116
-118
-169
-106
-116
-233
-210
-83
-157
-220
-114
-94
-177
-137
-74
-192
-229
-123
-122
-75
46
-14
-92
-33
19
-27
-22
129
142
6
64
99
-80
-165
-135
-233
-250
-64
-175
-366
-212
-180
-287
-214
-185
-281
-220
-123
-266
-384
-345
-233
309
1381
2337
2493
1604
310
-463
-549
-300
-165
-188
-125
-118
-275
-281
-127
-168
-277
-187
-177
-263
-179
-87
-125
-188
-149
-130
-197
-127
-78
-159
-93
-4
-114
-98
33
-37
-101
2
39
-63
53
183
31
90
284
185
145
371
419
298
444
608
509
497
624
622
597
684
658
523
528
542
395
291
249
106
-5
32
62
-87
-183
-93
-145
-197
-117
-177
-240
-123
-116
-275
-201
-90
-215
-219
-96
-161
-267
-150
-149
-249
-101
-62
-184
-138
-69
-124
-127
-91
-124
-173
-132
-82
-135
-117
-31
-113
-202
-121
-144
-266
-179
-69
-155
-180
-115
-179
-227
-107
-153
-297
-159
-96
-250
-227
-86
-144
-234
-145
-172
-257
-176
-102
-150
-224
-145
-115
-191
-78
-14
-89
-96
-41
-39
-68
19
61
24
53
42
-50
-115
-184
-294
-259
-157
-233
-290
-210
-216
-247
-196
-277
-355
-278
-177
-232
-372
-357
-299
85
1040
2087
2683
2299
1011
-122
-469
-323
-145
-184
-156
-82
-267
-287
-135
-180
-256
-208
-145
-196
-190
-119
-207
-234
-115
-142
-180
-91
-79
-92
-22
8
-126
-186
-3
-45
-151
7
34
-57
-7
91
72
78
165
144
151
317
409
327
388
545
499
501
664
675
617
692
687
583
562
580
459
275
230
119
-7
34
17
-121
-140
-45
-160
-237
-128
-204
-254
-125
-161
-301
-233
-166
-279
-303
-227
-250
-269
-180
-208
-291
-148
-79
-246
-249
-139
-155
-191
-132
-123
-191
-116
-62
-180
-214
-125
-150
-181
-84
-113
-255
-228
-114
-171
-217
-112
-121
-201
-106
-107
-206
-121
-74
-191
-199
-33
-78
-244
-156
-60
-154
-181
-93
-123
-161
-45
-34
-161
-130
-92
-151
-52
60
-43
-89
36
15
-17
108
97
29
103
138
65
35
-24
-113
-169
-173
-145
-203
-163
-89
-173
-168
-90
-201
-308
-176
-107
-226
-258
-293
-405
-113
871
2061
2831
2834
1701
209
-321
-237
-196
-180
-119
-149
-226
-146
-158
-269
-221
-163
-228
-213
-157
-232
-248
-145
-137
-212
-169
-114
-171
-150
-72
-74
-104
-59
-66
-165
-115
2
-17
-77
6
75
6
92
164
50
156
302
252
312
456
468
498
617
662
612
652
758
661
590
672
599
402
377
336
112
4
15
-46
-125
-109
-134
-213
-141
-119
-270
-243
-126
-189
-207
-141
-214
-287
-194
-157
-303
-277
-144
-254
-332
-217
-225
-320
-239
-185
-230
-225
-202
-208
-242
-186
-169
-242
-181
-133
-193
-187
-129
-227
-281
-172
-192
-229
-160
-172
-279
-255
-164
-224
-279
-181
-165
-252
-165
-160
-293
-222
-136
-238
-277
-153
-136
-265
-221
-159
-264
-210
-135
-190
-193
-147
-179
-224
-93
-43
-102
-80
-63
-12
-1
-16
8
18
36
71
59
-9
-73
-218
-319
-223
-183
-291
-248
-175
-266
-219
-156
-278
-339
-254
-238
-305
-268
-373
-558
-190
777
1866
2839
3034
1778
210
-307
-245
-306
-229
-62
-205
-330
-188
-197
-341
-278
-199
-231
-200
-155
-220
-236
-116
-143
-238
-122
-41
-163
-175
-93
-143
-163
-70
-90
-123
-7
52
-4
-48
11
25
-2
107
168
135
224
289
263
327
436
442
495
631
610
579
685
751
665
674
744
605
443
432
384
165
52
64
-33
-87
-68
-153
-191
-114
-151
-240
-208
-162
-225
-231
-149
-214
-286
-149
-113
-286
-278
-178
-207
-201
-177
-246
-265
-178
-173
-243
-173
-119
-222
-191
-121
-183
-205
-157
-148
-190
-171
-92
-183
-257
-174
-235
-276
-160
-121
-234
-235
-109
-188
-274
-197
-215
-231
-163
-165
-271
-259
-97
-188
-284
-152
-219
-277
-137
-137
-226
-194
-126
-215
-223
-118
-200
-246
-146
-148
-215
-113
9
-76
-102
10
-74
-64
94
32
-8
135
165
-25
10
34
-250
-282
-156
-196
-239
-192
-158
-223
-224
-108
-189
-323
-177
-160
-277
-200
-268
-498
-237
620
1665
2696
3133
2208
597
-207
-280
-258
-130
-67
-156
-231
-164
-171
-240
-154
-135
-156
-186
-184
-187
-199
-124
-144
-166
-97
-105
-198
-150
-83
-162
-162
-36
-30
-113
-33
19
-49
-1
90
36
-19
105
145
99
227
297
257
319
458
487
475
620
636
533
692
787
678
728
791
658
486
475
378
176
180
175
-7
-50
41
-56
-134
-69
-109
-186
-148
-111
-168
-164
-126
-179
-227
-192
-185
-241
-189
-118
-170
-202
-144
-158
-241
-154
-82
-161
-126
-45
-161
-214
-74
-90
-195
-99
-78
-189
-55
-59
-248
-169
-69
-119
-202
-173
-103
-211
-178
-62
-226
-250
-93
-174
-265
-140
-109
-195
-153
-96
-197
-207
-20
-46
-203
-149
-143
-201
-123
-87
-173
-177
-89
-136
-195
-85
32
-12
-4
29
-109
-12
181
90
38
139
147
36
68
128
-101
-238
-128
-106
-175
-166
-163
-242
-158
-67
-230
-296
-150
-144
-263
-200
-218
-465
-415
3
753
1835
2644
2493
1290
74
-371
-443
-266
-67
-192
-200
-119
-216
-210
-119
-137
-238
-177
-110
-245
-239
-88
-106
-205
-117
-32
-148
-128
30
-67
-175
-48
15
-96
-44
74
-17
-29
50
-2
3
107
101
113
205
231
304
393
327
296
419
597
583
521
670
735
615
648
775
675
533
506
469
322
243
205
76
75
69
-46
-127
-96
-155
-261
-128
-115
-211
-123
-132
-195
-109
-122
-276
-265
-132
-122
-212
-164
-48
-125
-146
-71
-90
-151
-79
-4
-110
-123
-60
-85
-97
-65
-88
-123
-106
-60
-134
-163
-35
-159
-243
-60
-64
-152
-113
-113
-177
-154
-87
-160
-206
-138
-165
-165
-45
-18
-124
-155
-126
-177
-186
-105
-139
-197
-78
-60
-143
-129
-123
-140
-90
-1
-29
-37
75
32
-57
-5
76
27
1
128
136
63
108
85
-129
-229
-170
-224
-250
-123
-127
-283
-200
-89
-290
-239
-118
-264
-271
-159
-233
-445
-345
148
931
2008
2767
2349
1013
-77
-451
-438
-211
-105
-202
-184
-137
-247
-276
-173
-185
-222
-163
-173
-210
-108
-95
-158
-121
-83
-160
-187
-56
-41
-117
-56
21
-78
-97
14
-31
-29
61
58
32
48
128
140
134
235
253
251
391
478
435
436
545
595
622
725
719
628
693
779
614
533
582
420
283
274
176
91
82
16
-96
-86
-17
-92
-162
-94
-85
-204
-139
-77
-177
-168
-156
-189
-112
-56
-155
-188
-130
-127
-187
-147
-77
-122
-110
-78
-113
-144
-77
-37
-122
-49
32
-118
-153
-33
-69
-167
-85
-36
-116
-104
-92
-196
-175
-45
-92
-212
-153
-84
-166
-121
-16
-138
-169
-61
-120
-162
-110
-113
-156
-133
-76
-149
-175
-50
-120
-225
-117
-113
-177
-76
4
-98
-150
8
37
-81
-14
32
-28
36
134
65
10
133
161
68
98
30
-218
-200
-79
-195
-206
-97
-163
-243
-122
-118
-307
-202
-61
-169
-187
-175
-356
-428
44
929
1963
2860
2815
1472
100
-241
-257
-259
-80
-70
-164
-165
-160
-208
-264
-138
-75
-286
-249
-79
-150
-206
-141
-156
-209
-102
-62
-152
-112
-83
-169
-87
35
-59
-93
21
-19
-94
37
97
-39
-21
127
106
104
240
264
262
425
529
480
479
576
616
617
747
789
637
674
707
542
518
488
283
157
160
79
-58
-28
-25
-160
-132
-81
-183
-226
-178
-146
-199
-204
-177
-283
-236
-130
-272
-287
-175
-198
-256
-219
-117
-197
-250
-125
-158
-258
-174
-143
-201
-154
-154
-215
-173
-75
-151
-219
-97
-121
-264
-180
-76
-207
-276
-128
-109
-215
-143
-148
-262
-115
-63
-245
-190
-140
-221
-215
-159
-135
-214
-179
-102
-186
-165
-72
-186
-234
-108
-156
-236
-159
-102
-135
-219
-189
-148
-170
-58
-50
-123
-25
41
-29
-5
129
110
30
128
146
-31
-124
-184
-228
-168
-162
-230
-290
-196
-145
-271
-223
-137
-254
-265
-194
-250
-351
-417
-368
9
1073
2311
2942
2636
1316
-10
-469
-340
-185
-218
-158
-112
-306
-349
-208
-210
-252
-190
-204
-256
-159
-119
-267
-209
-42
-205
-273
-100
-112
-219
-125
-21
-109
-138
-83
-74
-78
-2
22
-14
102
110
-16
71
237
219
209
327
365
359
413
492
519
570
724
768
648
682
785
689
686
715
525
377
353
225
103
154
93
-121
-112
-10
-115
-190
-106
-103
-213
-161
-117
-233
-199
-133
-211
-202
-152
-228
-239
-132
-151
-258
-204
-129
-208
-211
-81
-129
-235
-144
-122
-223
-150
-21
-127
-199
-86
-118
-198
-107
-74
-184
-102
-18
-186
-201
-113
-184
-183
-88
-78
-175
-177
-103
-162
-181
-129
-144
-168
-113
-55
-148
-199
-76
-108
-192
-146
-175
-206
-129
-81
-134
-138
-80
-122
-93
8
-45
-70
61
137
19
34
157
45
44
172
65
-124
-171
-162
-255
-250
-157
-228
-246
-124
-160
-248
-187
-214
-248
-125
-103
-255
-391
-421
-391
-37
959
2116
2752
2473
1208
-118
-493
-297
-216
-156
-127
-199
-238
-199
-157
-246
-214
-93
-209
-266
-172
-148
-184
-170
-156
-237
-196
-21
-96
-225
-98
-67
-183
-150
-40
-87
-56
37
-66
-130
-34
48
-3
33
109
79
128
238
263
282
411
463
403
501
603
506
552
708
642
577
589
523
434
316
221
118
15
4
-50
-132
-99
-75
-216
-221
-149
-266
-245
-127
-227
-324
-254
-211
-289
-242
-156
-329
-344
-183
-226
-272
-163
-136
-242
-187
-102
-177
-154
-122
-236
-213
-150
-170
-173
-146
-123
-203
-210
-139
-182
-196
-135
-167
-242
-163
-85
-177
-184
-115
-203
-272
-159
-103
-195
-207
-155
-170
-177
-113
-160
-263
-145
-131
-240
-125
-49
-208
-224
-57
-92
-73
44
-20
-100
-32
92
34
2
105
45
-21
105
-18
-286
-203
-147
-260
-252
-179
-216
-313
-205
-121
-286
-289
-204
-279
-267
-144
-208
-449
-468
-134
499
1470
2253
2166
1217
40
-584
-614
-350
-156
-219
-217
-169
-249
-267
-165
-205
-304
-196
-135
-245
-232
-172
-218
-243
-163
-145
-221
-121
-32
-152
-158
-89
-132
-134
-54
-68
-146
-56
46
-28
0
120
28
41
244
214
140
244
331
329
359
450
429
441
599
647
582
557
571
521
480
431
276
256
301
138
-53
-40
19
-135
-216
-117
-178
-244
-157
-182
-266
-191
-141
-221
-230
-156
-206
-242
-130
-126
-183
-114
-85
-206
-215
-144
-204
-202
-65
-23
-104
-117
-118
-204
-143
-45
-121
-135
-93
-101
-131
-123
-157
-250
-165
-86
-169
-198
-141
-148
-206
-139
-62
-197
-186
-55
-159
-218
-153
-131
-141
-115
-53
-101
-118
-23
-39
-60
14
37
-12
80
169
58
71
187
99
-21
-19
-110
-225
-132
-89
-216
-214
-126
-181
-240
-139
-135
-254
-204
-123
-152
-115
-129
-322
-297
273
1114
1919
2517
2195
796
-239
-424
-385
-160
0
-59
-100
-66
-112
-200
-105
-69
-133
-102
-50
-118
-187
-43
-22
-160
-122
16
-11
-54
46
-51
-128
16
12
-46
31
73
23
57
119
91
57
91
182
177
163
311
357
284
398
491
449
518
611
611
661
723
632
611
742
669
481
478
432
257
226
162
-33
-44
53
-8
-116
-78
-55
-143
-124
-67
-159
-221
-111
-104
-141
-60
-157
-270
-212
-168
-222
-248
-126
-112
-192
-110
-54
-155
-147
-27
-89
-135
-26
-39
-167
-110
-13
-133
-167
-85
-131
-141
-51
-82
-162
-104
-96
-166
-72
-32
-177
-158
-7
-55
-195
-120
-26
-130
-149
-88
-151
-162
-32
-7
-68
-2
48
-90
-64
131
62
-2
132
144
80
123
157
9
-167
-106
-177
-294
-143
-181
-291
-202
-158
-238
-228
-140
-232
-281
-138
-185
-330
-352
-340
-76
705
1799
2598
2550
1556
213
-477
-358
-155
-146
-127
-103
-234
-261
-115
-204
-299
-174
-160
-245
-182
-98
-168
-168
-104
-159
-232
-130
-20
-165
-191
-84
-134
-129
-9
-16
-162
-109
32
-55
-72
93
77
11
137
171
138
287
338
245
326
496
500
460
574
587
532
675
744
578
545
633
473
308
301
194
49
16
-8
-99
-131
-78
-139
-209
-129
-158
-277
-202
-145
-219
-192
-115
-213
-322
-170
-160
-310
-218
-151
-263
-246
-152
-253
-294
-157
-184
-284
-176
-99
-195
-205
-139
-138
-204
-194
-163
-200
-161
-169
-208
-157
-145
-223
-218
-147
-176
-210
-214
-184
-193
-225
-145
-208
-282
-103
-128
-305
-195
-150
-269
-207
-106
-187
-264
-187
-198
-255
-99
-11
-86
-48
-27
-153
-130
31
82
26
-17
36
21
16
-25
-238
-298
-224
-220
-247
-212
-164
-263
-324
-260
-277
-237
-185
-243
-259
-253
-318
-430
-153
645
1575
2508
2857
1878
371
-315
-304
-285
-215
-68
-170
-307
-207
-160
-249
-241
-172
-232
-223
-168
-213
-188
-145
-183
-210
-94
-55
-213
-189
-52
-134
-173
-53
-94
-185
-78
9
-68
-81
22
1
-34
117
143
50
189
284
217
301
406
380
430
560
581
573
724
749
582
642
735
583
424
438
389
175
123
122
-20
-67
-63
-145
-164
-74
-67
-199
-206
-137
-206
-190
-96
-165
-262
-172
-89
-229
-231
-142
-260
-256
-151
-183
-233
-180
-150
-238
-222
-142
-209
-209
-97
-145
-167
-97
-157
-207
-159
-126
-136
-147
-88
-71
-175
-181
-151
-197
-134
-56
-151
-186
-63
-84
-212
-190
-137
-217
-194
-76
-127
-165
-86
-165
-231
-113
-129
-197
-149
-101
-79
-84
-27
-51
-101
29
42
15
116
167
95
54
156
102
-124
-172
-170
-267
-193
-120
-224
-214
-171
-265
-286
-196
-215
-264
-194
-193
-294
-338
-348
-268
287
1446
2536
2965
2441
928
-274
-386
-171
-163
-239
-136
-115
-266
-257
-139
-169
-250
-203
-205
-246
-156
-159
-247
-148
-85
-181
-192
-91
-67
-137
-100
-100
-179
-107
-39
-112
-111
-6
-49
-86
57
105
8
47
164
148
216
336
287
302
518
572
456
540
673
631
625
778
724
573
661
645
419
349
322
129
59
109
13
-124
-79
-57
-188
-121
-26
-219
-230
-35
-159
-298
-158
-152
-216
-130
-153
-259
-193
-122
-209
-240
-165
-167
-251
-194
-56
-154
-238
-104
-94
-233
-163
-81
-204
-157
-93
-145
-121
-79
-101
-178
-96
-48
-197
-160
-106
-165
-113
-59
-131
-141
-57
-113
-162
-89
-113
-181
-146
-84
-90
-124
-64
-60
-194
-173
-36
-103
-138
-35
-47
-50
35
60
-19
45
181
95
61
159
168
146
212
168
-85
-112
-60
-227
-172
-18
-181
-272
-141
-119
-170
-160
-145
-168
-181
-117
-130
-299
-354
-118
492
1605
2770
3077
2253
839
-172
-342
-173
-98
-123
-45
-39
-211
-218
-115
-164
-232
-130
-137
-183
-55
-91
-223
-173
-18
-86
-188
-47
-74
-172
-33
44
-91
-92
17
-53
-111
-17
34
-15
40
151
49
52
227
194
194
331
325
305
423
496
487
570
674
638
649
746
697
603
571
576
448
257
278
168
10
46
2
-95
-118
-137
-198
-223
-140
-155
-242
-105
-118
-355
-266
-158
-275
-245
-126
-171
-253
-192
-157
-232
-170
-137
-231
-189
-93
-139
-215
-91
-61
-208
-199
-112
-161
-178
-90
-182
-259
-115
-109
-202
-172
-165
-215
-230
-143
-111
-216
-169
-104
-196
-129
-92
-231
-248
-147
-92
-180
-174
-112
-222
-206
-149
-237
-192
-77
-175
-235
-87
-79
-159
-40
58
-26
-28
110
51
-63
107
165
20
49
47
-153
-249
-207
-210
-234
-178
-175
-269
-267
-226
-248
-261
-209
-220
-264
-179
-237
-480
-399
164
1029
2092
2759
2160
709
-246
-474
-474
-260
-64
-170
-258
-180
-200
-268
-226
-241
-274
-181
-119
-205
-236
-125
-156
-231
-114
-75
-188
-135
-63
-136
-100
-23
-84
-118
-3
1
-104
-38
52
-2
30
146
90
83
192
269
240
240
417
421
408
524
499
511
659
651
555
643
661
503
474
448
305
215
209
167
-11
-52
22
-103
-140
-86
-156
-239
-217
-179
-207
-142
-136
-209
-181
-184
-248
-194
-73
-147
-279
-230
-132
-143
-170
-96
-147
-220
-110
-110
-191
-99
-85
-212
-162
-99
-148
-157
-131
-163
-219
-148
-109
-183
-114
-64
-210
-243
-119
-128
-217
-156
-150
-247
-164
-85
-187
-264
-165
-115
-223
-196
-95
-155
-208
-141
-144
-205
-102
-2
-123
-115
7
-67
-57
88
15
-29
92
52
0
94
6
-279
-309
-191
-230
-290
-169
-139
-305
-253
-200
-292
-247
-174
-254
-252
-97
-288
-597
-401
295
1258
2149
2530
1795
370
-370
-473
-436
-227
-139
-271
-278
-125
-177
-281
-220
-219
-327
-296
-200
-261
-232
-144
-218
-241
-126
-162
-244
-136
-96
-212
-173
-55
-128
-141
-42
-89
-134
-5
8
-98
-20
78
12
27
163
207
151
225
401
321
285
506
510
393
492
545
480
535
579
469
384
355
257
178
162
61
-57
-45
-64
-178
-188
-61
-155
-334
-175
-136
-329
-265
-141
-215
-288
-218
-200
-270
-182
-159
-251
-198
-140
-196
-197
-60
-72
-190
-88
-75
-222
-152
-67
-190
-176
-73
-169
-174
-75
-91
-180
-174
-109
-172
-190
-135
-138
-170
-128
-113
-184
-141
-74
-140
-189
-155
-182
-203
-115
-78
-175
-152
-51
-188
-239
-117
-136
-162
-59
-5
-85
-77
20
-34
-40
93
78
42
98
77
5
40
21
-197
-257
-155
-229
-269
-146
-185
-298
-199
-162
-334
-279
-84
-206
-334
-243
-323
-520
-278
421
1246
2169
2694
1972
486
-325
-415
-399
-195
-51
-241
-296
-190
-250
-283
-205
-205
-241
-160
-148
-272
-251
-114
-164
-235
-117
-142
-238
-158
-99
-135
-138
-63
-57
-105
-80
-42
-93
-28
59
-21
15
99
42
62
243
257
174
257
377
372
360
475
510
485
605
669
538
590
698
543
447
440
297
149
165
103
-37
-11
-8
-109
-145
-125
-205
-229
-125
-141
-195
-145
-138
-276
-293
-126
-188
-295
-165
-187
-301
-213
-145
-186
-174
-132
-154
-158
-111
-100
-146
-101
-64
-212
-220
-105
-160
-195
-139
-153
-206
-152
-100
-216
-229
-110
-175
-236
-95
-97
-210
-188
-120
-142
-129
-54
-135
-197
-142
-102
-163
-186
-101
-155
-202
-69
-61
-158
-124
-147
-199
-84
19
-47
-76
41
30
-23
96
108
13
132
219
98
100
137
-76
-236
-148
-143
-216
-195
-166
-198
-186
-132
-169
-265
-228
-151
-242
-233
-204
-357
-379
15
742
1704
2666
2694
1503
208
-297
-327
-254
-148
-179
-260
-174
-113
-256
-257
-142
-215
-255
-165
-241
-314
-178
-158
-265
-215
-138
-212
-180
-70
-148
-219
-124
-94
-169
-128
-46
-86
-98
-24
-63
-68
87
93
-2
73
206
170
196
335
326
350
486
546
515
555
613
540
581
695
588
476
503
406
241
177
104
-29
-84
-6
-66
-212
-128
-118
-234
-134
-74
-263
-289
-146
-198
-235
-138
-164
-287
-253
-138
-205
-240
-114
-225
-310
-118
-152
-266
-165
-104
-205
-200
-68
-134
-239
-157
-165
-252
-165
-94
-163
-217
-185
-174
-226
-186
-151
-212
-186
-99
-124
-175
-140
-178
-246
-140
-107
-217
-184
-129
-225
-222
-119
-164
-220
-148
-156
-261
-197
-93
-150
-218
-164
-140
-195
-114
-39
-114
-43
45
-47
7
120
13
-40
154
181
0
64
63
-184
-225
-158
-241
-235
-70
-120
-311
-238
-134
-241
-233
-113
-161
-249
-196
-231
-416
-273
329
1216
2320
3018
2396
857
-132
-342
-309
-131
-69
-179
-191
-119
-188
-297
-194
-143
-254
-172
-51
-219
-260
-106
-130
-157
-94
-110
-186
-126
-26
-94
-123
-39
-29
-79
-55
3
-26
35
92
-23
28
160
108
111
256
246
163
292
450
409
401
569
577
537
634
641
600
628
685
611
527
522
361
237
238
169
42
-23
-36
-88
-109
-105
-107
-131
-170
-202
-207
-111
-110
-206
-192
-135
-169
-193
-49
-79
-272
-169
-71
-157
-121
-70
-163
-193
-99
-77
-159
-136
-20
-64
-135
-96
-131
-140
-45
-78
-151
-68
-36
-161
-144
-47
-99
-152
-87
-43
-138
-159
-98
-120
-125
-88
-110
-147
-69
-12
-85
-111
-66
-116
-105
-17
-48
-92
-52
-72
-118
-45
-69
-137
-59
3
-40
-28
62
50
-16
93
211
150
144
237
219
149
217
183
-87
-164
-79
-116
-137
-87
-90
-156
-119
-73
-167
-165
-81
-153
-190
-87
-182
-390
-280
155
928
2126
3046
2812
1498
230
-251
-342
-182
-67
-131
-79
-84
-138
-112
-100
-203
-227
-123
-117
-152
-136
-109
-103
-135
-96
-60
-168
-107
-13
-141
-130
9
-45
-46
44
-4
28
73
34
16
131
246
134
149
272
237
244
430
481
371
492
638
587
566
679
660
594
739
745
612
643
602
439
390
361
204
71
113
48
-99
29
56
-162
-129
-35
-164
-173
-50
-76
-187
-99
-52
-225
-219
-81
-115
-187
-121
-134
-202
-79
-61
-175
-102
-36
-141
-187
-99
-73
-172
-181
-62
-116
-156
-38
-107
-129
-51
-150
-242
-179
-78
-142
-180
-110
-138
-170
-102
-106
-203
-137
-66
-150
-149
-61
-126
-119
-7
-140
-270
-160
-76
-153
-154
-96
-147
-183
-125
-101
-145
-83
33
-20
-47
98
34
-91
60
134
43
124
252
131
65
123
-96
-253
-121
-103
-207
-139
-100
-237
-207
-137
-170
-238
-220
-161
-222
-166
-153
-368
-436
-97
624
1638
2500
2414
1222
-16
-395
-395
-290
-107
-177
-201
-150
-207
-262
-183
-82
-203
-229
-130
-182
-185
-90
-74
-115
-90
-62
-162
-126
9
-43
-59
-25
-91
-145
-31
109
-30
-106
37
35
14
111
129
114
179
257
251
264
348
337
352
431
476
477
566
674
507
479
616
530
453
486
376
186
209
245
51
-25
42
-53
-146
-83
-70
-149
-105
-95
-172
-149
-105
-152
-191
-134
-134
-203
-112
-32
-159
-117
6
-94
-165
-72
-40
-89
-29
-9
-169
-201
-46
-91
-177
-79
-125
-230
-134
-74
-160
-159
-84
-140
-151
-42
-123
-260
-179
-55
-140
-177
-44
-125
-227
-95
-61
-200
-156
-72
-185
-142
-23
-113
-144
-86
-136
-190
-85
49
4
-29
67
44
-2
136
130
54
159
173
67
62
39
-149
-251
-119
-77
-201
-169
-158
-281
-208
-92
-223
-295
-147
-126
-235
-168
-173
-407
-327
281
1139
2011
2447
1754
327
-409
-437
-409
-197
-31
-155
-201
-96
-148
-262
-179
-135
-234
-145
-48
-166
-185
-94
-88
-108
-98
-75
-104
-125
-39
-71
-133
-11
26
-80
-45
67
-53
-80
91
52
-27
110
189
87
163
290
196
224
397
383
386
546
584
449
454
613
587
521
575
481
369
425
395
250
196
146
-23
-43
47
-73
-155
-75
-97
-184
-123
-96
-247
-208
-77
-180
-212
-77
-86
-151
-111
-95
-187
-163
-26
-81
-114
27
-31
-187
-89
-1
-92
-96
-25
-83
-125
-44
-103
-187
-20
21
-165
-188
-110
-150
-178
-64
-71
-167
-112
-109
-185
-155
-72
-124
-209
-140
-121
-191
-141
-75
-162
-162
-33
-193
-250
-32
-96
-182
-30
51
-40
11
132
38
-2
161
226
80
72
175
-32
-236
-140
-176
-236
-114
-143
-267
-243
-206
-275
-241
-137
-224
-279
-167
-184
-291
-333
-335
-130
536
1603
2486
2562
1626
284
-421
-405
-226
-192
-186
-97
-207
-312
-198
-191
-236
-178
-146
-233
-206
-56
-158
-278
-134
-64
-190
-163
-40
-161
-210
-5
-63
-171
-54
-67
-128
-61
9
-60
-71
63
59
10
139
188
112
201
326
300
333
499
436
346
582
608
463
559
617
532
530
560
445
313
313
260
114
71
42
-65
-97
-66
-133
-197
-115
-93
-226
-201
-114
-197
-189
-111
-198
-209
-36
-76
-252
-182
-104
-205
-145
-20
-125
-177
-59
-37
-101
-47
-25
-143
-124
-9
-45
-141
-77
-64
-186
-131
-53
-114
-160
-66
-105
-166
-8
-75
-223
-107
13
-112
-190
-76
-136
-201
-57
-39
-198
-178
-94
-192
-186
-74
-102
-158
-114
-98
-105
17
43
-64
-11
96
83
73
121
112
131
210
193
103
23
-73
-211
-221
-147
-198
-187
-144
-180
-250
-262
-174
-222
-311
-191
-92
-232
-247
-271
-499
-356
381
1359
2308
2917
2292
707
-242
-348
-308
-200
-102
-184
-262
-180
-178
-278
-239
-158
-211
-258
-169
-198
-262
-101
-88
-248
-213
-168
-243
-212
-90
-124
-162
-58
-86
-208
-104
-4
-111
-88
26
11
19
80
80
66
163
259
211
253
404
373
382
563
529
459
603
616
518
557
617
566
466
490
417
135
126
136
-36
-27
-15
-109
-176
-179
-198
-242
-158
-114
-236
-229
-115
-200
-244
-137
-197
-252
-153
-141
-226
-194
-132
-174
-203
-131
-139
-209
-126
-106
-183
-159
-121
-204
-235
-101
-92
-151
-126
-96
-139
-203
-154
-205
-243
-65
-105
-289
-210
-144
-218
-206
-134
-188
-250
-140
-109
-253
-219
-118
-249
-230
-84
-221
-260
-120
-163
-221
-160
-95
-82
-51
-14
-36
-58
43
138
96
139
166
72
114
166
-90
-290
-172
-149
-284
-234
-149
-289
-296
-195
-277
-312
-218
-226
-309
-239
-149
-307
-465
-422
-257
431
1675
2681
2866
1948
463
-340
-354
-180
-178
-287
-194
-187
-303
-235
-198
-267
-263
-212
-246
-286
-195
-191
-293
-207
-108
-228
-236
-103
-133
-186
-104
-105
-170
-110
-49
-139
-136
50
34
-68
-6
-11
-50
81
197
150
169
297
293
283
451
526
472
559
592
510
581
674
607
525
573
514
332
317
268
89
7
20
-102
-217
-85
-70
-235
-179
-103
-251
-285
-164
-197
-269
-166
-176
-264
-184
-153
-214
-213
-169
-184
-253
-169
-68
-174
-219
-128
-182
-204
-101
-175
-258
-144
-84
-222
-216
-125
-194
-190
-146
-192
-226
-187
-180
-222
-158
-130
-223
-243
-201
-212
-227
-175
-175
-250
-216
-169
-211
-235
-207
-201
-208
-154
-194
-273
-202
-144
-234
-250
-64
-83
-164
3
-59
-165
-24
60
33
76
150
89
26
-23
-182
-302
-235
-214
-328
-275
-177
-270
-342
-247
-253
-353
-306
-230
-245
-270
-227
-353
-576
-388
244
1114
2147
2742
2031
566
-317
-532
-474
-201
-190
-315
-143
-218
-433
-285
-199
-320
-351
-229
-174
-272
-257
-199
-248
-227
-112
-187
-310
-145
-108
-219
-134
-100
-172
-161
-94
-115
-123
-3
-39
-103
71
99
-16
83
220
128
127
290
297
272
383
443
380
448
544
475
473
578
540
420
433
373
214
182
177
32
-84
-11
-58
-220
-195
-143
-180
-141
-124
-270
-306
-142
-173
-329
-229
-139
-239
-203
-108
-170
-219
-152
-118
-203
-136
-73
-236
-191
-37
-149
-220
-115
-120
-168
-104
-110
-207
-144
-24
-104
-206
-141
-104
-213
-167
-91
-232
-224
-96
-147
-157
-57
-128
-251
-132
-31
-189
-185
-64
-130
-163
-124
-135
-115
-13
6
-49
-52
11
21
-14
73
145
102
132
219
114
-56
-53
-117
-233
-132
-146
-255
-195
-163
-245
-231
-141
-248
-289
-132
-163
-275
-160
-179
-421
-283
388
1251
2000
2416
1757
316
-391
-466
-445
-205
-47
-132
-168
-58
-86
-167
-125
-131
-201
-194
-75
-97
-135
-34
-93
-156
-44
22
-62
-112
-24
-55
-107
33
66
-46
29
57
-31
51
167
131
46
160
225
150
236
319
261
333
441
384
453
599
547
472
565
635
551
552
623
563
458
449
406
250
203
184
57
17
56
-50
-155
-21
-8
-182
-112
-5
-148
-156
-15
-106
-194
-33
5
-142
-70
-6
-98
-98
-58
-72
-79
-30
-40
-89
-15
29
-99
-56
75
-26
-97
-16
-44
-144
-70
8
-100
-124
-9
-14
-81
-71
-91
-167
-99
-15
-127
-122
23
-98
-208
-38
-73
-201
-72
-28
-141
-99
-2
1
16
79
59
-18
65
144
104
145
275
230
96
154
3
-249
-129
-62
-207
-176
-66
-175
-236
-113
-146
-293
-233
-143
-207
-170
-70
-199
-399
-353
-130
477
1557
2462
2574
1640
355
-349
-453
-222
-76
-159
-111
-39
-168
-216
-134
-120
-160
-139
-101
-155
-97
-60
-198
-151
-46
-113
-106
-7
-79
-137
-11
-2
-95
-53
19
-49
17
180
68
-55
45
123
75
122
240
214
224
415
419
319
456
545
512
556
620
595
568
656
626
507
602
559
334
261
242
111
-21
46
-4
-114
-61
-101
-168
-137
-145
-215
-192
-143
-149
-219
-222
-124
-174
-217
-133
-168
-214
-97
-127
-221
-131
-86
-190
-177
-48
-122
-173
-69
-123
-206
-67
-45
-187
-162
-109
-163
-167
-101
-148
-208
-154
-153
-215
-189
-142
-203
-248
-149
-148
-258
-148
-119
-256
-196
-132
-216
-243
-103
-93
-257
-188
-67
-136
-118
-7
-37
-42
63
34
-1
127
200
143
151
203
99
-50
-102
-176
-253
-194
-157
-261
-237
-124
-256
-308
-223
-284
-296
-192
-169
-281
-241
-223
-446
-357
381
1311
2161
2805
2329
785
-250
-386
-325
-196
-131
-207
-236
-192
-189
-284
-275
-172
-230
-266
-153
-156
-217
-166
-147
-239
-216
-92
-167
-243
-116
-116
-180
-84
-74
-97
-53
-31
-68
-50
74
43
8
112
106
57
157
257
231
268
415
428
409
522
549
526
602
668
618
613
684
591
450
429
380
224
160
115
3
-26
-77
-156
-182
-127
-121
-233
-213
-112
-172
-260
-179
-143
-256
-226
-162
-225
-211
-139
-196
-236
-135
-173
-257
-108
-91
-271
-234
-143
-197
-191
-125
-172
-225
-91
-64
-246
-209
-62
-170
-225
-114
-167
-233
-157
-132
-228
-207
-123
-243
-260
-138
-172
-206
-152
-142
-234
-216
-111
-186
-230
-127
-173
-251
-145
-125
-213
-117
18
-53
-90
23
9
-65
35
118
68
119
215
128
81
118
-94
-266
-172
-133
-215
-185
-108
-220
-265
-171
-220
-295
-210
-177
-266
-232
-156
-270
-404
-379
-84
712
1896
2879
2846
1625
267
-370
-407
-156
-87
-224
-198
-183
-273
-236
-167
-251
-263
-153
-166
-243
-207
-175
-216
-191
-85
-87
-197
-161
-111
-145
-108
-102
-176
-123
-20
-89
-91
25
17
6
92
76
4
102
239
205
212
332
317
322
484
523
481
587
661
606
636
712
654
597
600
495
308
256
273
145
27
49
-56
-176
-76
-75
-204
-191
-130
-216
-242
-142
-164
-226
-165
-133
-194
-203
-159
-195
-204
-87
-157
-325
-209
-103
-204
-189
-115
-182
-192
-110
-169
-179
-60
-120
-221
-158
-54
-122
-220
-149
-159
-209
-136
-130
-207
-135
-97
-247
-261
-133
-141
-247
-193
-131
-206
-187
-149
-215
-210
-98
-130
-234
-144
-93
-207
-181
-113
-217
-242
-131
-173
-264
-150
-44
-91
-67
-7
-73
-38
133
127
19
123
222
120
158
151
-100
-213
-197
-213
-227
-162
-181
-303
-253
-168
-245
-293
-185
-186
-242
-163
-179
-297
-377
-446
-283
468
1622
2670
2985
2110
616
-331
-407
-202
-170
-201
-108
-173
-292
-193
-153
-233
-184
-117
-221
-206
-110
-202
-275
-152
-105
-221
-149
-51
-182
-191
-30
-32
-145
-101
-16
-101
-36
56
-51
-30
90
90
9
104
182
152
269
330
264
342
485
484
491
642
684
543
593
734
661
582
618
542
367
355
282
105
92
89
-46
-112
-32
-116
-210
-75
-94
-225
-168
-120
-202
-218
-110
-134
-249
-170
-138
-212
-169
-119
-179
-208
-103
-123
-224
-147
-96
-202
-170
-87
-185
-177
-58
-113
-170
-125
-128
-211
-175
-83
-161
-187
-116
-184
-231
-103
-133
-268
-204
-123
-196
-214
-107
-126
-214
-141
-94
-188
-179
-112
-172
-162
-59
-157
-245
-81
-74
-271
-187
-71
-182
-132
7
-27
-110
-35
23
-37
46
174
95
71
180
114
40
69
-53
-221
-186
-96
-202
-270
-178
-211
-255
-196
-194
-265
-232
-168
-277
-276
-179
-233
-382
-453
-161
636
1831
2728
2476
1198
26
-454
-509
-257
-88
-196
-191
-102
-218
-276
-152
-212
-250
-149
-168
-169
-130
-97
-120
-169
-96
-135
-220
-119
-82
-170
-130
-12
-30
-80
-20
-47
-85
19
50
-1
49
142
118
136
208
160
189
318
382
359
429
590
541
465
575
617
578
660
650
510
524
536
359
233
256
173
37
56
23
-151
-159
-76
-154
-198
-124
-155
-190
-103
-144
-227
-183
-141
-205
-223
-82
-112
-214
-100
-62
-172
-138
4
-106
-208
-75
-116
-183
-64
-37
-124
-98
-53
-162
-162
-91
-112
-136
-126
-116
-184
-135
-70
-176
-174
-109
-154
-152
-103
-123
-204
-161
-65
-161
-214
-78
-87
-174
-90
-104
-213
-137
-73
-173
-181
-94
-92
-116
-117
-110
-160
-83
51
-12
-18
45
16
37
148
165
105
214
297
164
123
142
-47
-191
-105
-86
-195
-145
-92
-223
-213
-107
-155
-207
-138
-106
-179
-209
-166
-257
-395
-315
108
1023
2221
2975
2566
1232
83
-363
-309
-98
-141
-206
-109
-164
-228
-202
-137
-178
-271
-166
-105
-158
-124
-96
-165
-154
-85
-124
-120
-29
-71
-81
2
-50
-136
-53
43
-15
-26
58
59
22
115
180
100
128
260
251
250
405
426
386
542
602
520
573
692
652
631
765
745
595
562
521
368
283
298
187
39
32
-29
-137
-75
-22
-149
-172
-110
-151
-133
-107
-167
-163
-88
-125
-224
-155
-10
-122
-227
-116
-105
-156
-74
-52
-185
-135
-24
-89
-136
-69
-62
-131
-93
-74
-132
-89
-39
-82
-109
-123
-144
-171
-130
-66
-147
-186
-115
-154
-173
-73
-121
-222
-134
-88
-185
-148
-78
-170
-194
-88
-80
-181
-148
-75
-188
-205
-66
-86
-192
-101
-52
-186
-135
-74
-149
-50
42
-51
-52
115
178
95
146
242
122
76
170
16
-199
-169
-171
-266
-173
-117
-243
-211
-142
-216
-216
-180
-252
-304
-203
-163
-228
-223
-362
-486
76
1223
2269
2866
2507
1053
-176
-380
-253
-216
-173
-140
-178
-182
-136
-180
-254
-189
-139
-223
-211
-155
-161
-159
-140
-166
-238
-132
-35
-157
-148
4
-50
-149
-46
5
-100
-56
71
-15
-42
105
88
23
162
236
148
222
336
334
392
508
528
473
568
663
606
667
742
617
576
665
599
456
415
354
146
81
131
-13
-69
-14
-121
-193
-102
-74
-183
-184
-113
-233
-280
-143
-114
-189
-211
-190
-250
-234
-133
-211
-249
-124
-167
-234
-94
-56
-160
-135
-86
-155
-169
-111
-179
-238
-105
-106
-227
-180
-141
-197
-189
-80
-166
-305
-181
-135
-229
-201
-117
-203
-210
-93
-160
-181
-149
-214
-226
-155
-96
-158
-229
-141
-172
-257
-127
-110
-231
-176
-107
-227
-235
-127
-177
-182
-50
-6
-79
-43
58
-24
-19
138
98
36
165
201
64
59
14
-207
-221
-107
-183
-236
-179
-200
-287
-237
-126
-221
-277
-174
-228
-307
-175
-179
-423
-501
-134
599
1687
2808
2941
1795
372
-367
-443
-262
-127
-157
-194
-163
-219
-263
-151
-180
-287
-213
-175
-237
-225
-144
-146
-220
-184
-97
-136
-179
-110
-147
-191
-59
-82
-191
-59
6
-67
17
64
-39
-34
102
91
45
170
203
162
288
383
361
448
571
530
508
632
648
596
635
701
677
541
495
459
299
207
159
5
-28
43
-104
-192
-90
-145
-196
-96
-131
-256
-194
-118
-252
-232
-66
-153
-277
-191
-119
-199
-170
-63
-170
-241
-107
-129
-191
-61
0
-119
-154
-52
-162
-236
-70
-103
-188
-87
-73
-115
-122
-117
-177
-240
-123
-115
-206
-124
-100
-200
-178
-96
-158
-185
-133
-187
-201
-151
-158
-187
-148
-119
-185
-172
-97
-127
-170
-105
-104
-234
-190
-97
-169
-177
-108
-111
-123
-63
0
-70
-72
69
52
10
120
149
81
162
199
48
-86
-149
-243
-230
-119
-204
-287
-214
-184
-250
-269
-164
-192
-308
-238
-217
-288
-246
-378
-529
-113
794
1865
2778
2803
1528
75
-411
-359
-326
-236
-177
-259
-256
-176
-251
-343
-227
-160
-293
-267
-166
-229
-221
-134
-175
-251
-171
-124
-217
-166
-57
-133
-165
-87
-113
-156
-66
-25
-103
7
132
-22
-42
129
105
61
210
283
236
331
474
448
444
575
564
501
603
664
620
644
680
547
431
426
310
154
127
65
-63
-80
-100
-195
-201
-87
-170
-306
-175
-181
-286
-191
-148
-252
-284
-204
-190
-229
-182
-155
-244
-194
-94
-205
-242
-138
-130
-179
-133
-118
-193
-136
-59
-158
-185
-98
-182
-249
-113
-94
-233
-188
-72
-201
-295
-177
-185
-264
-191
-152
-244
-212
-90
-189
-288
-181
-166
-188
-134
-183
-285
-226
-121
-225
-245
-111
-154
-237
-184
-180
-233
-157
-115
-209
-207
-130
-134
-115
-24
-19
-67
-1
116
78
5
106
133
90
190
136
-84
-192
-165
-181
-263
-174
-132
-276
-262
-170
-232
-266
-197
-230
-260
-173
-206
-287
-283
-414
-309
601
1839
2731
2796
1756
321
-429
-387
-195
-187
-179
-99
-222
-281
-158
-234
-312
-210
-167
-222
-209
-172
-201
-199
-137
-136
-190
-142
-92
-148
-123
-49
-124
-160
-20
-16
-68
30
37
-58
25
136
54
51
183
192
150
294
374
300
370
499
507
534
653
627
575
720
780
650
641
677
529
409
361
230
129
112
96
13
-103
-115
-159
-172
-97
-179
-234
-133
-161
-275
-205
-114
-179
-194
-116
-179
-250
-132
-131
-232
-170
-43
-82
-189
-109
-125
-196
-67
-21
-156
-191
-85
-113
-170
-76
-95
-185
-118
-100
-188
-160
-88
-160
-248
-161
-154
-228
-135
-139
-227
-162
-110
-206
-252
-143
-150
-246
-155
-130
-209
-166
-139
-203
-232
-170
-205
-233
-112
-110
-227
-212
-127
-185
-208
-67
-55
-123
-40
-25
-111
-4
124
16
5
168
143
32
75
8
-244
-259
-113
-191
-263
-192
-186
-222
-241
-247
-290
-283
-215
-267
-282
-162
-234
-480
-489
-107
723
1931
2886
2734
1464
188
-408
-471
-179
-64
-289
-267
-120
-263
-360
-237
-223
-302
-229
-181
-271
-241
-148
-230
-257
-131
-162
-198
-110
-144
-226
-117
-56
-197
-161
-49
-88
-105
-14
20
-64
6
185
102
-6
175
233
209
344
356
317
429
560
536
544
679
717
668
699
739
601
514
557
432
277
293
148
-33
65
28
-133
-116
-88
-183
-217
-153
-156
-182
-179
-204
-246
-174
-104
-196
-249
-173
-181
-246
-163
-109
-213
-205
-115
-185
-182
-86
-121
-142
-142
-177
-213
-173
-101
-162
-196
-96
-129
-202
-91
-99
-233
-185
-102
-189
-226
-141
-126
-216
-186
-99
-196
-162
-74
-201
-227
-119
-189
-277
-150
-115
-235
-183
-110
-220
-242
-111
-142
-233
-158
-147
-224
-188
-109
-148
-172
-85
-86
-97
-31
-73
-123
6
114
18
28
184
109
27
106
-49
-239
-197
-165
-250
-264
-150
-167
-283
-234
-196
-288
-192
-135
-301
-278
-159
-286
-515
-435
100
991
2119
2885
2415
967
-128
-444
-412
-232
-118
-216
-249
-163
-252
-309
-160
-147
-273
-187
-149
-289
-215
-109
-160
-195
-125
-129
-215
-103
-51
-150
-61
-24
-148
-119
16
14
-77
-10
49
3
76
144
80
95
227
273
223
309
399
426
516
554
541
557
665
691
616
662
730
596
527
532
382
289
258
137
16
93
95
-143
-174
-81
-167
-238
-146
-146
-215
-140
-135
-212
-201
-178
-218
-209
-116
-112
-210
-194
-106
-144
-152
-67
-133
-209
-104
-102
-172
-40
4
-187
-162
-22
-114
-176
-52
-75
-187
-61
-103
-255
-170
-92
-154
-199
-122
-92
-163
-176
-136
-197
-188
-106
-173
-210
-93
-92
-236
-150
-112
-242
-169
-103
-190
-199
-125
-166
-204
-110
-77
-101
-27
5
-129
-151
60
113
-12
100
192
39
53
166
-52
-276
-158
-149
-267
-124
-83
-270
-287
-226
-262
-256
-133
-144
-287
-275
-174
-305
-477
-344
102
1013
2129
2627
2035
755
-233
-529
-398
-166
-166
-266
-186
-189
-266
-199
-159
-245
-241
-131
-207
-244
-84
-112
-208
-114
-101
-214
-160
-63
-65
-72
-44
-86
-182
-89
-5
-73
-57
54
26
-20
122
131
59
174
199
165
302
380
347
398
537
544
471
598
628
534
639
730
634
562
580
465
335
338
210
69
71
69
-12
-92
-67
-101
-199
-155
-151
-218
-167
-141
-225
-255
-171
-186
-220
-101
-94
-222
-181
-51
-67
-129
-116
-134
-144
-73
-77
-144
-86
20
-99
-219
-107
-80
-141
-90
-95
-162
-116
-95
-169
-204
-119
-117
-208
-156
-126
-178
-166
-125
-170
-198
-105
-135
-211
-109
-105
-248
-204
-83
-153
-211
-101
-115
-269
-197
-94
-175
-101
-9
-161
-181
-17
-33
-98
-12
55
16
2
87
92
59
148
113
-61
-153
-191
-240
-216
-137
-200
-274
-190
-224
-299
-211
-216
-326
-257
-161
-262
-305
-318
-398
-67
910
2003
2691
2594
1420
40
-465
-328
-182
-162
-133
-152
-265
-263
-184
-257
-300
-171
-123
-191
-207
-183
-218
-220
-126
-159
-229
-129
-118
-211
-131
-81
-149
-99
-69
-119
-73
-14
-53
-100
-12
97
44
66
169
130
139
300
347
282
395
501
458
547
659
634
651
736
693
603
669
658
473
411
425
270
93
86
37
-98
-17
39
-207
-255
-106
-190
-260
-87
-109
-286
-209
-181
-279
-212
-93
-197
-248
-66
-128
-306
-153
-82
-224
-181
-104
-170
-173
-97
-127
-228
-142
-35
-183
-203
-68
-148
-195
-40
-37
-131
-135
-157
-175
-124
-77
-147
-200
-111
-98
-217
-156
-68
-184
-218
-125
-152
-205
-112
-106
-184
-108
-109
-243
-186
-56
-113
-155
-71
-126
-239
-161
-89
-192
-164
7
-36
-101
45
37
-53
74
120
68
103
182
117
40
181
60
-223
-196
-151
-231
-199
-83
-172
-270
-158
-162
-229
-127
-105
-230
-247
-132
-249
-475
-199
530
1538
2708
3157
2196
665
-165
-346
-288
-90
-99
-225
-152
-120
-202
-178
-142
-192
-257
-158
-75
-220
-173
-52
-198
-199
-74
-153
-131
-35
-110
-150
-121
-82
-84
-63
-3
-70
-85
23
48
44
92
117
89
114
230
227
224
389
449
420
566
681
561
591
742
674
673
797
710
539
564
549
345
250
256
89
-37
22
-61
-193
-84
-64
-196
-151
-116
-220
-254
-162
-145
-237
-153
-59
-247
-283
-102
-181
-271
-154
-135
-196
-201
-203
-259
-215
-119
-196
-256
-129
-92
-198
-129
-86
-221
-166
-81
-202
-223
-97
-111
-244
-178
-71
-235
-295
-150
-151
-226
-165
-163
-257
-154
-118
-271
-207
-101
-202
-238
-167
-188
-185
-135
-181
-266
-237
-152
-217
-227
-117
-171
-243
-142
-116
-222
-186
-46
-72
-119
-12
12
-66
29
94
7
50
141
103
59
162
106
-155
-172
-123
-203
-190
-134
-208
-200
-74
-164
-273
-188
-133
-193
-229
-148
-192
-426
-454
-37
822
2084
3112
2910
1605
300
-347
-375
-98
-76
-236
-173
-138
-245
-179
-62
-185
-258
-134
-123
-222
-165
-129
-168
-130
-120
-186
-163
-57
-110
-154
-27
-16
-149
-106
25
-24
-54
14
4
-14
73
161
117
129
221
187
227
388
384
396
532
546
544
620
700
701
660
752
795
683
616
570
430
334
308
159
25
33
-6
-151
-126
-59
-168
-158
-105
-189
-195
-114
-104
-185
-196
-179
-271
-242
-114
-191
-269
-163
-159
-205
-129
-103
-209
-233
-128
-154
-204
-84
-91
-204
-141
-117
-183
-137
-108
-190
-180
-82
-95
-174
-168
-128
-166
-212
-134
-126
-210
-135
-107
-226
-208
-83
-134
-223
-113
-160
-257
-122
-152
-249
-163
-150
-234
-162
-97
-229
-241
-110
-121
-193
-164
-103
-114
-140
-14
22
-94
-32
47
-23
48
174
59
59
200
104
-27
-54
-165
-244
-144
-97
-212
-217
-116
-188
-252
-195
-230
-229
-132
-173
-273
-274
-317
-473
-351
411
1462
2345
2683
1835
351
-390
-409
-345
-239
-92
-91
-220
-236
-171
-266
-283
-164
-219
-243
-165
-175
-206
-126
-77
-201
-216
-88
-153
-211
-18
-10
-163
-115
-65
-120
-70
28
-41
-67
90
72
-72
52
183
131
162
261
247
308
476
452
423
558
601
587
641
751
680
525
648
651
497
469
356
170
127
136
-5
-107
-17
-30
-182
-161
-93
-244
-282
-131
-207
-269
-131
-225
-341
-204
-184
-285
-209
-139
-211
-227
-149
-144
-214
-162
-114
-189
-169
-53
-132
-183
-83
-159
-242
-146
-98
-187
-174
-73
-126
-202
-149
-178
-245
-171
-129
-209
-218
-146
-186
-190
-101
-186
-256
-153
-145
-249
-245
-135
-155
-217
-85
-95
-272
-227
-172
-232
-209
-133
-200
-248
-128
-116
-247
-158
9
-65
-59
3
-52
-36
69
56
-14
118
175
20
70
25
-259
-240
-102
-187
-283
-189
-137
-255
-230
-86
-204
-309
-166
-141
-216
-221
-330
-500
-247
502
1418
2353
2673
1731
304
-367
-425
-374
-208
-142
-184
-228
-166
-120
-259
-235
-181
-274
-204
-132
-208
-231
-146
-108
-192
-144
-73
-159
-89
-15
-154
-162
-45
-69
-137
-56
-3
-77
-26
77
32
36
135
91
63
213
317
240
247
393
398
423
579
577
539
709
738
589
622
688
584
502
494
365
218
225
166
-23
-62
-10
-138
-183
-51
-131
-265
-166
-123
-249
-226
-156
-232
-238
-167
-194
-255
-215
-131
-256
-298
-135
-201
-263
-129
-129
-265
-231
-129
-182
-193
-137
-182
-184
-113
-139
-185
-118
-127
-183
-124
-140
-222
-205
-82
-151
-272
-91
-108
-299
-215
-122
-207
-237
-138
-154
-231
-201
-146
-185
-211
-145
-183
-206
-129
-177
-245
-134
-119
-231
-196
-126
-184
-198
-133
-175
-227
-148
-73
-123
-85
21
-55
-77
46
58
19
89
135
37
36
117
-4
-222
-185
-155
-281
-211
-142
-228
-214
-145
-213
-262
-183
-193
-278
-157
-113
-349
-455
-241
321
1307
2517
3093
2370
947
-116
-407
-259
-140
-151
-179
-179
-199
-276
-236
-153
-236
-248
-154
-194
-245
-171
-146
-220
-144
-76
-158
-98
-28
-133
-173
-92
-102
-159
-97
-10
-58
-58
15
-28
-33
102
123
48
152
248
179
206
365
392
381
535
547
559
715
697
651
717
817
758
650
639
554
414
335
297
153
53
65
-40
-111
-19
-57
-190
-116
-58
-197
-218
-104
-148
-214
-162
-156
-161
-137
-189
-270
-228
-130
-163
-241
-166
-143
-233
-179
-114
-175
-178
-96
-93
-158
-126
-131
-199
-80
-42
-202
-158
-77
-197
-218
-98
-129
-224
-147
-127
-204
-153
-98
-166
-193
-110
-130
-229
-146
-92
-198
-131
-67
-192
-224
-101
-84
-158
-109
-123
-212
-152
-63
-142
-154
-26
-48
-193
-130
-22
-139
-138
-23
-106
-134
31
38
-39
16
69
45
73
120
64
138
290
168
50
59
-46
-198
-208
-91
-140
-221
-124
-141
-275
-208
-125
-212
-210
-140
-192
-234
-201
-341
-357
342
1369
2355
3097
2668
1103
-44
-251
-253
-205
-88
-100
-221
-220
-136
-175
-215
-166
-181
-199
-108
-128
-192
-125
-95
-170
-141
-33
-97
-218
-115
2
-119
-132
-29
-64
-67
1
-3
-24
25
77
63
67
148
148
139
294
362
266
378
539
443
495
692
673
646
759
761
714
788
764
600
545
523
337
196
222
153
-33
-9
25
-165
-169
-59
-136
-201
-113
-85
-193
-181
-148
-244
-175
-64
-194
-231
-127
-178
-254
-139
-128
-229
-130
-68
-180
-231
-141
-93
-125
-125
-106
-129
-103
-59
-153
-172
-97
-162
-195
-86
-107
-204
-147
-68
-131
-189
-107
-119
-185
-121
-74
-139
-157
-87
-143
-186
-89
-117
-144
-92
-125
-162
-169
-70
-59
-186
-138
-128
-171
-71
-80
-151
-102
-65
-107
-129
-44
-34
-146
-123
-24
-55
-48
56
-16
-24
187
121
-45
104
213
127
145
199
-25
-202
-84
-80
-158
-114
-107
-210
-149
-58
-208
-245
-84
-131
-259
-140
-145
-321
-345
-163
424
1507
2608
2998
2136
638
-226
-442
-299
-75
-149
-168
-102
-170
-211
-163
-117
-185
-184
-121
-176
-146
-77
-134
-185
-111
-93
-170
-79
2
-111
-129
-19
-48
-137
-29
28
-94
-30
76
-18
-38
110
108
36
174
252
193
279
401
408
417
515
558
516
638
729
608
635
753
703
652
596
443
321
299
264
107
39
62
-77
-104
3
-115
-238
-128
-108
-246
-187
-103
-219
-250
-164
-201
-291
-196
-153
-249
-200
-130
-208
-230
-95
-99
-193
-126
-90
-156
-167
-135
-136
-157
-106
-33
-107
-177
-147
-149
-122
-116
-208
-194
-93
-170
-236
-123
-113
-196
-113
-84
-252
-220
-83
-180
-256
-157
-166
-249
-165
-121
-180
-155
-87
-174
-276
-162
-112
-189
-169
-144
-213
-195
-97
-121
-220
-161
-108
-202
-79
57
-64
-117
-31
-38
-76
88
103
-36
76
153
85
115
70
-174
-293
-182
-141
-235
-201
-120
-231
-262
-184
-219
-269
-172
-84
-232
-234
-184
-430
-429
102
941
1897
2660
2400
932
-216
-402
-437
-351
-131
-196
-270
-153
-190
-292
-217
-138
-240
-256
-129
-180
-220
-132
-141
-204
-161
-144
-225
-184
-92
-134
-187
-90
-24
-127
-98
12
-50
-74
16
0
-54
50
144
114
159
263
216
230
408
409
342
488
573
458
540
704
619
588
695
651
557
570
494
281
215
221
66
9
62
-26
-137
-92
-76
-161
-185
-190
-239
-209
-114
-196
-279
-180
-182
-270
-203
-125
-193
-222
-117
-110
-179
-113
-105
-207
-167
-98
-143
-111
-81
-161
-183
-106
-37
-143
-172
-86
-162
-135
-65
-157
-183
-83
-89
-202
-151
-56
-160
-176
-61
-163
-234
-112
-150
-240
-109
-73
-230
-212
-114
-160
-199
-113
-103
-231
-198
-44
-165
-240
-72
-128
-251
-175
-136
-188
-107
-84
-210
-164
-29
-35
-114
-31
18
-58
24
84
6
52
182
98
-15
52
-67
-275
-166
-116
-268
-236
-98
-169
-249
-164
-206
-278
-220
-184
-252
-218
-181
-370
-406
101
1013
1985
2776
2692
1326
4
-320
-311
-258
-97
-105
-247
-170
-80
-204
-225
-149
-187
-241
-155
-97
-140
-97
-89
-206
-175
-51
-128
-196
-96
-90
-153
-72
-22
-101
-83
16
0
-16
33
37
16
111
201
64
75
267
253
295
432
356
353
569
628
521
576
739
697
603
738
716
536
581
540
295
207
208
74
-27
7
-13
-149
-157
-88
-166
-211
-182
-236
-276
-179
-165
-302
-267
-176
-259
-260
-149
-211
-305
-197
-154
-255
-231
-138
-194
-225
-145
-180
-190
-129
-160
-195
-143
-117
-190
-207
-136
-179
-242
-143
-116
-173
-115
-133
-250
-200
-99
-168
-206
-119
-128
-193
-151
-112
-216
-211
-77
-159
-240
-124
-151
-249
-159
-111
-203
-195
-108
-162
-211
-112
-125
-227
-160
-133
-220
-174
-78
-111
-195
-159
-131
-203
-67
36
-124
-131
-3
-52
-117
36
76
-34
55
128
36
52
100
-113
-284
-158
-172
-313
-200
-114
-242
-239
-165
-224
-252
-174
-137
-243
-266
-228
-391
-431
-78
618
1688
2776
2953
1813
386
-271
-400
-286
-102
-176
-244
-172
-211
-283
-200
-178
-284
-238
-162
-212
-236
-173
-189
-250
-156
-113
-195
-175
-106
-148
-167
-104
-131
-192
-105
-11
-38
-77
-21
-10
-59
53
91
6
113
238
206
214
343
355
394
561
542
508
644
713
632
675
784
701
619
645
539
342
308
259
64
18
67
-40
-140
-95
-123
-175
-94
-135
-282
-265
-163
-214
-284
-188
-181
-291
-222
-136
-251
-252
-115
-187
-275
-156
-155
-263
-194
-139
-241
-187
-79
-212
-223
-93
-168
-258
-147
-99
-221
-184
-77
-180
-260
-130
-93
-238
-205
-122
-212
-205
-123
-182
-201
-121
-157
-231
-161
-125
-220
-179
-92
-143
-230
-199
-169
-230
-148
-70
-177
-210
-116
-140
-191
-137
-177
-244
-159
-144
-248
-169
-57
-166
-213
-107
-91
-118
-42
8
-61
-19
107
66
17
98
135
104
130
111
-116
-232
-149
-174
-200
-168
-209
-261
-186
-147
-256
-217
-128
-226
-260
-150
-160
-346
-446
-246
354
1453
2661
3080
2293
875
-146
-407
-228
-115
-191
-173
-122
-164
-205
-160
-164
-213
-134
-103
-207
-158
-45
-167
-205
-56
-87
-179
-98
-55
-143
-94
-9
-94
-125
-4
14
-25
37
37
-10
88
203
97
68
254
240
159
315
411
378
436
557
548
573
734
708
647
747
815
726
648
730
631
405
383
296
129
146
130
-33
-42
31
-61
-151
-106
-91
-184
-160
-97
-189
-217
-113
-127
-220
-141
-107
-199
-135
-94
-175
-144
-107
-167
-198
-112
-91
-174
-106
-39
-81
-57
-91
-174
-147
-76
-99
-152
-98
-60
-133
-127
-54
-155
-220
-96
-103
-197
-104
-82
-194
-149
-76
-146
-182
-74
-73
-177
-94
-58
-180
-110
-44
-192
-222
-111
-125
-191
-122
-92
-176
-169
-140
-215
-218
-94
-131
-225
-120
-100
-192
-98
29
-58
-108
-9
-6
-15
128
110
-41
54
157
79
36
-6
-134
-232
-198
-163
-247
-211
-148
-225
-244
-198
-177
-239
-188
-82
-226
-257
-193
-423
-335
444
1408
2295
2716
1991
534
-355
-446
-352
-241
-90
-115
-259
-211
-156
-280
-286
-154
-184
-230
-114
-139
-265
-128
-9
-181
-217
-100
-156
-146
-59
-134
-168
-29
11
-129
-85
24
-47
-51
48
37
-16
93
161
114
186
277
238
258
422
471
430
554
612
535
627
745
698
671
734
680
573
563
474
317
242
212
91
14
71
-35
-124
-21
-44
-179
-158
-84
-154
-194
-77
-90
-224
-138
-99
-211
-157
-58
-121
-154
-52
-59
-132
-70
-51
-127
-63
14
-77
-137
-69
-97
-161
-56
-32
-120
-88
-43
-96
-115
-52
-86
-149
-101
-91
-131
-99
-64
-157
-180
-46
-81
-192
-68
-54
-187
-133
-116
-216
-206
-119
-138
-203
-148
-86
-144
-163
-145
-218
-210
-100
-161
-241
-102
-77
-193
-136
-53
-80
-54
-7
-56
-95
9
114
69
86
151
65
49
138
62
-154
-177
-119
-208
-170
-110
-209
-185
-112
-213
-268
-155
-127
-237
-216
-131
-249
-392
-315
-6
744
1910
2770
2601
1464
234
-370
-375
-158
-113
-185
-164
-164
-234
-198
-167
-236
-219
-174
-221
-268
-169
-125
-205
-156
-88
-168
-167
-54
-100
-165
-25
0
-122
-78
-8
-88
-111
11
7
-53
52
96
39
122
226
195
208
323
344
340
464
549
522
550
649
638
635
757
755
655
682
605
400
380
356
186
91
92
10
-121
-83
-38
-134
-117
-108
-224
-236
-148
-138
-217
-192
-148
-239
-213
-99
-184
-240
-130
-151
-239
-190
-149
-210
-150
-45
-143
-202
-103
-125
-179
-102
-100
-160
-90
-42
-176
-227
-118
-136
-174
-128
-152
-156
-121
-146
-225
-230
-143
-125
-199
-167
-77
-166
-165
-126
-260
-246
-110
-119
-192
-134
-117
-212
-180
-123
-177
-157
-105
-191
-255
-157
-123
-229
-181
-66
-163
-219
-137
-153
-178
-100
-67
-113
-76
-27
-90
-37
90
14
-29
111
108
69
166
40
-310
-319
-147
-222
-273
-221
-235
-286
-243
-198
-279
-276
-200
-239
-290
-267
-322
-513
-426
189
1106
2176
2945
2516
1064
-9
-346
-424
-246
-124
-243
-267
-220
-275
-317
-231
-207
-255
-235
-224
-248
-261
-208
-215
-259
-148
-154
-258
-140
-53
-179
-234
-119
-120
-169
-38
-5
-127
-72
26
-17
13
85
63
35
146
182
109
260
377
326
404
519
504
528
678
676
585
687
732
602
573
626
480
262
291
218
-25
-32
13
-122
-140
-75
-174
-199
-165
-210
-262
-211
-138
-226
-236
-143
-188
-256
-200
-188
-265
-199
-125
-236
-262
-143
-178
-203
-91
-110
-183
-140
-98
-165
-165
-71
-132
-209
-109
-72
-168
-138
-55
-139
-161
-72
-125
-183
-88
-106
-168
-115
-91
-147
-168
-94
-122
-179
-114
-110
-179
-155
-68
-68
-154
-123
-130
-181
-69
-119
-215
-104
-71
-147
-126
-65
-140
-178
-87
-114
-202
-119
-52
-152
-144
5
11
26
122
14
-76
62
163
90
73
178
171
110
161
89
-131
-128
-57
-163
-172
-96
-155
-182
-59
-127
-313
-196
-76
-196
-203
-83
-246
-446
-332
64
950
2152
3030
2815
1480
244
-268
-336
-173
-133
-197
-145
-135
-193
-199
-146
-164
-162
-84
-159
-230
-147
-132
-173
-115
-70
-136
-140
-81
-74
-114
-63
5
-80
-79
61
38
-107
-22
58
-12
64
126
46
118
252
193
230
387
375
361
496
624
575
570
730
713
675
766
716
628
704
666
454
410
392
200
84
137
99
-76
-139
-113
-148
-114
-56
-154
-173
-98
-191
-229
-143
-138
-187
-173
-127
-183
-215
-129
-118
-190
-157
-131
-234
-188
-70
-157
-174
-44
-81
-176
-79
-14
-185
-216
-83
-137
-173
-103
-108
-168
-128
-80
-141
-102
-73
-148
-162
-117
-103
-136
-106
-128
-189
-112
-76
-154
-164
-97
-132
-184
-74
-75
-195
-123
-23
-118
-210
-126
-63
-150
-154
-74
-91
-127
-119
-101
-65
-14
-9
-60
12
112
10
17
175
149
65
137
142
-33
-100
-68
-217
-231
-92
-181
-223
-142
-177
-271
-238
-176
-232
-228
-165
-210
-259
-287
-352
-99
815
1861
2473
2452
1346
-77
-541
-391
-269
-157
-55
-155
-275
-193
-102
-188
-209
-77
-185
-266
-129
-93
-134
-132
-75
-149
-199
-79
-105
-118
-22
-29
-99
-90
-4
-12
-24
22
-27
-46
79
151
74
75
222
151
88
281
318
304
450
490
425
524
649
598
583
688
695
607
657
682
479
415
449
237
117
187
80
-97
-71
-34
-155
-139
-62
-188
-217
-147
-222
-267
-167
-132
-274
-258
-147
-223
-239
-140
-183
-293
-211
-143
-180
-97
-94
-201
-194
-114
-145
-204
-126
-85
-145
-173
-103
-138
-199
-126
-154
-192
-122
-112
-197
-149
-60
-191
-238
-122
-171
-263
-143
-82
-210
-220
-114
-155
-231
-114
-92
-199
-166
-145
-219
-160
-64
-174
-246
-148
-151
-218
-105
-83
-174
-86
-27
-102
-68
55
30
-38
24
67
31
67
144
72
-50
-114
-196
-220
-172
-199
-228
-152
-155
-241
-230
-168
-229
-274
-166
-125
-197
-291
-394
-325
261
1322
2262
2689
2218
821
-257
-427
-289
-172
-122
-102
-168
-263
-172
-141
-239
-131
-87
-230
-210
-125
-193
-187
-74
-121
-207
-141
-75
-138
-115
-25
-68
-122
-44
-26
-128
-67
61
30
50
98
23
18
137
166
90
200
323
308
372
483
509
502
620
673
610
690
783
715
694
817
716
434
388
359
185
131
146
26
-30
-2
-94
-168
-75
-47
-205
-199
-111
-204
-228
-133
-181
-238
-115
-120
-256
-202
-138
-208
-202
-137
-195
-225
-133
-90
-153
-153
-71
-129
-166
-69
-94
-192
-131
-82
-194
-161
-37
-147
-179
-114
-197
-187
-95
-137
-265
-203
-78
-182
-249
-166
-192
-252
-150
-100
-224
-252
-151
-149
-173
-129
-170
-234
-163
-140
-231
-185
-123
-226
-260
-153
-131
-197
-160
-111
-162
-126
-60
-91
-62
-6
-45
-75
19
44
-9
73
139
68
27
2
-176
-285
-174
-174
-289
-255
-170
-237
-289
-177
-226
-341
-192
-176
-307
-195
-246
-500
-388
228
1148
2203
3066
2712
1135
-49
-325
-317
-193
-64
-122
-209
-186
-236
-329
-207
-131
-234
-191
-130
-210
-253
-213
-168
-177
-162
-115
-184
-191
-80
-106
-145
-53
-39
-129
-83
-5
-88
-99
21
25
8
137
166
3
63
221
165
220
372
377
414
546
567
543
684
769
659
659
769
672
557
617
508
317
280
178
-1
-18
28
-56
-152
-157
-120
-139
-189
-137
-199
-247
-142
-215
-261
-145
-151
-239
-205
-132
-189
-198
-102
-163
-240
-160
-134
-214
-122
-30
-200
-230
-94
-131
-178
-95
-75
-149
-142
-48
-64
-125
-98
-116
-138
-67
-87
-173
-45
20
-182
-211
-55
-84
-148
-80
-84
-195
-162
-63
-162
-175
-36
-106
-200
-74
-24
-162
-128
-71
-178
-146
-58
-104
-124
-52
-84
-152
-91
-35
-131
-89
82
-8
-80
45
58
47
147
132
76
135
192
163
75
-14
-125
-197
-103
-47
-125
-148
-58
-104
-268
-128
-91
-279
-163
-64
-175
-158
-163
-386
-285
553
1693
2634
3018
2238
668
-169
-169
-222
-237
-105
-150
-234
-139
-106
-190
-181
-111
-167
-206
-79
-100
-215
-123
-56
-146
-163
-43
-69
-189
-89
-47
-124
-38
32
-60
-71
26
-14
-79
85
118
-20
110
211
105
177
340
278
269
457
454
455
649
616
517
643
793
750
650
728
690
502
504
533
341
185
216
118
4
51
-47
-209
-59
20
-207
-209
-102
-193
-224
-105
-145
-276
-180
-112
-234
-195
-106
-205
-211
-113
-96
-190
-142
-41
-158
-214
-118
-134
-205
-123
-83
-168
-129
-85
-135
-94
-105
-198
-199
-61
-63
-227
-180
-123
-196
-146
-124
-236
-197
-98
-162
-162
-115
-144
-178
-194
-157
-235
-230
-53
-86
-172
-154
-164
-203
-172
-84
-140
-216
-127
-110
-184
-140
-41
-23
-43
-9
-57
-122
-34
46
12
69
134
29
89
196
33
-132
-135
-145
-176
-123
-140
-194
-131
-138
-254
-266
-167
-162
-218
-158
-133
-200
-234
-329
-367
146
1236
2213
2666
2330
961
-275
-434
-274
-244
-153
-48
-144
-263
-166
-124
-209
-162
-90
-199
-226
-101
-106
-165
-103
-65
-144
-96
-21
-120
-138
31
16
-143
-30
56
-97
-68
82
6
-19
102
98
46
116
157
123
240
340
302
314
414
453
446
615
689
547
622
779
674
602
686
622
468
419
408
261
131
131
22
-27
15
-54
-106
-118
-141
-228
-194
-76
-215
-268
-89
-156
-278
-178
-157
-250
-216
-120
-187
-251
-139
-137
-229
-128
-68
-121
-125
-102
-147
-193
-78
-94
-171
-61
-75
-213
-149
-12
-130
-270
-161
-96
-183
-175
-96
-182
-230
-103
-132
-219
-160
-156
-205
-124
-117
-221
-134
-88
-236
-231
-99
-147
-248
-163
-104
-171
-149
-83
-183
-255
-140
-144
-207
-94
-49
-161
-115
38
-34
-138
-33
13
-1
111
96
-40
28
145
68
-11
-52
-173
-262
-188
-109
-229
-196
-71
-190
-272
-182
-189
-281
-237
-189
-230
-215
-222
-431
-360
321
1243
2188
2807
2362
872
-222
-356
-279
-227
-133
-109
-194
-149
-135
-259
-209
-122
-215
-282
-159
-151
-236
-148
-123
-207
-143
-67
-176
-153
-1
-109
-209
-64
-27
-106
-73
2
3
-46
0
10
-44
74
125
43
124
230
192
231
373
385
390
521
589
551
619
711
613
617
731
683
610
580
464
307
233
207
52
-95
-31
-36
-184
-177
-121
-222
-217
-116
-180
-218
-135
-165
-223
-152
-136
-229
-203
-137
-224
-255
-205
-224
-245
-169
-144
-213
-161
-98
-166
-161
-87
-112
-156
-111
-112
-207
-161
-70
-142
-207
-104
-108
-186
-80
-140
-251
-156
-123
-209
-216
-106
-89
-188
-152
-79
-180
-171
-53
-133
-215
-83
-80
-191
-99
-123
-266
-158
-25
-109
-181
-128
-147
-165
-113
-107
-188
-170
-29
-92
-98
21
-41
-87
-28
11
19
54
75
84
125
145
64
-52
-100
-162
-251
-224
-141
-206
-268
-165
-185
-251
-110
-145
-297
-225
-166
-221
-230
-223
-372
-374
307
1415
2462
3094
2632
1111
-35
-200
-185
-205
-57
-79
-246
-184
-79
-167
-196
-47
-103
-223
-137
-131
-204
-151
-90
-143
-139
-46
-93
-155
-13
32
-114
-121
-25
-40
-49
77
91
-22
55
124
31
102
207
139
174
280
271
289
416
477
452
558
677
652
692
811
760
681
825
829
651
664
620
409
316
352
222
43
91
104
-13
19
90
-79
-161
-44
-107
-193
-79
-86
-178
-102
-69
-179
-207
-83
-78
-227
-168
-70
-176
-149
-84
-179
-162
-20
-41
-199
-122
-22
-155
-102
-17
-129
-102
0
-98
-180
-78
-41
-98
-103
-73
-130
-135
2
-47
-194
-159
-115
-137
-94
-90
-182
-185
-91
-117
-214
-141
-69
-159
-93
19
-168
-211
-73
-133
-191
-122
-116
-175
-134
-48
-107
-107
30
-39
-94
82
110
-5
17
114
79
50
159
136
52
86
-38
-235
-170
-83
-181
-189
-66
-154
-282
-163
-118
-217
-175
-132
-187
-210
-203
-302
-470
-262
408
1305
2386
2979
2222
722
-198
-362
-351
-182
-92
-241
-148
-89
-254
-276
-194
-192
-224
-146
-127
-233
-136
-86
-249
-195
-49
-98
-162
-35
3
-132
-115
-59
-123
-93
6
-43
-88
71
136
-45
5
122
62
131
191
174
224
320
352
329
477
602
487
533
720
666
603
676
645
598
624
569
359
266
327
151
-27
102
64
-148
-77
27
-175
-228
-65
-181
-244
-113
-147
-217
-138
-122
-251
-258
-142
-144
-170
-116
-143
-159
-94
-117
-182
-134
-70
-109
-178
-118
-65
-161
-140
-55
-115
-114
-37
-121
-200
-82
-66
-162
-125
-81
-155
-115
-37
-169
-217
-106
-108
-213
-142
-44
-177
-222
-154
-199
-198
-137
-183
-204
-140
-134
-199
-171
-90
-142
-171
-55
-16
-66
6
81
6
-4
93
52
-2
109
112
7
102
156
-16
-185
-215
-213
-249
-204
-198
-265
-252
-197
-242
-286
-251
-295
-288
-176
-212
-302
-271
-322
-483
-154
860
1855
2478
2423
1297
-51
-477
-334
-346
-285
-134
-185
-260
-183
-160
-233
-203
-151
-182
-198
-159
-216
-202
-64
-141
-214
-110
-46
-105
-135
-81
-73
-79
-52
-43
-106
-88
2
-53
-56
44
-5
-4
168
134
47
196
247
188
284
430
452
424
477
521
491
569
670
613
655
710
534
405
437
365
179
149
122
-31
-64
-39
-73
-121
-121
-162
-217
-163
-194
-231
-203
-183
-230
-275
-185
-171
-252
-168
-172
-229
-90
-431
1131
3567
2886
1738
1409
943
682
465
234
85
-63
-211
-265
-336
-427
-467
-590
-693
-663
-671
-694
-679
-690
-713
-691
-727
-779
-736
-724
-753
-730
-674
-697
-718
-646
-639
-625
-539
-592
-636
-553
-581
-590
-529
-555
-575
-527
-483
-497
-462
-382
-319
-309
-315
-290
-287
-234
-165
-162
-75
-61
-196
-159
-86
-236
-437
-421
-431
-450
-349
-429
-479
-385
-363
-427
-440
-405
-396
-346
-382
-427
-340
-379
-593
-489
222
1285
2264
2813
2268
646
-401
-489
-439
-343
-212
-159
-331
-393
-292
-343
-355
-321
-340
-320
-206
-210
-322
-267
-197
-269
-242
-100
-163
-263
-162
-95
-122
-128
-107
-131
-145
-74
-58
-68
5
22
6
77
91
59
117
249
288
248
324
438
448
505
620
586
571
656
705
692
679
660
573
528
483
319
219
268
170
-8
-45
-41
-55
-99
-143
-164
-167
-132
-105
-142
-158
-110
-121
-143
-112
-75
-87
-86
-70
-164
-149
-35
-111
-132
6
-56
-160
-49
-50
-161
-86
-10
-72
-84
-25
-109
-143
-71
-115
-76
-37
-68
-161
-186
17
-49
-174
-70
-194
-246
-110
-129
-174
-98
-66
-96
-66
-189
-227
-106
-136
-204
-209
-142
-102
-149
-90
-43
-182
-149
-95
-141
-147
-141
-66
-59
-20
-126
-204
-38
32
59
29
138
267
97
102
245
-144
-455
-181
-250
-342
-160
-173
-189
-226
-145
-115
-176
-211
-365
-309
-205
-117
-116
-355
-407
-328
195
1496
2771
3130
2404
967
-155
-360
-347
-393
-195
-82
-234
-246
-234
-301
-307
-304
-261
-273
-227
-155
-223
-157
-136
-328
-316
-206
-153
-278
-372
-247
-168
-151
-152
12
-125
-253
-40
-132
-169
-96
-91
-116
-126
-3
96
127
154
255
304
309
382
402
457
520
482
521
650
625
482
527
554
419
382
359
163
18
-23
-100
-180
-212
-183
-215
-171
-98
-294
-317
-151
-214
-303
-257
-210
-291
-281
-207
-287
-352
-301
-188
-148
-230
-220
-90
-169
-287
-210
-187
-168
-108
-162
-257
-221
-201
-268
-195
-103
-147
-206
-250
-204
-162
-261
-165
-24
-150
-188
-201
-177
-113
-308
-269
-45
-207
-288
-176
-214
-218
-129
-167
-210
-91
-124
-215
-228
-219
-52
-148
-350
-230
-146
-178
-198
-127
39
19
-80
14
103
87
40
85
90
-8
63
175
-40
-249
-82
-19
-213
-201
-302
-560
-409
-297
-363
-238
-139
-150
-255
-336
-398
-359
-271
-432
-409
240
1269
2178
2516
1867
489
-449
-514
-323
-232
-172
-156
-185
-177
-209
-185
-112
-184
-128
-26
-270
-289
-31
11
-52
-176
-199
-80
-78
-92
-74
-24
4
-67
-84
-61
66
110
54
9
-44
162
265
158
146
279
382
156
88
315
400
448
538
609
578
425
569
690
540
727
857
609
535
559
468
336
358
342
123
1
-114
14
81
-142
-103
-56
-180
-207
-116
-75
-147
-149
-74
-75
-74
-48
-54
-93
-51
-32
-54
22
85
49
-26
39
-13
-75
50
72
53
-25
36
150
-50
-55
11
-136
4
165
77
-7
-8
45
54
19
17
56
-18
-72
51
50
13
66
35
62
131
20
-79
50
87
-13
-35
54
57
-46
52
103
56
146
149
127
227
240
258
295
189
213
330
303
197
159
92
-139
-162
-89
-65
-74
-110
19
-60
-125
-3
-100
-104
-27
-107
-50
-46
-166
-177
189
1131
2071
2780
2700
1291
42
-253
-203
-150
-134
-51
22
-39
-124
-101
-45
-111
-190
-140
-126
-8
2
-117
32
74
-32
-89
-139
-19
-64
-198
52
10
-200
-95
-141
-178
-53
7
21
47
149
94
-20
150
183
141
191
213
327
372
497
529
520
648
572
658
718
660
764
585
493
584
423
383
376
147
-29
18
99
39
-69
-217
-205
-30
-125
-185
-6
-117
-177
-191
-386
-168
-27
-222
-219
-47
-137
-220
62
-82
-268
-222
-172
23
4
-54
-213
-262
-126
-127
-135
-60
-17
-134
-51
-24
-160
-205
-212
-67
-49
-106
-142
-182
-100
-163
-215
-89
-146
-224
-157
-216
-169
-129
-195
-136
-72
-130
-299
-262
-99
-70
-146
-158
-168
-198
-213
-139
33
-4
-12
-3
-135
-68
94
50
28
91
52
108
115
10
65
-16
-289
-309
-223
-190
-111
-159
-256
-260
-271
-256
-227
-175
-213
-277
-216
-303
-474
-463
40
892
1773
2770
3007
1651
137
-402
-525
-301
-55
-133
-249
-366
-304
-217
-378
-347
-34
-109
-362
-306
-291
-260
-159
-158
-254
-282
-262
-353
-407
-369
-241
-186
-142
-137
-221
-195
-197
-205
-171
-149
-117
-54
-60
-93
-12
8
36
137
135
151
251
279
333
390
465
433
316
391
457
498
476
410
318
70
39
82
-39
-16
-99
-383
-348
-107
-239
-290
-230
-383
-374
-257
-247
-290
-244
-248
-288
-325
-431
-378
-345
-293
-154
-366
-472
-307
-200
-198
-279
-135
-96
-419
-461
-202
-214
-306
-340
-319
-243
-244
-245
-351
-397
-305
-318
-423
-329
-159
-312
-444
-351
-380
-441
-368
-320
-317
-286
-336
-363
-205
-243
-345
-244
-282
-376
-343
-294
-339
-359
-207
-139
-228
-252
-238
-195
-215
-159
53
10
-27
7
-89
53
102
18
-33
-297
-349
-138
-105
-225
-295
-359
-371
-317
-255
-187
-270
-332
-333
-347
-370
-399
-420
-608
-754
-429
470
1573
2379
2374
1102
-328
-725
-678
-511
-317
-361
-392
-408
-434
-378
-304
-329
-372
-249
-187
-272
-296
-231
-159
-63
-82
-113
-66
-116
-20
57
30
38
-51
-77
26
161
89
62
127
94
216
300
272
318
504
434
215
364
511
519
665
712
612
766
901
717
835
986
707
671
813
761
556
454
384
188
197
231
127
56
115
86
-103
-72
-10
-77
-72
42
9
-112
-1
12
-144
-58
30
-133
-163
-6
-1
-140
-114
-24
-75
-31
71
-67
-114
12
-95
-129
-36
-125
-179
-85
-14
-28
-20
-71
-146
-116
-71
-91
-157
-100
-10
-85
-146
-118
-152
-159
-38
-76
-212
-116
-71
-204
-139
-35
-174
-211
-40
-97
-176
3
54
-73
-63
58
64
30
125
151
85
172
196
86
45
-39
-202
-252
-177
-108
-118
-155
-224
-282
-216
-145
-217
-271
-164
-173
-307
-291
-223
-372
-471
-120
512
1477
2479
2629
1634
322
-358
-487
-326
-46
-117
-237
-81
-51
-167
-160
-84
-195
-162
-14
-106
-127
-59
-84
-148
-74
21
-51
-60
17
-66
-103
59
14
-67
62
60
-38
40
181
90
42
218
214
119
243
290
142
291
516
478
473
566
597
617
743
784
637
594
698
637
609
672
508
366
434
354
96
92
176
-19
-122
-37
-82
-156
-73
-20
-172
-166
-27
-158
-246
-16
-4
-176
-112
-109
-172
-60
28
-159
-219
-56
-77
-146
-89
-12
-46
-43
-10
-99
-115
-13
-30
-133
-26
44
-71
-108
-81
-113
-187
-122
-53
-128
-133
-84
-122
-101
-15
-121
-169
-52
-80
-194
-109
-48
-142
-160
-104
-97
-175
-76
18
-87
-80
-21
-70
-52
68
141
30
4
102
44
110
196
52
92
305
160
2
124
-29
-208
-124
-125
-162
-140
-87
-139
-220
-163
-205
-285
-173
-117
-207
-216
-160
-240
-388
-306
113
927
2060
2919
2678
1403
144
-413
-394
-132
-41
-149
-131
-144
-282
-285
-147
-177
-258
-144
-122
-211
-165
-138
-261
-192
-29
-157
-206
-69
-72
-158
-113
-31
-96
-114
-58
-75
-37
24
-7
-35
92
177
29
69
259
242
236
326
399
339
424
646
488
485
723
602
544
735
711
565
604
522
394
376
243
144
113
113
19
-176
-134
-14
-245
-311
-45
-70
-206
-160
-144
-221
-180
-137
-171
-171
-137
-223
-280
-121
-144
-266
-205
-115
-189
-249
-138
-137
-178
-94
-138
-260
-174
-96
-148
-102
-116
-297
-262
-87
-92
-187
-233
-150
-211
-269
-80
-182
-247
-111
-219
-246
-167
-158
-234
-275
-149
-147
-189
-112
-162
-276
-241
-191
-209
-170
-115
-95
-99
-89
-76
-94
-2
62
-5
70
178
113
56
136
74
-212
-256
-207
-272
-210
-160
-235
-289
-227
-281
-393
-289
-239
-292
-271
-228
-281
-295
-338
-472
-370
271
1321
2277
2653
1955
575
-372
-548
-387
-267
-212
-176
-230
-212
-172
-237
-265
-221
-141
-234
-267
-213
-230
-132
-83
-177
-240
-208
-223
-178
-90
-116
-115
-85
-96
-162
-178
-70
-27
-111
-82
40
-8
-32
103
99
20
102
215
213
276
340
251
338
509
509
431
459
479
442
566
599
390
289
312
150
101
113
-27
-113
-134
-104
-186
-181
-113
-215
-308
-240
-161
-242
-215
-168
-219
-208
-175
-221
-268
-172
-132
-231
-206
-94
-178
-202
-62
-132
-218
-60
-61
-181
-94
-34
-153
-98
27
-115
-178
-109
-131
-182
-121
-55
-161
-172
-30
-122
-246
-103
-41
-213
-207
-44
-136
-173
-35
-63
-164
-145
-119
-148
-59
14
-74
-62
20
-27
5
178
156
14
126
257
144
136
131
-27
-121
-145
-161
-170
-134
-156
-240
-215
-174
-233
-218
-133
-153
-240
-216
-146
-253
-368
-304
-260
177
1195
2146
2606
2204
933
-209
-446
-249
-187
-219
-122
-93
-250
-242
-195
-266
-201
-112
-150
-223
-181
-188
-248
-134
-73
-124
-113
-82
-108
-154
-78
-57
-169
-92
-23
-114
-77
7
-1
-42
51
159
24
45
195
112
182
360
277
277
453
461
428
570
640
551
566
691
615
511
629
625
470
417
343
113
43
120
21
-142
-95
-34
-140
-138
-104
-197
-201
-98
-144
-227
-138
-140
-243
-145
-64
-207
-252
-137
-126
-153
-128
-144
-171
-89
-36
-144
-153
-81
-121
-168
-71
9
-148
-177
-66
-143
-185
-89
-122
-188
-108
-82
-132
-107
-65
-183
-208
-113
-185
-194
-66
-116
-250
-156
-55
-188
-222
-104
-141
-166
-90
-106
-192
-150
-74
-130
-44
25
-91
-52
146
107
-44
99
192
83
138
199
-17
-211
-163
-173
-275
-171
-116
-300
-223
-93
-244
-300
-228
-209
-212
-209
-166
-225
-314
-293
-404
-194
684
1690
2504
2808
1945
428
-322
-276
-199
-79
27
-88
-149
-151
-221
-180
-81
-146
-234
-170
-21
-71
-227
-124
-41
-146
-162
-24
-73
-163
-6
-29
-137
-21
-12
-114
-98
-36
-7
7
31
56
49
106
168
98
140
256
226
232
446
500
390
534
625
519
540
682
642
536
616
613
430
372
404
186
58
117
-12
-107
-44
-77
-218
-217
-171
-241
-202
-149
-260
-254
-194
-227
-256
-268
-259
-291
-306
-257
-261
-284
-217
-184
-261
-221
-162
-282
-286
-162
-192
-256
-192
-215
-340
-265
-120
-234
-319
-235
-313
-361
-234
-228
-346
-334
-312
-373
-359
-303
-240
-249
-276
-317
-415
-347
-175
-242
-335
-219
-292
-374
-223
-222
-303
-182
-134
-311
-313
-182
-174
-179
-105
-94
-141
6
59
-98
1
168
89
13
60
-42
-309
-282
-169
-295
-337
-252
-259
-329
-276
-267
-382
-352
-273
-319
-274
-206
-320
-361
-320
-466
-411
298
1423
2403
2826
2158
629
-299
-380
-283
-227
-153
-133
-270
-315
-247
-279
-363
-278
-213
-269
-198
-148
-303
-293
-142
-193
-234
-166
-161
-139
-139
-151
-131
-148
-60
-63
-83
-12
-60
-131
-34
140
61
59
209
135
60
220
382
321
341
432
436
549
655
583
555
622
628
632
668
686
519
356
402
336
208
186
55
-81
-9
-29
-219
-211
-76
-141
-210
-86
-119
-256
-136
-84
-281
-248
-81
-162
-252
-130
-119
-247
-192
-88
-132
-166
-69
-79
-197
-150
-104
-211
-149
-39
-126
-134
-47
-149
-252
-114
3
-127
-224
-130
-169
-206
-83
-145
-292
-203
-118
-219
-167
-79
-233
-223
-106
-172
-219
-135
-102
-213
-220
-134
-171
-210
-99
-112
-242
-131
-77
-160
-63
51
-51
-129
16
92
57
113
215
199
150
189
30
-187
-170
-212
-285
-190
-195
-247
-166
-150
-204
-245
-214
-251
-317
-154
-113
-258
-227
-217
-479
-491
202
1212
2178
2829
2469
992
-165
-357
-325
-195
-97
-161
-184
-209
-229
-193
-163
-163
-281
-303
-109
-157
-259
-141
-114
-157
-78
-26
-173
-187
-1
-41
-115
33
-12
-179
-79
37
6
-31
59
100
32
131
174
113
219
296
237
298
435
418
378
506
581
512
596
684
604
574
642
644
557
536
434
237
246
257
87
10
-6
-76
-116
-106
-105
-155
-155
-138
-180
-148
-70
-191
-281
-95
-59
-171
-137
-71
-129
-162
-54
-105
-187
-40
4
-152
-163
-38
-98
-118
-25
-120
-227
-121
-50
-146
-147
-117
-173
-171
-99
-141
-245
-139
-103
-232
-175
-49
-126
-225
-158
-183
-238
-118
-79
-217
-215
-146
-227
-187
-74
-208
-295
-160
-124
-191
-78
42
-108
-134
85
94
-67
63
177
62
166
224
5
-169
-176
-195
-276
-173
-137
-251
-161
-150
-291
-253
-141
-232
-295
-170
-217
-305
-181
-150
-353
-451
-38
828
1739
2538
2547
1245
1
-375
-463
-311
-44
-135
-257
-126
-143
-261
-191
-86
-215
-242
-78
-123
-199
-84
-84
-184
-107
-33
-115
-128
16
-27
-130
-1
54
-65
-40
111
56
24
73
-20
-37
137
217
117
187
320
188
225
467
432
379
504
578
559
622
768
664
554
736
663
474
525
443
281
236
190
26
-51
23
-49
-151
-60
-28
-197
-194
-103
-232
-265
-64
-108
-262
-121
-142
-292
-131
-54
-209
-195
-93
-157
-213
-90
-40
-156
-128
-49
-140
-154
-1
-53
-225
-79
-41
-199
-105
-10
-170
-241
-110
-181
-245
-117
-81
-133
-128
-121
-249
-250
-83
-99
-228
-186
-155
-249
-195
-61
-138
-199
-92
-182
-292
-159
-82
-201
-198
-114
-230
-207
20
-21
-111
44
-3
-137
27
159
84
137
271
128
-28
41
-67
-304
-226
-68
-218
-248
-75
-252
-344
-132
-168
-337
-297
-185
-257
-301
-128
-129
-334
-378
-280
165
1185
2346
2876
2327
1058
-124
-502
-224
-5
-140
-231
-163
-246
-256
-166
-164
-226
-91
-5
-270
-280
-106
-190
-227
-89
-107
-202
-126
-90
-186
-173
-70
-108
-144
-59
-96
-157
-18
44
-90
8
153
-28
-62
173
193
106
274
342
257
391
480
410
470
628
615
521
639
699
547
551
593
432
356
386
173
-12
71
39
-153
-117
19
-171
-280
-92
-164
-327
-189
-158
-310
-223
-110
-245
-203
-38
-200
-330
-166
-131
-279
-215
-85
-211
-219
-98
-190
-230
-101
-96
-212
-138
-37
-109
-102
-51
-123
-217
-131
-66
-223
-236
-94
-175
-180
-53
-107
-219
-161
-93
-265
-195
-35
-161
-218
-104
-119
-216
-105
-93
-260
-205
-55
-178
-228
-51
-149
-246
-61
-99
-260
-114
59
-38
-109
50
65
-14
126
141
-7
95
240
130
77
132
-67
-245
-120
-100
-180
-159
-131
-168
-216
-170
-167
-259
-174
-62
-232
-301
-177
-187
-295
-307
-209
324
1543
2654
2935
2156
742
-236
-359
-130
-161
-250
-86
-61
-259
-205
-67
-211
-258
-98
-120
-220
-73
-56
-240
-125
-4
-168
-189
1
-42
-150
24
17
-169
-110
-10
-65
-78
62
74
-2
88
121
51
125
222
184
187
422
463
270
468
648
484
560
708
566
566
739
686
587
675
605
417
401
331
139
114
141
-20
-91
-15
-38
-157
-155
-51
-164
-283
-139
-111
-218
-166
-162
-272
-174
-14
-134
-213
-100
-177
-229
-28
-48
-200
-133
-85
-173
-162
-78
-171
-211
-70
-47
-129
-128
-93
-127
-163
-87
-122
-195
-55
-106
-266
-127
-31
-154
-182
-53
-130
-286
-167
-150
-271
-172
-32
-141
-233
-93
-140
-284
-148
-47
-154
-172
-81
-146
-205
-120
-160
-226
-59
45
-102
-122
-3
-72
-78
116
47
-76
164
256
90
134
161
-82
-177
-83
-202
-320
-173
-120
-265
-226
-139
-228
-224
-178
-250
-298
-202
-147
-265
-248
-265
-479
-145
909
1971
2676
2606
1364
-19
-429
-308
-258
-223
-102
-153
-242
-104
-153
-301
-201
-127
-224
-219
-101
-157
-259
-143
-65
-174
-93
26
-164
-192
-46
-107
-167
-41
-17
-157
-38
65
-105
-82
127
112
-23
83
196
75
162
342
247
309
523
491
405
524
618
519
579
755
693
557
615
634
388
376
424
178
119
118
-67
-101
-1
-73
-192
-121
-36
-211
-256
-76
-169
-280
-189
-208
-309
-188
-110
-262
-183
-55
-226
-283
-140
-190
-280
-154
-137
-245
-186
-128
-162
-149
-113
-141
-219
-162
-93
-231
-247
-17
-83
-261
-125
-155
-321
-191
-138
-308
-258
-101
-173
-285
-167
-143
-289
-199
-89
-188
-195
-156
-262
-283
-181
-236
-291
-211
-200
-273
-164
-40
-191
-171
-12
-67
-140
1
79
-82
2
200
81
-23
40
-146
-328
-183
-180
-273
-277
-217
-245
-369
-242
-232
-401
-261
-182
-361
-278
-121
-217
-331
-394
-358
35
1057
2040
2173
1565
406
-532
-626
-398
-269
-210
-157
-146
-266
-236
-112
-265
-289
-112
-202
-293
-128
-109
-242
-204
-158
-214
-160
-69
-112
-163
-58
19
-95
-94
20
-99
-97
99
-9
-115
68
131
-31
23
214
201
177
286
279
205
384
489
387
428
516
498
517
654
626
535
622
557
321
278
322
157
91
128
-16
-78
-25
-104
-148
-70
-126
-254
-206
-77
-159
-252
-80
-89
-267
-185
-100
-222
-247
-94
-119
-195
-91
-76
-186
-102
-8
-177
-167
-39
-152
-204
-101
-85
-196
-184
-77
-136
-172
-70
-129
-263
-99
7
-187
-225
-138
-184
-193
-44
-127
-297
-128
-73
-225
-176
-111
-241
-286
-139
-97
-243
-189
-109
-211
-114
6
-76
-115
6
26
-37
86
137
48
88
158
-9
-82
-66
-285
-380
-233
-181
-299
-254
-149
-315
-360
-156
-222
-349
-179
-100
-295
-272
-141
-428
-500
160
947
1723
2447
2168
819
-247
-505
-478
-288
-119
-183
-245
-156
-89
-197
-214
-124
-235
-231
-65
-163
-277
-178
-152
-228
-174
-22
-109
-239
-94
-84
-127
16
15
-152
-110
57
-33
-95
43
3
-53
103
153
29
73
232
177
168
450
471
287
479
630
512
461
601
604
455
575
581
392
456
382
106
89
170
43
-90
-15
-13
-127
-138
-194
-276
-164
-61
-218
-300
-73
-150
-322
-147
-128
-220
-169
-109
-138
-203
-144
-124
-158
18
40
-171
-128
4
-108
-159
27
-40
-198
-48
-20
-109
-59
-60
-149
-169
-41
-54
-186
-98
-98
-207
-135
-45
-150
-169
-13
-78
-230
-137
-88
-203
-144
-24
-111
-221
-89
-67
-173
-129
-154
-206
-135
-6
-53
-104
51
38
-13
128
83
-18
187
287
82
35
134
-67
-279
-170
-113
-213
-163
-108
-249
-289
-199
-203
-270
-210
-90
-165
-213
-180
-362
-441
-263
86
908
2027
2734
2421
1171
-8
-457
-380
-83
-50
-250
-146
-46
-269
-316
-143
-222
-260
-99
-175
-275
-157
-168
-219
-76
-26
-139
-190
-98
-130
-238
-93
-17
-130
-113
27
-35
-138
-2
33
-73
32
102
-20
92
234
220
248
282
282
285
449
543
458
577
713
618
588
723
659
484
576
594
370
263
294
144
26
116
-7
-187
-121
-78
-174
-133
-45
-159
-206
-94
-108
-243
-191
-116
-219
-177
-108
-236
-214
-70
-155
-199
-77
-119
-205
-118
-67
-147
-175
-124
-127
-188
-93
-23
-171
-160
-41
-160
-208
-102
-153
-148
-16
-50
-197
-177
-56
-116
-176
-85
-137
-213
-95
-86
-207
-146
-69
-152
-189
-90
-148
-189
23
9
-214
-193
-80
-157
-160
-12
-67
-159
12
62
-80
-16
97
33
28
213
228
77
214
258
69
92
60
-217
-312
-107
-124
-217
-56
-65
-242
-239
-144
-209
-256
-119
-141
-211
-91
-156
-398
-267
367
1260
2315
3023
2461
943
-85
-278
-302
-195
-6
-81
-231
-120
-96
-269
-206
-173
-231
-117
-54
-149
-210
-133
-159
-255
-127
-102
-231
-92
19
-214
-203
-11
-137
-202
-43
48
-53
-55
48
-18
-32
114
128
59
192
235
148
287
401
282
351
600
576
507
634
688
605
657
719
551
544
585
354
222
203
171
1
-119
7
-67
-192
-123
-143
-231
-168
-131
-181
-170
-185
-271
-266
-127
-200
-321
-150
-121
-302
-224
-131
-240
-219
-131
-207
-286
-135
-116
-295
-208
-118
-219
-221
-130
-160
-232
-172
-165
-266
-228
-111
-191
-199
-111
-229
-291
-192
-143
-209
-227
-180
-283
-319
-164
-190
-249
-102
-168
-320
-192
-129
-279
-295
-153
-206
-329
-177
-93
-298
-267
-112
-201
-164
2
-78
-177
-33
47
-38
15
180
106
-6
87
32
-154
-194
-240
-288
-179
-155
-285
-270
-127
-207
-407
-253
-75
-282
-358
-222
-234
-297
-332
-408
-273
551
1729
2662
2948
2012
429
-365
-272
-177
-203
-159
-163
-267
-239
-124
-241
-315
-188
-179
-260
-224
-142
-207
-219
-82
-144
-221
-36
-46
-156
-80
-65
-125
-116
-10
-44
-65
56
21
-32
95
160
71
127
244
175
220
389
398
384
517
575
491
615
804
719
623
747
795
721
783
757
586
538
482
316
226
230
161
38
51
46
-97
-86
-8
-86
-81
-16
-100
-166
-64
9
-149
-185
-67
-83
-97
-44
-96
-187
-92
-57
-138
-94
-48
-107
-133
-61
-48
-106
-56
1
-48
-60
-16
-99
-153
-51
-69
-141
-82
-90
-169
-104
-43
-92
-99
-66
-121
-160
-69
-30
-122
-117
-29
-118
-204
-97
-88
-188
-95
68
-92
-200
-74
-137
-195
-69
-65
-161
-3
109
-37
-20
52
2
53
155
158
64
112
178
94
92
31
-141
-228
-150
-147
-248
-165
-116
-216
-201
-154
-261
-285
-208
-250
-309
-210
-197
-376
-424
-244
238
1201
2308
2698
1902
543
-302
-505
-364
-113
-150
-248
-99
-186
-368
-223
-184
-273
-232
-154
-179
-157
-57
-170
-263
-137
-130
-202
-155
-76
-79
-137
-76
-71
-132
-13
2
-138
-61
76
-9
-11
190
105
-16
153
206
161
240
307
301
375
452
447
472
587
653
516
560
719
580
492
550
440
276
303
254
36
-5
12
-98
-154
-105
-117
-179
-111
-121
-309
-280
-170
-217
-184
-136
-204
-212
-127
-148
-235
-156
-85
-223
-174
-44
-169
-256
-109
-43
-175
-153
-61
-121
-143
-63
-117
-223
-106
-23
-181
-219
-123
-163
-146
-63
-123
-216
-152
-101
-200
-209
-135
-170
-206
-172
-203
-283
-238
-172
-233
-178
-113
-212
-260
-218
-198
-180
-61
-31
-149
-84
31
-70
-65
94
135
119
137
131
11
-120
-134
-174
-229
-206
-200
-248
-235
-208
-310
-276
-137
-220
-297
-206
-194
-274
-229
-262
-457
-342
326
1209
2071
2585
1824
339
-382
-503
-460
-234
-85
-198
-306
-187
-174
-257
-151
-130
-269
-254
-105
-108
-235
-203
-141
-166
-153
-126
-200
-191
-73
-139
-169
-49
-18
-87
-115
-15
-3
-31
6
-30
26
112
80
60
145
198
182
264
352
316
358
465
458
480
560
617
564
524
601
553
473
426
306
179
148
136
-55
-92
19
-127
-237
-132
-117
-228
-181
-141
-245
-175
-98
-218
-223
-114
-178
-249
-132
-90
-220
-206
-83
-107
-180
-133
-99
-145
-77
-58
-148
-69
-18
-132
-121
-50
-70
-89
-93
-117
-145
-112
-108
-164
-169
-97
-125
-233
-167
-138
-192
-142
-85
-165
-213
-99
-107
-226
-151
-84
-169
-133
-122
-221
-230
-134
-108
-196
-95
6
-81
-48
41
-3
-8
126
159
118
198
169
12
-54
-118
-251
-213
-100
-220
-304
-207
-185
-313
-308
-229
-272
-251
-187
-185
-218
-215
-253
-443
-348
298
1174
2100
2746
2251
786
-226
-434
-335
-163
-146
-191
-210
-214
-216
-199
-168
-236
-291
-240
-119
-197
-281
-170
-188
-225
-178
-175
-229
-196
-46
-96
-194
-49
-57
-191
-101
-27
-73
-31
55
-6
-4
103
68
36
142
224
168
263
410
317
313
475
531
514
580
629
584
603
685
566
422
447
301
134
192
106
-131
-148
-112
-207
-257
-168
-163
-310
-219
-149
-315
-270
-142
-217
-282
-180
-180
-311
-211
-148
-287
-232
-136
-240
-281
-143
-182
-260
-91
-92
-222
-170
-115
-155
-180
-110
-129
-187
-111
-128
-249
-206
-125
-194
-183
-81
-136
-263
-207
-129
-226
-208
-94
-144
-180
-127
-139
-242
-206
-90
-200
-222
-87
-144
-215
-110
-107
-185
-108
-104
-191
-77
56
-24
-56
72
55
11
121
130
43
98
175
76
-21
-60
-156
-236
-176
-201
-353
-288
-186
-282
-340
-249
-264
-374
-283
-160
-262
-305
-274
-422
-487
-101
754
1784
2714
2828
1663
232
-364
-375
-250
-69
-101
-292
-257
-125
-195
-217
-167
-203
-214
-157
-164
-238
-171
-101
-188
-183
-99
-116
-128
-1
-46
-228
-111
7
-72
-82
-33
-47
-27
38
-25
-57
77
128
41
68
252
274
246
362
413
442
524
567
561
571
694
732
653
685
649
539
504
416
288
246
243
96
-60
5
-28
-192
-102
-22
-156
-159
-98
-163
-180
-84
-146
-281
-211
-129
-191
-196
-141
-214
-218
-78
-130
-270
-146
-77
-231
-227
-122
-152
-177
-92
-113
-210
-116
-98
-229
-157
-92
-203
-209
-80
-106
-222
-137
-122
-257
-200
-119
-229
-219
-82
-180
-260
-135
-145
-242
-191
-92
-181
-257
-162
-166
-213
-132
-75
-250
-283
-133
-163
-176
-138
-137
-128
-28
31
-101
-18
135
69
74
88
83
119
131
130
-18
-232
-219
-198
-224
-152
-184
-249
-183
-149
-256
-278
-208
-242
-250
-211
-223
-223
-239
-350
-321
327
1473
2508
2893
2178
692
-316
-374
-198
-205
-177
-95
-181
-242
-182
-222
-274
-185
-82
-162
-196
-168
-251
-185
-84
-132
-187
-158
-112
-159
-134
-23
-77
-144
-37
-32
-64
43
38
-12
55
115
95
52
111
142
150
275
329
314
426
520
469
525
654
645
596
655
712
701
699
713
585
419
437
348
178
169
98
-91
-85
-17
-97
-223
-368
-445
-472
-436
-368
-297
-237
-257
-237
-209
-159
-125
-149
-163
-137
-104
-102
-106
-117
-60
-56
-66
-15
-104
-111
5
-72
-76
3
-65
-68
33
-22
-122
-85
-104
-105
-111
-72
15
-187
-188
16
-72
-109
-44
-45
-16
-80
-153
-19
-4
-215
-212
-98
-187
-181
10
-25
-206
-194
-134
-141
-150
-109
-109
-169
-138
-120
-162
-171
-120
-3
-119
-187
21
35
-1
-88
39
323
168
-49
-121
-286
-401
-317
-388
-458
-289
-227
-199
-306
-339
-183
-328
-483
-307
-162
-318
-401
-384
-514
-518
-142
711
1887
2595
2149
997
-6
-558
-644
-385
-301
-391
-409
-503
-422
-263
-280
-300
-369
-371
-306
-343
-414
-493
-411
-456
-498
-215
-147
-210
-197
-242
-327
-248
-149
-208
-152
-186
-258
-137
-115
-153
-9
101
-110
-153
104
165
85
130
310
449
425
408
490
528
695
690
503
590
656
574
434
335
407
414
270
128
42
-17
-177
-219
-206
-95
-26
-168
-105
-178
-325
-208
-89
-219
-287
-119
-240
-360
-195
-190
-187
-162
-243
-126
-103
-166
36
39
-207
-133
-15
-131
-136
-135
-144
-230
-280
-60
-2
8
-49
-245
-30
-55
-375
-167
4
-94
-122
-129
-150
-217
-178
-124
-102
-40
-48
-227
-388
-195
22
45
-33
-286
-283
-81
-135
-97
-37
-202
-177
-77
-275
-343
-107
51
59
47
73
123
104
17
45
163
233
271
139
-50
58
149
-55
-241
-194
-205
-240
-140
-142
-238
-182
-162
-403
-307
-139
-277
-229
-91
-186
-436
-370
197
1091
2023
2756
2691
1313
-50
-458
-483
-305
-162
-165
-243
-281
-144
-169
-192
-121
-134
-193
-256
-198
-58
-75
-106
-90
-112
-119
-206
-147
-44
15
-61
-166
-60
-57
-152
59
228
-14
-85
78
277
228
-1
88
79
126
355
303
377
419
406
631
684
645
617
570
689
734
651
656
668
553
444
388
109
-5
278
228
-94
-166
-128
-121
-53
-146
-218
13
-14
-219
-155
-268
-401
-46
66
-248
-301
-234
-240
-91
108
-26
-146
-70
-101
-10
-82
-182
-47
-63
-56
-52
-173
-159
-117
-149
-136
-119
-174
-36
42
-233
-202
47
-90
-238
-56
12
-81
-113
-249
-374
-133
35
-140
-190
-120
-63
-109
-132
-223
-235
-24
-1
-97
-121
-152
-137
25
106
-68
-248
-83
2
-134
-38
38
-90
5
268
98
-54
169
127
52
144
63
-73
-247
-216
-94
-271
-232
-157
-359
-285
-143
-251
-246
-148
-257
-375
-153
0
-323
-570
-280
385
1470
2418
2763
2155
602
-220
-368
-540
-240
51
-83
-166
-93
-187
-278
-215
-102
-113
-217
-108
-71
-211
-211
-71
-102
-252
-103
18
-30
-7
-48
-113
-16
19
-43
75
24
-114
-49
91
142
157
249
209
185
252
354
390
339
478
561
381
478
679
599
728
996
733
450
738
766
656
612
329
309
362
151
44
68
-40
-66
106
161
-34
-51
9
-151
-218
-196
-201
-157
-9
61
-122
-91
-66
-236
-34
50
20
90
-249
-263
152
142
108
137
21
-103
-96
92
136
-19
-158
-169
-36
-24
-63
-13
-72
32
76
-159
-111
-76
-126
32
-26
-241
-190
-15
42
-106
-165
-107
-167
-160
-136
-184
-174
-90
-39
-80
-94
-60
-243
-252
-24
-66
-113
21
-26
-98
-57
-214
-296
-117
65
155
143
34
-76
-53
62
14
-62
-127
-235
-137
-122
-363
-396
-177
-192
-311
-250
-287
-318
-238
-223
-178
-100
-157
-456
-497
265
1269
2137
2833
2309
674
-354
-516
-374
-97
45
-52
-178
-169
-96
-142
-243
-285
-267
-95
-133
-155
13
-80
-35
18
-157
-280
-176
-7
-7
-29
-103
-96
46
-65
-189
-21
76
141
83
-46
186
230
141
211
143
95
169
377
568
483
470
533
497
593
736
870
748
566
597
664
684
517
464
374
52
159
151
2
188
-9
-180
6
-80
-180
-164
-136
-106
-125
-160
-165
-105
-162
-147
-39
-128
-120
27
-108
-94
-106
-193
-20
-64
-109
-80
-87
-31
-23
33
48
-13
29
14
-121
-105
-104
-155
-109
-113
-140
-146
-30
52
-108
-115
43
-43
-131
-179
-169
8
-43
-115
-109
-93
25
-12
-109
-98
-114
-110
-56
-67
-102
-134
-165
-136
-84
-93
-104
-78
-45
35
-7
-16
174
130
55
109
34
-22
165
345
225
185
87
-182
-163
-72
-70
-159
-303
-140
79
-17
-102
-192
-275
-102
-47
-189
-118
-53
-270
-367
-105
496
1528
2625
3023
2227
791
-130
-262
-173
-202
-236
-88
-32
-184
-234
-230
-237
-311
-193
17
-207
-229
-98
-86
-118
-261
-91
-73
-191
-194
-241
-192
-202
-177
-66
-116
-197
-212
-189
-73
-30
13
-22
-51
61
25
35
43
9
270
381
181
115
356
492
436
398
427
504
363
389
428
261
178
-34
-160
-144
-292
-336
-369
-473
-426
-490
-598
-614
-595
-699
-806
-629
-678
-735
-645
-784
-659
-500
-590
-558
-696
-799
-607
-563
-599
-617
-671
-654
-696
-686
-570
-651
-669
-585
-628
-581
-588
-632
-568
-538
-619
-671
-530
-546
-697
-634
-519
-549
-631
-636
-664
-703
-673
-713
-699
-578
-648
-776
-714
-636
-661
-705
-724
-730
-748
-763
-745
-663
-688
-679
-564
-623
-675
-647
-643
-671
-689
-516
-400
-509
-514
-361
-402
-473
-385
-413
-374
-303
-269
-257
-348
-535
-612
-486
-468
-473
-553
-610
-450
-452
-468
-423
-528
-535
-492
-464
-401
-393
-447
-600
-634
-55
1229
2458
2914
2311
780
-271
-462
-441
-265
-238
-265
-215
-235
-221
-263
-299
-232
-234
-164
-12
-61
-190
-70
-65
-196
-65
30
-114
-270
-146
-55
4
85
-1
-17
6
89
218
155
134
247
95
166
330
134
240
437
531
573
526
767
726
533
701
801
904
966
890
887
928
864
771
847
768
487
445
535
360
160
222
117
-20
184
233
71
84
51
-57
62
162
45
-67
59
154
27
24
75
97
152
93
-52
-5
189
95
0
89
118
155
84
143
145
-102
33
141
81
182
123
39
146
198
44
-21
55
66
40
105
139
64
67
64
40
152
183
62
29
82
96
-9
-113
67
68
-36
234
160
-78
32
138
133
149
243
174
84
195
276
212
273
323
159
198
401
412
351
246
23
-87
-29
20
-27
-16
11
-11
31
-11
-90
31
51
25
49
-75
-24
-175
-454
-137
523
1234
2113
2859
2363
885
-79
-466
-523
-43
293
130
74
72
-33
39
155
-5
-67
-44
-27
112
88
-1
91
207
-40
-6
200
76
215
198
96
204
65
100
222
162
285
339
250
170
50
126
228
327
423
472
510
374
533
723
522
428
852
1005
778
688
587
819
800
448
540
709
559
335
427
365
193
228
107
13
-116
-42
133
-7
-19
-144
-288
27
26
-271
-207
-80
-39
-41
-22
50
-87
-228
-74
86
71
30
-67
2
71
-103
-197
-108
177
153
24
43
-29
89
-43
-188
115
93
-78
-79
-47
81
174
51
-169
-23
146
-44
-65
36
-72
20
211
42
-9
140
23
-185
-142
116
126
129
235
81
38
130
209
233
245
275
222
295
409
330
285
285
-73
-270
-63
-59
-51
8
37
101
27
-37
-145
-158
47
50
-21
15
54
-139
-416
-99
786
1668
2401
2492
1430
219
-279
-351
-76
146
-19
-73
7
-27
-99
-6
-49
-235
-124
46
109
32
-122
-31
43
-98
-24
73
-19
-3
1
98
119
-127
12
206
51
67
168
58
67
237
127
16
103
297
354
293
469
457
457
635
704
651
554
560
699
722
609
661
612
538
633
476
303
253
81
103
236
162
-27
-133
-151
-140
-59
-121
-183
-125
-193
-147
-56
-130
-175
-53
-92
-212
-48
-90
-121
77
-77
-270
-31
141
119
214
12
-174
81
45
-172
-10
174
213
47
-109
-35
57
176
138
-12
-78
-32
7
-41
61
106
-156
-163
16
-41
-92
44
113
-10
-95
-100
31
-24
-9
151
-86
-25
113
-111
-105
-47
-134
-109
-34
-116
-150
79
39
-309
-115
102
12
34
-3
-112
-229
-296
-293
-202
-255
-361
-240
-379
-434
-192
-184
-127
-162
-364
-206
-47
-334
-520
-369
-101
710
1705
2437
2647
1483
43
-309
-454
-537
-270
-262
-165
-59
-250
-206
-181
-421
-348
-155
-311
-398
-388
-612
-511
-441
-556
-232
-249
-356
-365
-707
-513
-115
-365
-384
-273
-529
-373
-62
-210
-320
-239
-272
-145
-5
-34
16
123
111
93
182
219
335
362
413
461
282
353
592
405
389
653
315
48
276
329
-186
-359
-131
-130
-95
-275
-414
-352
-370
-399
-481
-504
-376
-266
-517
-609
-249
-357
-495
-482
-613
-472
-369
-241
-399
-653
-321
-176
-309
-267
-342
-421
-324
-347
-397
-389
-384
-317
-317
-391
-331
-316
-296
-359
-377
-224
-396
-461
-261
-245
-344
-427
-439
-322
-314
-377
-410
-580
-445
-139
-321
-410
-250
-438
-434
-197
-315
-398
-214
-186
-272
-163
-136
-231
-180
-63
114
86
-58
180
111
2
34
-297
-413
-315
-259
-302
-283
-206
-330
-310
-216
-242
-234
-174
-79
-128
-190
-221
-200
-267
-47
857
1857
2606
2841
1785
331
-168
-206
-115
113
182
96
104
76
9
-47
16
177
154
174
161
-7
9
214
235
186
182
154
234
295
152
8
163
175
128
248
299
312
238
246
297
283
320
355
342
408
526
347
327
682
735
712
857
767
712
858
944
957
836
747
644
703
866
625
413
493
483
362
247
129
58
117
162
-38
-134
-94
-158
-19
181
114
54
-2
-114
-64
65
47
-78
-103
-126
8
78
26
-57
-251
50
341
123
-98
-45
41
-66
-49
41
-14
-50
19
-76
-136
16
-9
-56
-55
-155
-22
205
74
-105
-178
-143
94
132
-76
-129
9
-50
-258
-162
38
-18
17
131
126
128
94
99
100
173
154
86
254
225
130
141
62
-56
-171
-54
10
-214
-140
-24
-170
-175
-61
-38
-101
-158
-193
-128
-133
-308
-348
-31
662
1650
2667
2921
1878
506
-316
-470
-131
24
-20
12
76
-60
-250
-124
-25
-108
-187
-208
-81
9
-132
-64
60
-122
-114
-2
-69
-107
-67
-89
-152
-55
-41
-147
-119
-25
56
67
14
-166
-90
288
293
192
247
322
396
368
414
427
488
714
696
627
718
642
589
549
490
714
609
312
432
414
215
186
92
-45
-27
-19
23
-69
-241
-114
-130
-228
-142
-172
-196
-226
-355
-207
23
-75
-180
-168
-68
-77
-229
-148
-100
-132
-109
-28
-1
-162
-149
-38
-104
-171
-110
-106
-141
-45
9
-127
-308
-282
-103
-124
-199
-110
-170
-209
-149
-288
-267
-178
-229
-152
-164
-251
-239
-224
-203
-274
-309
-209
-235
-319
-275
-289
-381
-112
30
-237
-213
-166
-306
-296
-100
67
-35
-108
-32
-212
-400
-387
-387
-324
-311
-363
-315
-398
-439
-275
-239
-368
-508
-360
-248
-469
-671
-657
-258
699
1836
2523
2524
1403
-99
-594
-545
-422
-225
-420
-493
-306
-409
-413
-439
-529
-454
-517
-401
-278
-395
-414
-499
-564
-307
-267
-494
-407
-288
-467
-513
-206
-252
-392
-248
-292
-383
-317
-64
-75
-237
-159
-134
-127
-80
-68
104
187
-69
35
255
186
458
637
390
340
403
426
583
602
330
227
315
166
-124
-75
-18
-295
-440
-366
-296
-382
-434
-303
-373
-454
-337
-389
-454
-433
-436
-403
-408
-401
-388
-452
-448
-337
-341
-447
-384
-277
-369
-359
-274
-381
-355
-228
-286
-321
-249
-274
-307
-228
-256
-330
-203
-172
-269
-213
-227
-299
-281
-232
-228
-297
-235
-185
-258
-263
-201
-234
-352
-228
-167
-328
-222
-126
-254
-218
-127
-188
-267
-207
-169
-294
-249
-147
-155
-83
-116
-125
-29
-33
119
103
-190
-313
-354
-375
-428
-353
-235
-342
-398
-368
-394
-339
-289
-294
-333
-467
-481
-497
-529
-449
-647
-529
339
1242
2198
2922
2398
826
-311
-523
-417
-246
-304
-361
-223
-307
-442
-401
-354
-346
-331
-327
-243
-251
-315
-278
-266
-272
-269
-276
-266
-253
-265
-266
-262
-156
-132
-241
-213
-166
-171
-112
-61
-83
-81
-29
-9
-6
128
213
140
197
282
334
412
443
491
543
535
527
544
551
566
537
452
379
260
112
92
-10
-154
-132
-174
-221
-217
-232
-219
-236
-240
-231
-285
-174
-178
-372
-296
-253
-304
-244
-216
-201
-253
-261
-167
-126
-124
-79
23
-83
-125
-150
-226
-138
-125
-132
-201
-173
-69
-155
-130
-75
-154
-129
-43
-90
-140
-103
-161
-188
-176
-185
-186
-134
-157
-187
-98
-159
-80
-19
-249
-244
-104
-179
-233
-106
-11
-78
-206
-162
-22
-65
-16
89
-13
18
147
105
93
189
176
51
-78
-135
-216
-221
-113
-188
-191
-118
-220
-231
-185
-194
-229
-243
-168
-226
-252
-191
-322
-414
-71
766
1822
2609
2464
1260
36
-369
-257
-221
-177
30
-124
-291
-118
-80
-154
-196
-153
-88
-66
-66
-79
-52
-32
-64
-90
18
6
-103
26
-29
-116
53
119
4
-50
91
95
91
197
89
-2
37
115
201
193
248
243
198
336
430
443
413
454
592
554
519
562
626
650
542
440
413
346
201
90
116
89
-53
-76
-66
-57
-147
-205
-139
-136
-158
-149
-149
-211
-298
-330
-226
-127
-194
-215
-133
-144
-140
-110
-159
-178
-26
-15
-189
-227
-110
85
-29
-200
-61
-90
-105
110
-93
-290
-108
-40
-114
-156
-59
-152
-155
-91
-253
-158
-82
-138
-128
-199
-205
-219
-322
-296
-246
-261
-166
-86
-202
-307
-172
-81
-166
-96
-163
-330
-158
-196
-502
-397
-204
-375
-500
-439
-451
-405
-404
-487
-464
-450
-427
-413
-470
-476
-452
-473
-435
-420
-132
698
1486
1793
1390
350
-532
-823
-592
-307
-397
-382
-277
-454
-443
-289
-357
-386
-362
-368
-375
-412
-357
-423
-514
-336
-362
-475
-335
-341
-437
-399
-333
-343
-381
-300
-280
-262
-96
-167
-419
-337
-152
-260
-230
36
-16
-107
58
124
83
265
411
243
300
420
338
388
547
521
431
573
560
204
149
202
-34
17
73
-21
-84
-177
-79
-95
-109
6
-106
-148
-74
-155
-146
-40
-58
-30
-23
-74
-38
-6
96
193
164
148
170
139
138
254
219
142
269
252
123
230
273
191
363
352
65
133
269
190
143
206
298
183
158
137
21
44
-17
8
25
-42
-94
-186
-13
45
-161
-87
32
-94
-203
-136
-61
-37
-7
-22
-66
-27
120
43
-173
-293
-368
-424
-450
-226
-273
-508
-359
-298
-377
-273
-264
-322
-222
-290
-367
-311
-307
-421
-340
439
1304
1955
2360
1757
386
-554
-517
-293
-308
-201
-224
-350
-227
-175
-313
-319
-211
-214
-301
-248
-167
-190
-232
-193
-132
-247
-169
-111
-295
-180
-107
-208
-135
-80
-174
-196
-69
-32
-192
-208
-74
-26
53
86
-44
57
272
195
286
390
398
397
338
579
582
408
549
652
583
479
457
295
286
340
109
90
92
-101
-98
-54
-131
-169
-166
-132
-222
-221
-116
-245
-296
-263
-318
-281
-208
-115
-128
-268
-217
-102
-240
-252
-159
-209
-113
-121
-152
-143
-203
-70
-125
-246
-102
-124
-242
-217
-181
-197
4
-16
-355
-181
-64
-137
79
-77
-309
-162
-107
-172
-267
-264
-239
-254
-177
-147
-70
25
26
-7
-61
29
73
115
329
303
205
134
211
254
-155
-251
-91
-205
-90
29
-184
-187
-156
-247
-163
-176
-247
-180
-233
-174
-232
-480
-378
-6
719
1679
2268
2044
924
-289
-736
-460
-177
-285
-369
-234
-184
-330
-337
-292
-285
-255
-350
-331
-324
-323
-261
-313
-232
-219
-310
-342
-368
-287
-297
-173
-98
-313
-290
-163
-196
-366
-218
1
-265
-245
-63
-123
11
45
-63
97
211
112
184
346
283
332
527
466
305
406
522
448
415
433
432
255
7
-38
2
18
8
-89
-146
-67
-96
-239
-205
-155
-137
-115
-200
-273
-241
-124
-172
-306
-217
-89
-155
-277
-115
-85
-308
-117
-51
-294
-221
-59
-62
-108
-41
-69
-111
17
10
-83
35
184
16
-57
22
-56
-56
55
132
54
54
212
101
54
170
54
46
250
328
269
271
330
371
429
487
432
405
531
532
371
381
339
87
138
286
190
107
180
113
1
174
188
34
127
204
33
-55
71
67
-76
175
942
1865
2593
2707
1711
332
-169
-77
100
264
231
100
91
129
140
112
120
201
122
118
216
165
180
246
132
96
196
206
176
182
251
187
99
186
199
164
288
291
192
365
419
226
418
549
279
420
682
526
450
600
681
725
770
808
821
771
879
982
851
737
764
716
594
627
531
327
372
367
169
79
126
141
103
114
123
56
5
-16
34
86
39
-23
0
99
100
-8
56
96
20
80
33
-3
35
16
13
29
122
133
14
28
103
22
4
116
89
22
63
36
-32
23
74
49
22
18
-38
-77
28
84
27
81
223
183
86
123
121
165
262
231
223
284
300
263
151
4
-17
-43
-133
-158
-101
-5
-81
-134
-79
-75
-105
-173
-104
-57
-160
-178
-242
-421
-152
769
1688
2401
2619
1545
75
-412
-289
-221
-120
-58
-224
-242
-138
-202
-235
-134
-150
-309
-211
-76
-217
-226
-137
-179
-190
-141
-111
-192
-207
-100
-84
-89
-77
-112
-118
-25
44
25
12
15
47
107
143
172
115
169
357
319
346
517
474
446
585
637
591
672
669
547
636
675
531
501
472
282
127
158
160
62
27
-38
-106
-133
-67
-52
-173
-125
-80
-172
-131
-88
-158
-112
-73
-168
-196
-83
-50
-175
-138
-42
-88
-127
-62
6
-64
-27
41
-128
-140
54
7
-85
-32
-68
-119
-46
18
-107
-147
40
16
-94
-55
-91
-128
-55
24
-32
-92
-14
-13
-58
32
39
-10
114
124
94
181
189
159
179
297
277
101
6
-79
-179
-216
-132
-103
-190
-123
-62
-178
-213
-132
-204
-226
-45
-167
-275
-123
-331
-536
-46
890
1930
2798
2704
1319
1
-294
-327
-281
-101
-125
-246
-227
-129
-188
-243
-218
-229
-217
-166
-176
-238
-195
-98
-173
-240
-136
-73
-136
-183
-142
-134
-72
-22
-141
-168
-6
8
-90
14
54
-34
31
110
112
153
182
238
261
317
440
363
405
566
564
595
613
567
541
562
588
534
389
310
253
131
98
63
-116
-178
-83
-174
-256
-165
-228
-255
-133
-201
-314
-229
-188
-286
-193
-104
-260
-293
-146
-107
-221
-215
-95
-176
-271
-187
-170
-212
-170
-164
-178
-166
-196
-230
-199
-119
-216
-267
-54
-141
-371
-242
-131
-210
-307
-289
-251
-282
-223
-206
-253
-155
-155
-300
-272
-159
-195
-242
-70
-70
-270
-154
-18
-42
30
68
-46
-31
102
-19
-211
-189
-258
-420
-322
-273
-424
-489
-416
-330
-283
-242
-249
-377
-411
-282
-428
-477
-291
-545
-597
262
1366
2269
2827
2016
275
-521
-492
-361
-255
-317
-328
-310
-380
-361
-310
-333
-340
-311
-291
-201
-249
-409
-302
-270
-327
-187
-68
-126
-187
-84
-120
-225
-71
66
-44
-102
47
3
-44
-26
-122
-15
191
306
257
236
357
360
314
436
547
426
465
655
659
610
676
749
610
625
688
490
430
427
266
126
84
98
43
-33
-52
-92
-88
-41
-90
-133
-104
-203
-181
-27
-61
-134
-113
-22
-54
-181
-99
-57
-136
-68
-6
-107
-132
-40
-52
-79
19
-21
-168
-101
-24
-48
-46
-94
-143
-60
38
-55
-127
-22
-90
-206
-48
17
-209
-254
-43
-9
-132
-90
-61
-178
-134
21
-25
-161
-125
3
34
-49
-42
-7
3
146
157
147
312
210
48
145
116
-106
-148
-76
-194
-245
-155
-132
-211
-220
-183
-278
-211
-84
-263
-250
-79
-216
-367
-433
-452
-102
867
2088
2859
2622
1359
36
-367
-264
-217
-121
-140
-242
-211
-196
-189
-124
-198
-256
-161
-127
-153
-101
-130
-170
-125
-144
-158
-137
-74
-59
-78
-128
-169
-115
-70
-39
-69
-61
15
-7
41
139
84
72
169
186
97
140
304
285
271
417
437
445
516
515
505
598
557
409
459
472
314
210
204
73
-131
-120
-90
-249
-305
-269
-355
-412
-356
-370
-443
-447
-424
-412
-422
-439
-416
-429
-420
-419
-469
-440
-443
-459
-396
-348
-433
-465
-377
-417
-449
-365
-330
-429
-479
-390
-365
-410
-421
-428
-452
-348
-290
-413
-416
-318
-354
-391
-306
-345
-442
-347
-264
-331
-346
-251
-277
-324
-214
-263
-338
-247
-271
-327
-252
-111
-134
-236
-122
-41
-115
29
103
-53
-1
40
-78
-156
-246
-361
-328
-225
-294
-345
-284
-337
-357
-263
-285
-332
-322
-297
-260
-401
-398
-379
-643
-548
47
1050
2201
2846
2321
736
-370
-569
-570
-428
-274
-229
-297
-349
-276
-258
-310
-289
-255
-205
-171
-246
-186
-55
-82
-127
33
159
76
130
276
264
119
216
395
237
268
430
346
301
414
539
510
497
579
504
557
776
763
754
894
893
813
889
1014
997
1036
1161
1147
1151
1126
940
879
1050
941
611
499
500
459
318
273
303
297
188
102
191
188
139
37
62
197
64
98
17
-32
112
25
179
64
-163
-10
0
-19
19
-67
-112
-63
3
18
-72
-45
-42
-220
-156
-115
-261
-96
70
-151
-281
-169
-239
-221
-71
-209
-302
-190
-108
-210
-336
-212
-216
-339
-198
-236
-397
-304
-306
-345
-245
-222
-298
-349
-220
-166
-253
-153
-41
-125
-209
-14
48
-206
-173
-171
-522
-556
-486
-550
-442
-373
-436
-526
-508
-557
-538
-339
-359
-526
-609
-511
-483
-727
-810
-557
196
1446
2452
2654
1695
367
-400
-624
-466
-440
-708
-592
-223
-470
-665
-323
-326
-544
-525
-550
-577
-497
-366
-425
-526
-506
-443
-394
-367
-411
-559
-439
-424
-527
-367
-399
-400
-298
-436
-327
-159
-312
-254
-138
-200
-18
56
-48
52
125
29
22
174
240
274
374
397
332
469
551
292
238
327
113
-86
-6
-100
-306
-216
-210
-379
-433
-328
-323
-455
-437
-501
-504
-274
-357
-485
-377
-429
-418
-425
-469
-328
-444
-464
-204
-386
-477
-210
-348
-402
-241
-278
-446
-532
-288
-260
-439
-351
-277
-289
-235
-329
-440
-338
-350
-372
-298
-279
-334
-337
-230
-285
-356
-277
-297
-417
-385
-171
-300
-401
-93
-318
-563
-336
-205
-220
-331
-248
-123
-110
57
-17
-96
6
-261
-103
259
3
-196
-292
-250
-232
-444
-462
-375
-363
-414
-404
-447
-404
-213
-233
-389
-329
-154
-270
-482
-462
-537
-399
668
1995
2892
2860
1429
29
-342
-394
-354
-298
-93
-80
-365
-292
-96
-282
-355
-168
-294
-375
-211
-203
-370
-256
-76
-212
-287
-147
-154
-233
-2
37
-159
-196
-198
-116
-43
-14
-40
-43
117
109
0
168
245
-66
11
409
316
275
559
567
504
679
735
550
568
790
749
446
429
742
649
427
435
314
135
48
53
2
24
-1
-143
-154
-54
-13
-94
-141
-74
-41
-37
-84
-232
-55
90
-245
-332
-3
-117
-176
183
172
-20
-19
-61
-11
130
2
50
207
67
113
168
43
97
208
375
415
285
232
258
223
176
313
361
319
185
199
297
217
283
193
157
337
310
146
220
580
518
323
442
358
247
378
501
322
418
526
300
525
653
381
383
626
594
325
255
266
128
31
78
50
-91
-98
-14
-28
-125
-72
-78
-259
-164
-97
-289
-254
-379
-636
-341
262
1280
2495
2866
1873
188
-695
-750
-595
-338
-321
-436
-485
-445
-632
-732
-397
-585
-771
-472
-600
-710
-480
-609
-782
-615
-551
-620
-726
-759
-702
-749
-766
-645
-677
-826
-829
-609
-676
-827
-752
-772
-801
-892
-805
-714
-882
-813
-706
-928
-806
-818
-1060
-724
-681
-1008
-937
-840
-972
-955
-845
-986
-1159
-1033
-1072
-1398
-1451
-1583
-1660
-1462
-1666
-1888
-1838
-1760
-1740
-1923
-1815
-1603
-1752
-1813
-1781
-1775
-1668
-1689
-1681
-1585
-1647
-1675
-1670
-1474
-1426
-1769
-1810
-1542
-1592
-1738
-1519
-1407
-1390
-1320
-1460
-1564
-1474
-1160
-1097
-1303
-1084
-957
-1168
-1134
-889
-774
-819
-650
-556
-622
-580
-477
-276
-344
-195
42
27
171
159
172
308
123
-14
227
307
243
321
453
409
18
11
113
-326
-345
-237
-382
-396
-514
-503
-340
-407
-645
-683
-527
-508
-705
-767
-753
-856
-940
-1041
-891
-564
79
1032
1131
-3
-1228
-1914
-1883
-1700
-1865
-1961
-2006
-1695
-1822
-2241
-1950
-1962
-2396
-2634
-2582
-2308
-2531
-3015
-2899
-2563
-2700
-2881
-2965
-2891
-2614
-2527
-2359
-2375
-2506
-2265
-2300
-2723
-2518
-1968
-2247
-2506
-2139
-2169
-2403
-2381
-2411
-2291
-2088
-2093
-2137
-1928
-1774
-1700
-1645
-1760
-1309
-965
-1005
-843
-993
-1117
-873
-796
-849
-714
-756
-935
-798
-663
-750
-631
-497
-769
-825
-650
-743
-629
-376
-451
-657
-601
-414
-192
-168
-338
-129
-16
-44
6
-85
121
386
561
342
-315
-27
228
-111
-9
116
137
148
-24
-133
-260
-547
-772
-447
-140
-780
-899
-409
-543
-876
-877
-641
-773
-993
-720
-710
-918
-686
-541
-599
-486
-198
-83
-345
-272
101
88
144
487
361
79
270
401
284
135
-14
-29
103
19
-101
158
119
-157
-45
21
71
251
345
296
310
409
220
-15
12
617
1830
3147
3824
3212
1770
667
387
508
760
870
828
798
866
1120
1065
966
1308
1356
1147
1355
1572
1542
1547
1372
1386
1677
1619
1530
1518
1522
1579
1643
1756
1761
1764
1839
1919
1968
2039
2193
2145
2024
2210
2308
2205
2293
2365
2338
2350
2396
2422
2358
2373
2413
2291
2197
2328
2333
2168
2292
2310
2055
1953
1819
1696
1668
1506
1252
1170
1301
1222
989
913
846
755
698
785
746
518
583
566
340
464
517
170
-22
75
-90
-388
-321
-600
-1028
-900
-945
-1204
-1221
-1043
-717
-691
-766
-752
-932
-872
-850
-792
-628
-601
-379
-534
-659
-418
-473
-451
-353
-510
-412
-38
-120
-207
199
237
20
197
441
355
424
637
604
737
950
981
964
1119
941
790
1116
1193
1096
1066
1444
1464
1365
1567
1307
1406
1521
1311
1383
1356
1232
1191
846
630
1506
2867
3725
3738
2496
864
122
-53
2
150
370
442
319
290
145
244
168
-73
67
108
140
-14
-100
127
-52
-199
48
188
128
-63
-53
67
281
354
148
365
610
458
261
371
480
408
383
469
549
455
602
628
475
619
545
436
656
756
689
602
658
791
667
611
641
511
417
378
299
218
221
176
126
215
222
76
88
210
98
30
169
218
79
46
198
210
178
223
210
127
240
359
253
263
382
311
258
412
366
401
505
442
471
451
490
426
287
577
669
464
555
636
540
542
762
768
706
824
796
788
836
808
679
638
760
729
620
699
733
583
554
495
248
209
295
152
108
184
16
-44
82
-80
-254
-246
-239
-357
-456
-253
-306
-611
-594
-203
545
1608
2548
2363
1037
-129
-546
-574
-318
-133
-343
-390
-265
-376
-335
-256
-350
-286
-247
-263
-279
-242
-178
-165
-127
-84
-89
-78
-13
4
-46
-125
48
105
-15
51
27
55
159
269
306
126
102
192
235
410
400
352
631
615
388
678
913
729
853
1013
864
913
1063
952
870
917
773
673
687
713
545
279
337
447
346
233
266
273
277
333
235
193
309
320
264
293
329
334
236
153
260
228
235
358
291
240
317
277
178
256
271
187
271
378
185
187
326
134
132
287
186
117
176
61
42
129
131
97
22
72
105
130
304
225
32
206
342
387
336
169
444
541
264
242
137
-23
98
128
-47
-29
42
-18
70
52
-84
-1
67
-4
-43
106
88
-89
-135
-9
650
1855
2968
3078
1930
588
80
113
249
218
176
529
512
243
258
359
320
222
339
424
296
241
370
394
365
415
405
464
457
471
478
309
504
521
409
649
537
390
514
537
496
565
657
567
631
728
708
642
589
832
883
813
994
919
794
869
953
934
790
966
997
651
708
656
397
536
317
134
342
163
9
91
139
90
6
116
173
17
50
93
-25
105
223
44
13
233
117
-52
164
308
144
-26
124
104
-13
119
99
-26
-34
29
-15
-133
-69
-36
-64
46
-16
-76
-16
-128
-244
-106
20
-80
-36
116
83
30
126
153
89
189
312
271
274
398
349
199
239
100
-101
13
92
-18
-83
34
23
-64
48
81
-55
-27
117
27
-101
-81
-136
-204
212
1175
2191
2912
2561
1062
-92
-246
-64
-16
55
78
-104
-104
-1
-134
-178
-1
-32
-139
-111
-61
-64
-78
-5
-37
-31
55
73
87
76
145
127
40
211
184
78
222
183
174
279
195
155
310
381
355
362
452
555
543
591
671
634
697
826
816
735
765
798
740
752
724
613
559
506
375
251
248
239
129
78
83
13
14
88
20
-78
-41
1
-80
-48
37
-86
-62
4
-106
-57
23
-36
-71
37
127
8
-2
114
-11
-46
108
58
5
108
120
18
-16
38
44
20
35
55
109
77
6
33
94
155
135
101
195
237
180
228
255
188
282
382
280
201
106
-9
-133
-136
-19
-97
-123
-30
-94
-179
-111
-44
-105
-101
-71
-122
-168
-255
-354
-53
933
2094
2873
2694
1322
4
-324
-295
-188
-29
-37
-88
-166
-120
-73
-165
-172
-90
-93
-192
-156
-78
-133
-159
-137
-133
-119
-30
-113
-211
-17
-25
-103
-26
-75
-95
-19
19
-18
-54
20
60
38
168
224
112
200
361
327
337
466
495
422
456
566
474
449
625
605
535
602
465
264
274
264
78
-30
82
13
-136
-94
-129
-204
-115
-100
-220
-153
-117
-247
-213
-109
-195
-288
-186
-148
-230
-207
-165
-228
-232
-165
-223
-225
-131
-123
-191
-251
-222
-205
-211
-202
-229
-247
-183
-119
-203
-227
-154
-209
-267
-176
-115
-225
-183
-23
-108
-150
-6
-64
-160
-7
38
-40
94
159
-35
-25
40
-226
-367
-348
-380
-361
-381
-383
-421
-454
-457
-491
-523
-525
-452
-566
-529
-451
-805
-905
-344
573
1701
2611
2188
664
-444
-690
-670
-604
-440
-537
-591
-409
-490
-650
-601
-501
-556
-429
-259
-420
-435
-437
-530
-500
-354
-339
-486
-358
-193
-239
-309
-229
-112
-142
-150
-76
-37
-54
-65
-59
23
208
176
187
404
446
478
670
809
794
888
1044
1032
1197
1548
1658
1749
1919
2028
1963
1913
2116
2102
1953
1867
1663
1516
1493
1431
1363
1295
1244
1179
1064
1117
1045
878
940
985
814
700
888
712
474
735
742
437
406
548
426
176
229
303
197
188
178
92
83
65
-49
-92
-133
-166
-145
-253
-381
-440
-520
-468
-420
-503
-519
-574
-630
-506
-414
-589
-559
-347
-459
-474
-349
-399
-381
-231
-289
-439
-489
-570
-666
-694
-609
-636
-702
-680
-686
-618
-545
-534
-640
-683
-533
-554
-734
-767
-920
-1021
-287
921
2150
2807
2257
811
-477
-595
-555
-724
-594
-504
-694
-821
-389
-293
-688
-720
-648
-668
-653
-626
-419
-402
-609
-675
-704
-590
-566
-656
-684
-607
-514
-576
-499
-411
-523
-514
-300
-232
-256
-3
-36
-402
-138
186
-107
15
264
-81
-3
263
148
245
317
47
-56
177
289
156
97
165
126
0
-78
-147
-259
-285
-316
-438
-423
-388
-398
-380
-348
-355
-456
-453
-404
-378
-382
-442
-417
-443
-343
-257
-378
-392
-375
-399
-355
-220
-330
-521
-388
-335
-431
-433
-363
-380
-462
-437
-492
-503
-433
-416
-524
-576
-450
-486
-408
-334
-575
-546
-305
-294
-327
-217
-187
-232
-128
-120
-230
-162
4
-42
-228
-265
-313
-429
-466
-460
-496
-435
-375
-500
-472
-398
-469
-488
-490
-522
-533
-537
-626
-817
-647
229
1510
2637
2766
1611
150
-579
-543
-424
-526
-482
-357
-465
-434
-328
-439
-473
-377
-405
-516
-460
-451
-515
-320
-240
-431
-404
-308
-326
-344
-310
-231
-307
-351
-200
-210
-312
-180
-126
-146
-98
-145
-161
-103
11
61
32
135
141
96
261
323
250
293
403
407
362
392
374
410
450
298
125
81
91
0
-125
-80
-91
-261
-234
-155
-261
-335
-221
-237
-342
-211
-255
-382
-228
-233
-313
-208
-173
-183
-251
-222
-139
-161
-132
-188
-277
-256
-213
-248
-325
-239
-194
-262
-199
-271
-345
-213
-174
-208
-261
-257
-204
-300
-291
-222
-238
-214
-91
-96
-255
-179
-11
10
27
108
11
20
179
36
-85
-62
-214
-386
-313
-259
-306
-265
-282
-338
-340
-344
-359
-327
-273
-270
-310
-378
-491
-644
-461
408
1659
2749
2932
1713
143
-450
-422
-470
-412
-233
-271
-420
-387
-240
-276
-376
-293
-249
-356
-359
-270
-294
-308
-262
-258
-212
-170
-187
-235
-147
-20
-136
-28
19
-208
-125
7
-87
-109
29
72
6
50
156
78
67
201
243
288
469
516
352
421
519
476
527
634
546
414
591
497
181
243
256
119
86
45
-94
-112
-47
-213
-300
-192
-170
-206
-239
-201
-201
-260
-256
-213
-135
-50
-57
-120
-43
39
-54
-108
24
72
-75
-85
14
-68
-116
-121
-169
-158
-99
-68
-162
-144
-38
-136
-259
-119
-66
-220
-119
-45
-202
-113
12
-77
-76
25
-51
-90
58
64
-53
0
233
168
-30
0
-145
-366
-281
-236
-403
-370
-255
-353
-434
-392
-368
-474
-496
-413
-436
-353
-309
-581
-833
-609
139
1339
2710
3115
2039
535
-329
-550
-542
-391
-371
-464
-424
-475
-511
-401
-368
-449
-380
-261
-484
-641
-305
-265
-456
-371
-376
-484
-431
-107
-83
-254
-118
-243
-485
-288
-131
-295
-351
-112
-81
-347
-259
-74
-237
-144
29
-30
74
147
123
90
140
264
135
136
286
291
380
326
106
101
101
-3
-113
-136
-110
-263
-351
-239
-259
-377
-357
-390
-423
-259
-309
-434
-279
-195
-323
-422
-196
-168
-290
-218
-330
-297
-122
-91
-106
-66
-85
-152
-46
23
-13
-121
-210
-216
-137
32
41
-56
-69
-59
-172
-137
-7
-38
-98
-148
-72
19
-49
-17
216
218
42
98
135
198
359
279
115
277
326
138
164
88
-139
-144
-18
-4
-97
-63
-21
-260
-312
-201
-294
-231
63
-80
-378
-325
-446
-592
-13
1193
2585
3339
2724
1338
10
-506
-423
-379
-200
-188
-374
-235
-192
-409
-469
-361
-256
-359
-595
-365
-218
-493
-433
-354
-246
-168
-294
-300
-247
-232
-260
-255
-95
-28
-330
-311
-18
-123
-190
-3
16
-112
-16
93
53
60
69
136
244
291
349
403
393
460
594
500
267
405
519
317
343
237
55
48
-33
-48
-249
-338
-155
-294
-355
-295
-453
-374
-216
-424
-434
-272
-295
-263
-312
-330
-203
-134
-130
-142
-124
-131
-174
-169
-176
-186
-88
-59
-137
-86
-160
-141
50
-65
-145
-63
-156
-78
75
-129
-33
-10
-209
75
68
-22
-16
-140
16
109
222
291
181
301
198
37
407
558
390
546
540
278
390
335
88
154
194
16
51
290
294
88
-50
65
94
110
131
21
152
124
-197
-296
21
983
2378
3713
3700
1898
493
66
-182
2
132
119
140
-7
30
220
200
16
63
177
116
51
147
240
133
169
228
145
107
45
155
301
332
363
164
156
318
302
243
194
382
429
392
436
368
421
618
699
594
664
679
621
766
802
720
916
1126
945
785
862
794
722
907
770
571
542
370
279
210
241
206
62
137
181
42
11
95
73
133
113
42
98
-22
27
182
11
-45
17
92
133
2
-44
76
81
-34
81
149
102
81
-18
40
113
-24
-67
81
44
29
30
-61
-46
-26
-95
-121
-16
-158
-78
160
-40
-116
70
125
117
127
21
-10
173
302
230
198
261
251
178
166
48
-182
-83
120
-226
-497
-100
-45
-272
-229
-157
-146
-210
-111
-126
-255
-209
-523
-784
-209
889
2244
3477
3226
1642
306
-388
-495
-291
-152
-155
-230
-183
-164
-209
-141
-246
-309
-121
-46
-124
-264
-205
-138
-244
-167
-165
-172
-68
-150
-82
71
-39
-205
-194
-32
130
70
-42
89
95
7
114
165
143
235
298
285
449
454
282
523
645
464
570
795
660
471
688
732
395
341
518
456
204
112
187
69
-93
-61
-143
-139
58
-131
-313
-86
53
-92
-249
-126
-132
-319
-103
16
-259
-175
-18
-138
-53
-43
-295
-239
64
69
-229
-177
-15
-84
-116
-175
-155
-130
-146
-177
-187
-159
-211
-181
-186
-247
-142
-170
-216
-288
-291
-120
-242
-273
-99
-30
-27
-87
21
36
-131
75
123
-2
229
277
105
29
-98
-265
-208
-187
-269
-272
-273
-242
-270
-172
-120
-291
-269
-195
-301
-271
-211
-483
-774
-748
24
1250
2634
3681
2799
906
-162
-437
-434
-366
-264
-230
-134
-192
-463
-370
-249
-307
-332
-264
-248
-392
-254
-151
-221
-57
-125
-304
-85
-68
-164
-40
-110
-134
-29
-100
-109
-63
31
91
-17
-52
27
164
151
111
219
260
297
466
531
542
579
516
562
557
615
767
586
533
654
552
431
410
280
103
174
129
34
53
-71
-185
-82
53
-113
-292
-202
-122
-177
-113
-24
-257
-229
-49
-100
-69
-209
-311
-149
-47
-143
-168
-38
-119
-198
-24
-38
-210
-174
-131
-209
-165
-108
-152
-147
-83
-160
-237
-198
-281
-131
-106
-366
-228
-95
-180
-257
-271
-153
-40
-69
-151
-24
44
-134
-111
91
144
158
161
222
210
122
162
20
-55
0
-112
-225
-215
-121
-150
-240
-270
-288
-230
-206
-254
-221
-119
-116
-337
-442
-428
-397
180
1799
3502
3656
2430
757
-274
-403
-347
-160
45
-23
-341
-358
-90
-216
-327
-263
-173
-105
-191
-232
-200
-156
-93
24
-99
-129
114
-20
-167
-77
6
-59
-224
106
322
69
30
105
184
314
295
169
241
459
453
383
493
573
502
621
758
748
855
974
877
852
887
773
757
709
603
562
427
278
229
136
109
12
65
145
-137
-119
55
-28
-131
-60
45
-125
-122
138
17
-167
-95
-121
4
71
-102
25
17
-134
30
17
-19
56
-162
11
153
-159
-86
30
-110
21
172
-22
-54
4
-22
73
21
-31
61
-88
-45
255
76
-138
39
162
58
-28
41
27
114
249
87
-16
101
183
242
296
386
369
271
327
333
379
286
74
211
317
272
179
48
64
133
103
-16
-120
129
274
4
78
281
207
-77
-351
-30
930
2110
3282
3595
2410
837
-59
-305
-137
109
268
123
124
330
138
62
142
184
226
170
236
238
86
129
56
-3
158
96
186
166
-80
93
327
207
217
247
135
338
144
-63
281
393
399
482
233
174
650
710
512
560
671
698
719
902
834
764
949
937
973
1131
931
835
980
794
604
638
589
548
765
952
813
897
986
950
1218
1313
971
930
1265
1017
863
1167
1015
737
704
602
611
769
877
673
346
278
409
384
122
134
195
81
-80
-125
-119
-141
-52
-82
-111
94
213
203
276
313
395
481
499
414
321
296
188
146
415
629
388
241
372
558
572
338
227
323
363
461
373
132
232
89
62
274
84
117
226
235
379
311
255
398
264
8
65
154
21
88
206
-5
230
971
1548
1867
1608
751
-323
-1035
-943
-586
-652
-928
-858
-730
-793
-975
-1072
-1109
-1151
-1191
-1318
-1349
-1360
-1440
-1465
-1386
-1502
-1469
-1142
-1380
-1553
-1174
-1312
-1646
-1461
-1377
-1469
-1363
-1522
-1643
-1424
-1383
-1288
-1315
-1444
-1277
-1328
-1503
-1197
-1201
-1466
-1308
-1321
-1262
-1218
-1248
-1208
-1326
-1325
-1823
-2100
-1704
-1397
-1352
-2244
-2651
-1967
-2091
-2630
-2546
-2628
-2873
-2921
-2976
-2828
-2818
-2785
-2763
-3212
-3184
-2831
-2664
-2513
-2684
-2500
-2202
-2458
-2479
-2388
-2334
-2097
-2088
-2416
-2287
-1831
-2133
-2276
-2014
-2076
-2003
-1853
-1815
-1788
-1737
-1704
-1650
-1659
-1777
-1663
-1556
-1499
-1398
-1421
-1337
-1088
-1187
-1379
-1078
-937
-938
-906
-888
-773
-676
-592
-641
-596
-363
-227
-341
-505
-388
-332
-336
-47
-20
-194
-301
-461
-384
-197
-485
-862
-484
-127
-233
-403
-507
-163
-19
-318
-431
-484
-481
-246
-578
-456
847
1918
3059
3226
1706
175
-558
-424
-337
-402
-222
-142
-262
-262
-135
-124
-86
-106
-168
-140
188
259
118
259
190
170
236
275
487
580
433
362
538
520
562
770
583
563
750
669
879
1051
867
927
1155
1389
1418
1352
1431
1554
1633
1725
1659
1579
1619
1607
1421
1633
1858
1237
1438
1573
1036
1380
1392
1190
1274
966
929
987
935
1111
1041
888
865
568
531
776
693
734
884
687
590
861
1005
787
437
267
359
387
479
560
250
90
179
213
36
-123
-18
-37
-208
-339
-436
-572
-749
-713
-726
-1062
-1126
-1077
-1200
-1165
-1169
-1419
-1481
-1493
-1549
-1519
-1638
-1604
-1430
-1500
-1632
-1392
-1254
-1552
-1317
-735
-853
-970
-830
-844
-762
-788
-721
-561
-701
-702
-498
-475
-492
-574
-524
-266
-416
-615
-479
-507
-659
-497
157
1302
2695
3456
2562
765
-409
-494
-270
-317
-184
-126
-7
129
97
119
196
264
149
176
158
138
140
83
-54
-34
251
167
3
25
-54
-61
-23
-190
-294
-35
-35
-337
-204
-142
-257
-132
-79
-99
-99
-66
-54
-25
72
-78
-238
-66
143
10
-90
113
88
-88
-2
61
-117
-195
-203
-306
-474
-593
-641
-707
-689
-681
-678
-576
-577
-675
-674
-711
-679
-639
-697
-587
-407
-463
-480
-294
-357
-561
-508
-318
-317
-244
-197
-397
-334
-100
20
188
243
-34
-46
237
219
220
360
280
246
258
406
592
443
473
392
334
572
440
543
666
570
810
951
847
834
891
859
933
1187
1216
997
985
1080
980
767
807
771
765
1001
773
583
802
583
445
740
779
636
595
770
684
337
341
434
877
1984
3232
3818
3009
1383
425
305
164
231
434
109
80
364
115
19
-58
-230
50
123
-229
-269
71
5
-84
193
-15
-132
140
52
-27
42
133
73
-21
24
-29
91
116
3
100
62
55
189
147
183
288
149
88
245
411
448
392
421
471
459
437
447
524
556
627
556
177
47
193
195
-96
-180
-113
-309
-208
-36
-298
-414
-293
-269
-388
-431
-269
-389
-467
-177
-77
-171
-293
-257
-288
-590
-278
31
-252
-324
-217
-203
-326
-404
-313
-141
-248
-306
-135
-393
-465
-213
-328
-489
-271
-166
-407
-327
-370
-512
-224
-258
-481
-183
-73
-462
-407
-291
-506
-324
-329
-469
-153
-212
-356
-236
-261
-436
-714
-546
-421
-681
-466
-487
-697
-512
-454
-447
-451
-436
-403
-548
-587
-434
-442
-665
-517
302
1485
2688
2907
1672
277
-331
-547
-481
-220
-194
-300
-275
-343
-488
-471
-434
-366
-225
-346
-582
-470
-343
-433
-496
-293
-315
-478
-344
-329
-315
-387
-382
-173
-282
-381
-352
-367
-175
-80
-119
-238
-320
-23
-61
-63
211
-12
-73
14
125
251
128
394
484
108
39
139
73
195
358
270
167
33
-165
-246
-201
-408
-509
-248
-347
-518
-372
-450
-532
-484
-515
-387
-435
-586
-540
-564
-563
-453
-389
-486
-493
-439
-546
-486
-323
-365
-449
-298
-194
-341
-429
-498
-442
-332
-378
-315
-285
-346
-343
-437
-576
-403
-210
-198
-248
-320
-283
-217
-136
-162
-69
-93
-272
-15
-56
-142
147
-39
9
264
105
-1
-81
-200
-421
-379
-53
-218
-345
-121
-237
-295
-160
-217
-194
-144
-99
-157
-191
-252
-589
-475
219
1286
2515
3119
2210
633
-72
-224
-287
-102
75
-87
-174
-194
-203
-128
24
133
-215
-334
-144
-107
-118
-183
3
133
74
73
-54
-45
158
269
126
51
184
198
132
250
266
203
385
379
413
494
463
535
512
522
666
843
990
977
831
773
914
909
878
1097
1040
945
1105
923
656
704
609
457
500
496
337
191
125
90
139
228
226
98
153
209
61
142
215
50
50
159
193
57
-143
-35
29
72
215
122
85
80
43
190
159
165
228
134
163
228
187
93
126
158
117
209
115
-153
86
316
181
256
273
189
325
406
339
271
332
356
398
426
324
451
499
349
189
1
-117
-11
64
-106
-148
-70
-123
-194
-175
-178
-168
-291
-345
-246
-250
-368
-632
-635
-138
792
2101
3075
2494
914
-63
-406
-496
-453
-374
-266
-378
-526
-422
-300
-294
-623
-685
-329
-584
-683
-383
-435
-528
-527
-636
-544
-395
-610
-595
-439
-648
-589
-278
-402
-399
-310
-435
-421
-381
-257
-199
-328
-572
-447
-67
-196
-245
-130
-238
-90
-15
-133
-102
-53
-4
112
90
-123
-55
-116
-308
-215
-346
-514
-402
-536
-845
-878
-605
-504
-841
-937
-840
-828
-817
-932
-934
-819
-855
-876
-991
-944
-672
-527
-532
-761
-835
-597
-460
-585
-610
-487
-384
-537
-699
-507
-391
-456
-511
-570
-605
-502
-410
-491
-522
-493
-739
-667
-408
-602
-664
-484
-385
-468
-419
-415
-509
-329
-390
-569
-381
-316
-390
-275
-270
-212
-140
-155
-143
-311
-452
-469
-501
-631
-822
-701
-514
-559
-580
-618
-750
-799
-705
-563
-525
-513
-494
-578
-838
-971
-215
912
2143
3244
2571
854
-387
-704
-391
-380
-312
-277
-394
-466
-404
-334
-445
-332
-233
-200
-420
-554
-218
-122
-261
-325
-212
-181
-365
-272
-158
-82
10
-143
-68
33
-244
-135
392
314
-84
11
137
68
226
332
174
271
655
554
339
683
798
749
703
519
699
825
774
756
549
550
690
437
279
80
-73
116
110
49
1
29
24
-143
-206
-234
-252
-150
-12
-101
-154
-155
-276
-271
-315
-187
-91
-237
-225
-124
-57
-22
-131
-274
-208
-108
-126
-224
-123
-38
-128
-75
-215
-248
-45
-162
-234
-128
-214
-252
-128
-114
-100
-107
-72
114
23
-112
51
-94
-112
229
259
195
147
155
291
391
427
340
429
484
380
435
303
326
369
26
-136
10
-63
-120
72
48
-75
-87
-85
-64
16
71
127
-97
-432
-552
-381
636
2144
3372
3508
2261
680
-28
-250
-319
102
147
-115
-33
36
-116
-199
-67
-95
-160
25
76
-87
-14
67
-121
51
142
-161
56
308
105
145
238
202
356
441
326
271
261
462
444
378
697
725
601
721
684
764
964
1041
1031
1047
1278
1328
1277
1199
1447
1550
1239
1317
1457
1252
1021
1089
1244
1072
805
679
726
731
714
807
800
632
500
611
642
709
744
682
626
664
816
584
380
626
599
393
596
771
723
547
514
552
437
569
618
320
269
656
668
365
415
370
250
513
563
438
489
444
369
311
441
448
395
383
310
397
410
516
477
397
629
645
496
590
709
628
550
656
839
743
704
687
403
312
281
169
273
316
221
277
265
201
180
156
199
257
244
169
94
82
-157
-182
399
1415
2967
3860
3008
1424
241
-333
-142
240
71
-19
57
-263
-205
201
58
-101
-41
-143
-51
-92
-347
-192
3
-90
-72
-31
-7
-73
-147
17
69
-52
-147
15
116
19
-7
8
73
173
202
113
146
246
213
369
516
402
510
811
695
575
662
617
724
859
788
707
804
704
573
660
523
374
279
104
132
184
305
128
-113
148
167
57
166
109
43
122
47
51
214
195
7
7
195
111
47
192
217
205
165
183
285
205
103
200
242
203
195
243
220
148
158
159
208
199
89
116
107
114
261
190
153
218
209
200
174
248
235
184
254
280
283
332
431
483
382
270
369
569
524
428
272
1
58
123
130
148
11
-14
103
230
130
-178
-101
148
-36
-19
90
-219
-428
-410
85
1222
2698
3747
3235
1579
330
-36
-72
8
126
124
206
163
-86
-132
-59
-129
-82
24
-35
-13
-7
-55
-127
-162
-108
-36
1
-44
-47
-125
-143
-20
-23
49
55
-54
34
82
50
77
122
183
147
154
374
412
224
245
463
473
323
452
652
548
513
667
697
573
464
539
469
299
273
162
-1
-14
-69
-144
-110
-180
-199
-168
-169
-211
-327
-356
-237
-191
-291
-296
-186
-194
-302
-184
-182
-245
-156
-175
-208
-219
-148
-79
-167
-191
-165
-214
-190
-68
-137
-297
-143
-138
-243
-75
-150
-294
-224
-213
-186
-198
-228
-122
-57
-127
-168
-213
-264
-222
-140
-5
13
-112
-15
99
-93
-43
205
137
176
237
166
110
73
73
-171
-324
-235
-179
-208
-268
-223
-290
-373
-195
-237
-374
-257
-193
-225
-246
-292
-569
-688
-85
1065
2454
3518
3034
1226
-25
-425
-540
-262
41
-55
-235
