-210
-301
-442
-372
-305
-473
-518
-365
-462
-556
-424
-209
-269
-434
-41
87
-87
278
129
-252
386
710
421
478
695
688
701
890
673
629
881
689
482
413
335
199
20
181
22
-639
-451
-231
-394
-46
-90
-326
-66
27
-196
-375
-241
-128
-399
-301
-77
-446
-226
-282
-1023
-410
157
-7
-118
-280
-170
-260
-432
-114
-69
-253
-150
-176
-209
-173
-413
-437
-129
-57
-142
-299
-273
-29
-47
-103
-30
-267
-368
-144
-155
-263
-248
-193
-371
-375
-206
-363
-559
-199
66
-327
-224
-201
-486
-32
120
-241
-239
-39
-67
-341
-351
-203
-296
-307
-230
-417
-471
-209
-150
-177
89
122
-106
90
247
-8
15
215
113
-8
116
246
176
44
44
283
215
95
-49
-196
-53
-227
-385
-331
-253
-334
-459
-186
-226
-454
-120
246
860
2468
4245
5465
5743
4220
2121
1025
599
168
-279
-48
-46
-396
-291
-360
-478
-448
-488
-651
-611
-582
-697
-604
-528
-413
-399
-574
-488
-393
-495
-394
-296
-498
-522
-404
-783
-691
-311
-440
-232
-105
-211
-195
-151
52
129
-52
118
342
165
288
697
692
663
680
594
493
370
802
829
447
533
543
242
-109
-198
-123
-37
-84
-258
-298
-198
-149
-597
-686
-219
-185
-116
-240
-537
-339
-75
-267
-309
-88
-277
-404
-266
-239
-332
-363
-403
-623
-434
-152
-217
-109
-193
-382
-245
-145
-70
-133
-276
-102
-120
-387
-301
-212
-351
-334
-150
-133
-716
-569
157
-244
-317
-77
-406
-326
-335
-463
-173
-42
-190
-289
-229
-341
-426
-343
-270
-418
-714
-293
-36
-376
-267
-221
-262
-141
-174
-389
-426
-118
-166
-398
-152
111
9
-56
-5
13
47
237
201
-247
-210
113
-49
66
297
9
-133
-126
-316
-501
-359
-290
-542
-493
-484
-675
-612
-312
13
272
1326
2799
4243
5884
5930
3818
1685
1001
610
-3
-88
-116
-425
-860
-731
-499
-655
-310
-560
-1103
-474
-231
-745
-694
-295
-526
-867
-563
-453
-611
-446
-452
-636
-416
-275
-547
-508
-238
-379
-641
-547
-398
-335
-172
-40
-29
56
-79
-28
508
633
623
574
613
826
741
740
970
655
320
827
509
117
487
291
239
201
50
-25
-298
-233
-82
-287
-299
-77
-363
-542
-213
-366
-443
-164
-154
-243
-235
-225
-325
-276
-29
-194
-411
-235
-254
-375
-221
-318
-552
-287
-76
-179
-138
13
-336
-401
-20
-67
-79
-58
-288
-411
-223
-22
-91
-317
-211
-114
-268
-250
-240
-358
-241
-58
-482
-452
13
-163
-174
-88
-63
-198
-307
-127
-314
-307
-56
-330
-418
-241
-162
-16
-101
-124
-63
-229
-75
-23
-335
-93
98
-114
18
250
380
288
209
455
230
-35
194
128
-40
152
-108
-558
-420
-62
-83
-414
-146
-20
-268
-97
-177
-424
-104
471
1154
2601
4554
5787
5426
3659
1662
216
82
483
184
-94
43
-369
-850
-361
-227
-582
-522
-397
-614
-566
-305
-474
-586
-559
-550
-519
-591
-677
-593
-480
-319
-350
-536
-414
-353
-598
-390
-84
-629
-763
-272
-133
-85
138
177
44
146
287
273
444
726
713
570
542
557
463
538
795
265
-16
402
201
165
424
260
-5
-143
-233
-289
-400
-311
-164
-372
-428
-319
-404
-452
-404
-498
-538
-282
-324
-654
-702
-582
-275
-141
-192
-284
-357
-114
-193
-357
-145
-179
-397
-334
-199
-306
-296
-179
-274
-415
-360
-283
-323
-152
-58
-259
-342
-120
-48
-238
-236
-219
-236
-201
-175
-363
-465
-182
-202
-249
-111
-194
-379
-336
-270
-362
-292
-71
-41
-171
-135
-119
-271
-156
-31
-279
-191
-53
-120
-92
39
165
92
118
377
252
-204
78
401
-20
-46
258
192
61
16
-82
-184
-154
-192
-287
-220
-249
-462
-395
-144
-299
-302
174
952
1990
3204
5109
5809
4235
2250
939
368
365
-44
-800
-270
-6
-476
-407
-366
-537
-576
-341
-331
-716
-696
-476
-632
-534
-421
-555
-297
-596
-923
-357
-271
-347
-337
-690
-622
-81
-160
-324
-151
-297
-245
-140
-334
-174
163
253
218
196
373
464
513
740
673
578
833
832
718
603
385
497
549
460
351
241
120
-155
-180
-27
-189
-373
-342
-270
-268
-335
-216
-183
-330
-256
-206
-134
-310
-818
-367
101
-97
-161
-180
-128
-192
-324
-226
-176
-343
-207
-104
-382
-362
-283
-385
-201
38
42
-173
-505
-337
9
-96
-144
-129
-203
-176
-144
-131
-217
-214
-197
-290
-217
-207
-381
-506
-525
-269
55
69
-123
-336
-207
-139
-175
-26
-107
-271
-205
-66
-294
-461
-239
-238
-282
-156
-72
-363
-473
75
198
150
318
207
144
144
92
173
337
227
24
35
239
138
-285
-180
54
-100
-254
-152
-302
-833
-492
132
-36
-228
-386
-524
75
896
1747
3395
5158
5808
4736
2502
1093
664
232
-1
-108
-269
-527
-552
-603
-313
-385
-1294
-563
88
-503
-479
-307
-446
-528
-492
-617
-670
-470
-409
-508
-563
-382
-310
-779
-679
-245
-305
-495
-521
-242
-103
-37
-28
-69
50
49
110
-56
-106
617
804
718
783
702
750
814
715
514
582
542
564
633
386
121
96
-40
-193
19
-16
-355
-544
-253
-92
-397
-182
-249
-685
-224
-57
-232
-89
-226
-257
-237
-230
-111
-226
-223
-150
-312
-232
-118
-503
-531
-131
24
-17
-596
-475
6
-115
25
-82
-218
-73
-92
-206
-317
-191
-114
-296
-244
-293
-204
-296
-542
-197
-45
-115
-205
-307
-150
-212
-463
-169
62
-295
-343
-141
-284
-196
-271
-606
-327
62
-6
-239
-263
-176
-247
-301
-213
-300
-396
-113
7
-473
-365
194
147
140
261
-28
-82
328
336
109
173
277
82
-66
71
15
-38
81
-54
-332
-401
-295
-563
-626
-25
4
-220
-90
-212
-413
-43
748
1523
2999
5192
6053
4760
2780
1485
722
319
-150
-616
-48
183
-330
-519
-474
-532
-744
-749
-583
-579
-460
-324
-849
-867
-473
-592
-569
-438
-428
-594
-582
-403
-515
-636
-469
-426
-467
-305
-145
-257
-685
-792
-606
-60
374
61
14
378
464
272
550
886
671
558
792
821
584
607
694
553
360
409
427
-164
-61
192
-221
-132
-132
-228
-366
-543
-335
-242
-189
-251
-321
-23
-100
-479
-364
-156
-256
-358
-296
-217
-540
-571
-161
-358
-472
-119
-410
-601
-104
-117
-225
-134
-348
-269
-96
-98
-229
-357
-81
-320
-403
-47
-398
-436
-124
-42
-195
-493
-326
-95
-251
-247
-106
-291
-329
-221
-116
-206
-740
-520
-102
-215
-223
-225
-356
-352
-338
-353
-67
-83
-333
-324
-117
-237
-496
-257
-131
-232
-224
-161
-217
-341
-125
-192
-247
160
134
-82
107
217
123
182
191
157
148
225
195
93
153
-4
-106
-262
-252
-301
-488
-123
-121
-327
-229
-252
-419
-374
-226
-65
532
1768
3500
5256
6218
5116
2577
1015
962
451
-943
-343
539
-393
-549
-284
-558
-560
-390
-615
-709
-326
-504
-816
-536
-538
-723
-541
-466
-596
-577
-682
-537
-423
-718
-420
-270
-326
-194
-415
-410
-240
-323
-250
-48
-105
-160
60
449
102
-223
664
871
539
789
824
707
823
902
757
680
714
523
313
229
85
-23
9
77
-239
-120
4
-709
-584
-97
-160
-114
-168
-412
-186
-69
-206
-215
-440
-272
-132
-345
-226
-152
-378
-171
-81
-418
-376
-277
-241
-266
40
-214
-807
-21
291
-146
-144
-47
-90
-237
-99
24
-127
-149
-60
-178
-323
-175
-167
-332
-27
-288
-889
-452
95
82
-87
-7
-71
-236
-52
-156
-402
-319
-143
-182
-302
-273
-206
-326
-346
-25
-118
-339
-200
-270
-348
-238
-53
69
128
127
-27
139
66
-73
270
293
136
28
110
190
4
121
-13
-373
-451
-282
-139
-312
-199
-107
-375
-571
-329
-142
-352
-15
675
1550
3271
5045
5883
5040
2405
618
566
452
94
-170
-235
-293
-486
-466
-283
-452
-1130
-909
-308
-532
-428
-335
-585
-511
-467
-448
-381
-363
-454
-581
-511
-516
-487
-449
-397
-424
-411
-212
-373
-625
-463
75
-37
-512
167
480
81
347
572
530
598
616
547
689
872
755
718
702
602
605
485
482
241
-231
-280
-180
123
227
-43
-219
-204
-89
-234
-362
-273
-317
-371
-250
-38
-464
-632
-212
-486
-300
87
-202
-330
-95
-404
-651
-100
43
-295
-279
27
-290
-443
30
-32
-272
-108
-101
-577
-341
168
-103
-122
8
-156
-186
-48
-176
-346
-282
-61
-151
-320
-62
-234
-330
-170
-360
-591
-352
103
69
-87
-11
-3
-227
-184
-34
-244
-330
-179
-199
-412
-275
-80
-231
-250
-16
-183
-325
364
569
180
286
298
15
203
338
143
78
152
170
-109
39
150
-164
-225
-226
-90
-176
-174
-74
-266
-123
-165
-427
-269
-87
199
1147
2587
4181
5604
5565
3391
1208
691
690
213
128
245
-414
-621
-286
-361
-473
-412
-406
-608
-610
-320
-341
-566
-515
-517
-693
-451
-312
-735
-672
-831
-814
-138
-76
-149
-280
-291
-153
-316
-338
-202
-284
-67
155
-236
-168
277
341
472
346
169
615
706
679
882
755
857
1006
748
568
607
421
288
369
126
-136
-103
5
-253
-342
24
-100
-369
-403
-367
-262
-144
-25
-158
-245
-98
-291
-407
-168
-252
-410
-212
-123
-436
-437
-201
-222
-132
-58
-598
-441
175
-59
-213
-134
-115
-175
-254
-236
-177
-301
-222
-1
-248
-530
-395
-61
-171
-443
-200
-59
-37
-6
-248
-228
-47
-259
-309
-170
-320
-468
-191
-62
-449
-385
-78
-316
-566
-251
-17
-262
-458
-176
-21
-185
-171
-234
-286
-259
-283
-112
-127
-104
129
-240
-106
245
72
290
289
66
210
261
29
-69
-49
5
71
37
67
-292
-477
-96
-252
-418
-157
-250
-440
-249
-248
-525
-22
401
615
2430
4518
5818
5851
3549
1498
969
534
202
15
-125
-213
-304
-598
-814
-641
-609
-636
-444
-537
-676
-517
-602
-697
-408
-346
-744
-826
-528
-573
-622
-428
-598
-557
-515
-833
-638
-331
-142
-212
-327
-143
-256
-344
38
241
-99
-239
230
471
515
705
748
667
687
753
595
611
703
533
246
176
211
227
355
-163
-451
24
14
-258
-229
-118
-151
-283
-283
-293
-417
-346
-285
-338
-405
-453
-343
-428
-245
-320
-1020
-374
254
-211
-229
15
-227
-552
-383
-266
-392
-212
127
-475
-798
-180
-172
-254
-88
-93
-293
-242
-72
-515
-541
-79
-173
-346
-234
-218
-390
-283
-165
-627
-542
-39
-252
-284
-63
-191
-384
-277
-246
-425
-170
-213
-535
-442
-237
-156
-257
-171
-148
-356
-346
-202
-263
-390
-194
-218
-334
62
295
212
154
227
132
23
182
110
-30
141
199
28
10
141
-22
-435
-359
-99
-353
-343
-176
-409
-478
-257
-241
-508
-415
-140
-54
1247
3408
4877
6026
5763
3395
1340
991
577
-91
-49
-194
-533
-591
-552
-602
-696
-476
-730
-1121
-617
-316
-523
-466
-461
-747
-627
-521
-722
-652
-494
-438
-556
-593
-281
-594
-1087
-614
-217
-331
-265
-192
-425
-601
-375
6
117
241
319
268
483
608
484
499
721
759
616
757
674
405
503
419
330
437
258
61
4
-81
-253
-418
-228
-160
-439
-376
-184
-227
-357
-354
-356
-464
-86
-48
-565
-557
-501
-500
-265
-123
-324
-477
-198
-105
-355
-374
-120
-213
-544
-377
-145
-264
-292
-220
-307
-377
-163
-198
-298
-112
-271
-377
-170
-107
-284
-365
-238
-170
-355
-350
-249
-466
-179
71
-592
-636
-56
-79
-201
-78
-139
-275
-356
-384
-320
-316
-190
-196
-401
-177
-144
-838
-507
268
-84
-49
5
-421
-9
295
46
-52
144
293
116
103
211
85
-178
61
124
-213
49
26
-197
-46
-131
-563
-512
-186
-309
-383
-253
-130
-603
-812
128
941
1861
3720
5345
5831
4776
2244
649
623
390
-43
-473
-293
-64
-590
-610
-424
-489
-816
-832
-498
-674
-528
-256
-666
-926
-460
-294
-515
-462
-525
-631
-476
-502
-769
-643
-185
-263
-431
-280
-379
-292
-486
-519
11
16
117
171
119
387
387
362
514
600
927
631
188
736
927
787
713
498
489
384
104
79
87
-81
-229
-147
-111
-563
-455
-172
-549
-466
-58
-109
-175
-53
-214
-524
-346
-175
-382
-257
-173
-395
-409
-201
-179
-330
-279
-298
-390
-306
-256
-404
-456
-366
-537
-506
-199
47
49
-47
-78
-248
-247
-162
-162
-212
-217
-278
-409
-269
-126
-339
-416
-242
-501
-479
-304
-437
-200
-151
-247
-172
-233
-192
-246
-380
-212
-178
-358
-259
-206
-586
-437
-9
-114
-356
-165
-158
-721
-191
210
-94
166
171
77
91
135
206
29
63
131
-276
-78
236
-74
-95
108
41
-270
-264
-210
-335
-284
-242
-441
-490
-222
-300
-417
-270
112
1460
3329
5144
6042
4997
2559
953
710
393
103
-133
-345
-352
-475
-583
-425
-510
-907
-695
-437
-785
-887
-697
-719
-710
-250
-160
-577
-495
-384
-641
-589
-375
-566
-613
-373
-433
-508
-504
-632
-543
-388
-50
138
-64
114
258
124
303
461
215
378
577
433
622
771
737
726
655
818
827
139
44
295
-22
206
284
-164
-183
-200
-318
-317
-250
-331
-394
-269
-6
-414
-894
-253
-220
-363
-71
-252
-352
-215
-246
-355
-441
-457
-292
-320
-342
-65
-224
-718
-387
-126
-247
18
-174
-556
-120
24
-284
-154
-157
-302
-208
-131
-427
-539
-99
-51
-400
-239
-112
-433
-447
-260
-290
-206
-57
-258
-360
-133
-310
-578
-280
-24
-241
-301
-175
-272
-276
-151
-326
-535
-336
-131
-243
-299
-107
-432
-636
-46
138
-51
38
161
28
-83
179
283
58
147
124
-49
125
222
62
12
86
-74
-230
-91
-149
-211
-48
-349
-648
-310
-519
-822
-370
-418
-201
305
850
1941
3391
5268
6176
4935
2581
1227
798
226
-9
14
-311
-509
-346
-428
-577
-680
-634
-726
-834
-297
-787
-1191
-431
-440
-635
-399
-318
-443
-477
-493
-582
-510
-388
-401
-524
-268
-84
-810
-1088
-231
-105
-600
43
351
-63
125
265
131
296
527
465
494
720
695
463
673
704
629
934
438
94
544
529
179
-12
86
146
-199
-243
-93
-287
-289
-204
-250
-308
-540
-546
-420
-111
-492
-842
2
-2
-217
-23
-73
-119
-302
-348
-275
-377
-373
-188
-238
-403
-293
-376
-511
-267
-40
-192
-421
-218
-102
-169
-58
-134
-325
-135
2
-313
-468
-113
-219
-576
-233
-9
-574
-668
34
73
-99
-33
-190
-275
-249
-241
-250
-374
-320
-277
-441
-261
-96
-357
-499
-455
-341
-81
50
-118
-228
-107
-253
-436
-310
-229
-155
-2
124
113
80
195
183
-40
-140
-34
118
272
257
171
160
-52
17
80
11
77
-198
-214
-160
-411
-226
-181
-554
-522
-292
-189
-287
-421
298
1617
3263
5272
6222
5278
3191
1534
749
265
23
-102
-232
-254
-352
-776
-457
-565
-1354
-573
-166
-536
-479
-412
-517
-661
-420
-461
-700
-705
-648
-482
-482
-463
-401
-535
-434
-449
-824
-612
-293
-343
-295
-172
-84
-148
-274
-179
160
371
434
513
558
679
748
723
719
710
676
735
782
616
535
434
210
38
6
52
-51
-252
-298
-256
-179
-86
-309
-387
-173
-134
-350
-668
-303
27
-359
-307
-140
-286
-182
-132
-346
-314
-161
-370
-342
-121
-337
-398
-126
-207
-388
-250
-387
-344
-129
-86
-33
-209
-167
-108
-362
-99
231
-283
-546
-242
-240
-360
-152
-31
-572
-693
83
-70
-632
-197
146
-154
-170
-100
-318
-243
-145
-350
-383
-187
-141
-230
-240
-291
-421
-300
-98
-198
-296
-97
-132
-307
-208
-303
-473
-211
35
-99
-75
175
252
76
91
204
-8
82
178
97
165
384
330
-347
-147
415
83
16
167
-118
-341
52
-207
-833
-288
-48
-355
-301
-236
-217
-198
269
1578
3212
5163
6589
5512
2927
1472
785
295
267
59
-296
-381
-338
-456
-578
-576
-702
-537
-505
-911
-674
-309
-304
-416
-443
-305
-462
-548
-367
-565
-679
-465
-390
-311
-690
-799
-317
-313
-257
-34
-329
-424
135
46
-82
310
215
169
628
521
226
676
820
634
798
985
833
633
782
565
232
636
660
239
150
136
-99
-169
346
-85
-762
-262
-146
-390
-273
78
-274
-827
-259
11
-252
-140
-100
-303
-263
-158
-328
-39
14
-552
-498
-174
-159
-255
-230
-169
-309
-325
-68
-100
-146
76
-408
-643
-173
-99
-192
-249
36
-182
-649
-222
54
-175
-327
2
0
-263
-48
-75
-274
-219
-194
-308
-245
-122
-251
-277
-143
-189
-329
-261
-159
-243
-247
-238
-473
-318
84
-788
-741
285
25
-73
146
78
-13
-55
90
201
-95
26
359
26
-15
157
103
336
289
219
182
-428
-324
259
157
0
-181
-229
-55
-214
-388
-360
-286
-308
-262
-117
-65
535
2045
3780
5053
5946
4747
1990
937
855
310
-43
-17
-167
-388
-402
-453
-688
-425
-379
-932
-657
-364
-484
-556
-458
-297
-680
-637
-183
-479
-702
-398
-338
-554
-170
-76
-961
-799
-126
-296
-423
-279
-202
-136
7
110
109
164
252
333
450
541
559
568
699
816
622
604
1030
951
715
764
523
305
313
334
375
-191
-529
-125
-145
-108
-89
-281
-220
-141
-350
-48
333
-758
-979
-51
-98
-278
-124
-143
-333
-264
-194
-367
-24
-391
-980
-173
271
10
-307
-230
26
-146
-269
-110
-147
-286
-136
-94
-287
-297
-45
-152
-509
-223
5
-468
-171
-221
-897
-200
191
-162
-205
-65
-175
-235
-129
-420
-225
-4
-207
-267
-325
-169
-363
-180
172
-796
-781
-14
-45
-154
-223
-143
-183
-243
-7
145
-277
-651
-407
-109
-28
147
202
72
124
144
82
220
334
205
157
211
139
-44
79
220
-296
-549
-128
45
-214
-126
-1
-224
-146
-117
-344
-344
-256
-240
108
989
2188
3750
5471
5916
4126
1984
1016
452
134
-118
-286
27
-564
-856
-263
-400
-367
-434
-591
-360
-391
-578
-438
-405
-625
-546
-402
-505
-522
-533
-441
-488
-748
-348
-486
-720
-175
-311
-430
-87
-399
-679
-132
86
-10
192
277
168
32
319
670
584
698
823
694
813
922
729
660
770
614
362
309
515
57
-513
9
30
-390
-116
73
-149
-116
-88
-208
-165
-179
-375
-385
-198
-347
-352
-175
-308
-413
-496
-302
-369
-632
-169
39
-54
53
-127
-305
-194
-88
-164
-247
-201
-219
-262
-171
-233
-329
-125
-112
-287
-289
-58
52
-474
-576
-115
-148
-162
-17
-217
-305
-142
-158
45
-106
-639
-585
-271
-132
-337
-331
-154
-219
-304
37
-36
-390
-187
-190
-254
-243
-138
-148
-353
-258
-126
-267
-78
131
-447
-539
-180
-235
-267
-85
38
1
109
181
51
154
428
129
-213
67
247
126
190
262
93
-15
-92
-442
-428
-267
-293
214
84
-282
-147
-308
-220
-215
-425
-75
671
1661
3352
5311
6091
5042
2945
1347
739
358
114
-133
-338
-319
-710
-625
-88
-926
-1320
-481
-256
-482
-499
-317
-448
-693
-599
-488
-625
-495
-389
-558
-487
-403
-544
-587
-485
-586
-691
-617
-528
-426
-131
54
-67
-142
-146
-62
76
223
334
464
362
441
722
653
822
938
813
833
743
557
507
577
334
-111
-89
138
-62
-280
19
-89
-249
-128
-256
-340
-283
-158
-362
-364
-200
-442
-401
-240
-382
-407
-246
-182
-216
-388
-392
-241
-333
-216
-217
-378
-259
-183
-291
-449
-203
-120
-196
-22
-107
-328
-339
-379
-413
15
-140
-529
-205
-118
-274
-197
-120
-199
-240
-208
-162
-207
-235
-273
-411
-417
-293
-211
-268
-275
-133
-451
-588
-54
-84
-243
-127
-185
-354
-154
294
-393
-900
-283
-201
-259
-68
-179
-308
-215
-235
-205
38
-124
-338
110
368
146
67
184
219
-12
65
145
-223
267
560
-7
98
69
-127
-148
-204
-213
-467
-390
-126
-488
-465
-110
-307
-487
-145
588
1477
3171
5024
5746
5229
3511
1694
652
284
191
-22
-143
-313
-645
-573
-356
-512
-681
-668
-571
-544
-692
-724
-624
-617
-599
-597
-280
-604
-1253
-682
-418
-459
-310
-505
-440
-380
-498
-198
-219
-730
-461
-155
-265
-190
-28
51
-16
106
368
501
392
549
652
493
768
928
782
765
843
717
504
396
340
196
166
117
-188
-245
-82
-270
-504
-6
-127
-790
-570
-251
-300
-309
20
-445
-759
-189
-252
-358
-170
-183
-366
-386
-224
-265
-295
-164
-281
-472
-372
-235
-335
-243
-229
-530
-288
-357
-581
-267
-138
-53
-103
-294
-253
-190
-204
-77
-108
-278
-290
-357
-366
-205
-233
-354
-587
-500
-71
-121
-256
-124
-203
-300
-212
-295
-262
-121
-276
-465
-261
-12
-537
-754
-177
-151
-352
-133
-130
-294
-194
-167
-330
-286
-40
-180
-241
-1
-23
-120
-2
92
-10
108
215
190
240
305
341
-9
-198
21
-33
-106
-116
-426
-269
-95
-512
-512
-305
-311
-378
-337
-214
-232
260
1583
2883
4304
5720
5525
3317
1321
821
394
-80
68
-199
-644
-182
-345
-901
-514
-362
-650
-646
-491
-511
-569
-603
-558
-519
-690
-698
-560
-577
-457
-407
-515
-459
-544
-732
-552
-216
-278
-368
-187
-207
-394
-28
487
-183
-548
95
250
306
540
588
498
619
750
623
738
1187
1153
485
354
525
210
254
361
71
9
-19
-126
-56
-731
-984
-158
85
161
-22
-251
-87
-158
-292
-212
-272
-414
-279
-233
-401
-355
-197
-316
-379
-222
-244
-178
-140
-251
-280
-361
-87
-274
-822
-691
-223
75
-9
-80
-135
-90
-7
-149
-257
-157
-140
-360
-277
-56
-242
-303
-45
-125
-430
-508
-499
-285
-209
-443
-593
-344
88
18
-141
-139
-271
-407
-222
-148
-393
-204
-169
-317
-167
-358
-448
-301
-3
-5
-296
-274
-44
-37
-240
117
310
142
174
186
89
-38
216
142
-32
230
117
-46
41
35
-218
-233
-29
-522
-704
-255
-250
-257
-232
-195
84
-262
-238
1100
2480
4157
5504
5261
3512
1532
795
480
55
-145
-197
-169
-329
-520
-569
-477
-513
-694
-710
-693
-606
-244
-386
-832
-498
-276
-544
-507
-418
-510
-648
-476
28
-511
-829
-218
-409
-484
-221
-334
-353
-164
-199
-294
-68
91
58
254
523
420
421
289
344
662
58
382
1456
1210
736
717
563
543
465
187
163
114
-152
-227
-85
-150
-222
-124
-262
-392
-194
-112
-141
-422
-535
-475
-718
-265
-261
-933
-226
264
-125
-45
-29
-278
-270
-117
-222
-275
-103
-201
-371
-284
-244
-258
-455
-479
-215
-256
-183
-86
-282
-278
-194
-251
-279
-154
-196
-473
-366
-157
-235
-241
53
-212
-940
-395
35
-144
-107
-182
-182
-307
-411
-335
-201
-211
-190
-171
-256
-228
-132
-57
-285
-558
-560
-330
-146
-266
-153
9
-181
-231
-34
-25
-53
411
160
-588
-155
275
134
113
151
102
251
730
-3
-809
-2
225
-125
-68
-106
-298
-387
-281
-309
-440
-370
-277
-334
-310
-10
428
1544
3434
4709
5238
5009
2665
377
887
1147
211
-74
-142
-272
-483
-518
-497
-666
-651
-539
-623
-676
-523
-529
-539
-343
-589
-848
-613
-669
-740
-458
-868
-1119
-428
-82
-331
-558
-284
-16
-279
-483
-293
-275
-383
-168
-48
-111
-11
341
507
8
92
714
678
516
546
446
613
910
651
381
379
483
367
245
219
-82
-184
95
-1
-371
-336
-372
-474
-281
-234
-419
-423
-265
-384
-434
237
-126
-1178
-522
-27
-372
-252
-157
-327
-358
-233
-292
-441
-367
-236
-303
-268
-163
-267
-222
176
-5
-358
-283
-949
-856
163
217
-19
-118
-137
-135
-262
-157
-183
-406
-296
-175
-365
-452
-198
-88
-222
-234
-288
-423
-420
-49
-125
-734
-401
-456
-852
-35
51
-329
42
-2
-317
-349
-183
-161
-198
-96
-217
-380
-329
-344
-186
-42
-323
-348
-243
-153
-2
94
169
120
-46
311
472
-266
-335
210
370
182
158
216
-46
-222
-68
118
56
-351
-665
-547
-355
-217
-276
-375
-296
-360
-267
413
1587
3201
5022
6100
5382
3164
1426
706
185
-64
-609
-436
-141
-611
-203
-280
-532
-370
-591
-504
-459
-687
-638
-483
-576
-628
-559
-497
-518
-570
-491
-664
-570
-246
-571
-736
-445
-248
-195
-709
-1039
-355
-48
28
60
-205
50
246
161
387
584
531
593
755
630
951
934
214
299
607
795
560
484
502
143
105
156
23
-179
-78
-124
-477
-494
-311
-8
-427
-793
0
-179
-485
-69
-225
-274
-205
-161
-57
-276
-515
-562
-288
-192
-316
-291
-113
281
-366
-976
-322
-141
-166
23
-109
-154
-167
-337
-293
-93
-174
-251
-76
-41
-267
-298
-185
-229
-88
-159
-598
-506
-134
-167
-194
-52
-115
-278
-397
-270
-137
-233
-147
-86
-305
-242
14
-285
-520
-325
-273
-217
-77
-83
-260
-266
-143
-284
-355
-201
-240
-344
-63
239
40
-54
-127
-65
-109
-415
-164
-433
158
842
309
400
582
316
153
220
46
-147
-72
-72
-254
-322
-214
-258
-412
-262
-190
-525
-432
-244
-287
231
1045
2454
4411
5562
5373
3821
2003
1290
739
157
197
-88
-333
-273
-503
-591
-530
-466
-530
-682
-582
-679
-890
-512
-286
-661
-649
-561
-619
-416
-245
-554
-970
-729
-488
-568
-477
-207
-268
-341
-98
-205
-288
37
-15
-194
87
174
-50
261
841
394
6
545
683
815
1183
845
679
928
819
595
376
462
545
254
68
-54
-238
-267
-34
98
-276
-422
-404
-596
-330
-170
-399
-268
-142
83
208
-514
-633
-439
-438
-189
-306
-286
-177
-294
-111
21
-409
-654
-267
120
-177
-254
29
125
305
-187
-515
-378
-339
-151
-250
-277
-140
-210
-193
-53
-239
-476
-375
-284
-189
-109
-69
-318
-307
-25
-320
-444
-201
-106
-233
-247
-156
-167
-278
-279
-177
-230
-97
27
-119
-262
-360
-216
-281
-260
119
-399
-513
-6
-209
-143
120
72
152
364
317
-363
-329
367
264
363
151
-206
156
346
226
-1
18
129
-80
-210
-157
-278
-335
-201
-144
-267
-361
-441
-690
-371
773
1912
2876
4678
6184
5275
3012
1262
588
451
228
-128
-287
-105
-325
-494
-418
-967
-994
-503
-367
-404
-423
-307
-230
-499
-801
-586
-502
-511
-367
-509
-475
-253
-131
-139
-719
-828
-422
-295
-111
-183
-254
-106
-117
-178
5
524
724
498
274
114
392
737
726
670
827
893
728
739
809
680
598
817
636
87
53
-24
-102
70
-144
-355
-120
-214
-361
-46
-49
-146
-191
-223
-131
-269
-381
-241
-245
-296
-228
-274
-268
-272
-111
-188
-391
-392
-545
-194
52
-87
-168
-144
-3
-65
-147
-61
-49
-203
-226
-163
-227
-251
-94
-121
-345
55
-55
-650
-301
-254
-374
1
-2
-295
-376
-303
-183
-164
-71
-34
-224
-206
-129
-405
-249
91
-405
-555
-304
-265
-216
-129
-9
-111
-256
-88
341
-19
-457
33
22
-79
234
154
96
245
154
12
180
260
73
618
686
-436
-699
-309
-58
-309
-508
-323
-256
-132
133
213
-372
-671
-297
-4
694
1957
3474
5157
5900
4441
2041
960
701
153
-71
-90
-386
-351
-254
-696
-749
-373
-714
-963
-487
-223
-469
-438
-302
-522
-528
-415
-523
-620
-457
-346
-447
-508
-337
-328
-519
-512
-584
-474
-282
-213
-214
-200
3
17
-12
213
273
128
326
541
597
934
734
308
614
749
751
889
785
583
458
583
527
145
21
79
-59
-177
-70
-113
-295
-245
-345
-586
-352
-184
-291
-305
-268
-144
-308
-465
-233
-207
-331
-128
-51
-462
-348
-210
-418
-187
-111
-226
-129
-21
-61
-272
-424
-309
-301
-263
-12
-137
-412
-182
-101
-384
-120
50
-205
-165
-69
-225
-394
-254
-235
-364
-135
73
-201
-453
-236
-270
-491
-58
20
-681
-451
-87
-286
-96
-63
-250
-309
-229
-167
-134
-40
-49
-346
-477
-88
-168
-523
-229
-76
-259
-48
92
-7
95
261
349
-24
-147
187
173
265
329
142
298
407
-203
-446
-5
-5
-184
-165
-196
-338
-355
-183
-285
-392
-28
-75
-469
-30
846
2107
4172
5543
5542
4377
2358
1189
736
450
253
-286
-409
-236
-505
-735
-513
-500
-593
-462
-519
-676
-617
-563
-287
-390
-934
-722
-670
-596
-221
-453
-460
-356
-477
-345
-440
-572
-381
-180
-168
-261
-315
-290
-78
-52
-40
153
138
228
436
432
527
865
739
487
781
786
494
753
926
662
616
571
276
128
189
88
-26
-88
-207
-163
-109
-241
-382
-307
-262
-173
-184
-300
-262
-258
-218
-357
-456
-302
-117
-159
-220
0
-84
-405
-327
-282
-383
-309
-202
151
-147
-627
-269
-263
-264
-22
-144
-190
-24
-17
-348
-423
-202
-350
-234
30
-371
-478
-162
-160
-270
-194
-144
-219
-177
-389
-478
-115
1
-43
-159
-546
-431
-237
-305
-105
-164
-290
-163
-94
-275
-214
-76
-460
-400
-36
-236
-366
-149
-128
-320
-94
386
243
-240
-131
27
-87
220
382
140
188
295
71
46
264
143
76
251
100
-305
-421
-270
-392
-587
-401
-317
-331
-159
-140
-247
10
637
1531
3281
5226
6250
5481
2858
1051
736
509
184
-193
-302
-301
-580
-578
-293
-564
-874
-596
-442
-644
-699
-265
-382
-865
-540
-542
-725
-456
-399
-619
-526
-402
-215
84
-655
-997
-559
-423
-298
-358
-319
-167
-231
-250
31
241
197
413
558
307
348
608
627
638
852
855
682
850
861
924
752
350
307
-19
115
126
-82
53
-24
-213
-240
-43
-153
-375
-227
-172
-361
-324
-222
-293
-318
-259
-101
-137
-394
-403
-356
-225
-261
-675
-433
61
-124
-233
-71
-72
-175
-177
-127
-147
-151
-180
-255
-249
-169
-264
-239
-26
-244
-446
95
58
-547
-271
-99
-285
-248
-105
-49
-310
-335
-217
-361
-327
-104
1
-55
-295
-390
-275
-170
-174
-9
-147
-533
-260
-251
-269
-67
-224
-209
-56
-119
-143
83
338
267
59
43
53
128
205
72
12
166
126
49
82
112
386
58
-367
-483
-808
-492
-124
-424
-480
-22
-38
-213
-93
-15
423
1592
3115
4615
5798
5439
3042
969
634
371
171
179
-230
-460
-535
-659
-601
-432
-547
-831
-809
-707
-785
-532
-258
-302
-391
-354
-283
-490
-533
-381
-518
-718
-450
-189
-511
-518
-250
-633
-607
-86
-33
-83
-199
-174
-55
71
205
364
487
338
374
577
679
863
860
431
705
909
543
692
699
452
427
383
139
-26
-76
-224
-278
-169
-101
-139
-482
-468
-383
-510
-235
-61
-107
-241
-371
-402
-220
-66
-245
-426
-354
-313
-353
-217
-159
-294
10
99
-695
-738
-126
-227
-319
-66
-153
-192
21
80
-192
-444
-262
-265
-349
-228
-252
-364
-301
265
-97
-816
-311
-133
-293
-129
-159
-284
-175
-207
-360
-270
-45
24
-177
-88
-349
-668
-218
-154
-366
-73
-73
-349
-159
-483
-519
-180
-177
24
-87
-11
222
43
-28
179
180
77
211
141
47
203
272
-58
13
237
-540
-556
-101
-187
-251
-276
-168
-148
-276
-313
-260
-455
-381
51
430
1576
3311
4837
5658
4836
2855
1237
478
255
-40
-262
-71
-207
-438
-409
-487
-539
-584
-646
-723
-681
-314
-344
-656
-564
-625
-796
-452
-364
-681
-433
-428
-680
-483
-356
-371
-410
-246
-292
-478
-358
-236
-198
-181
-52
-71
53
97
63
326
466
629
610
671
1091
879
424
546
665
595
648
749
451
363
600
-146
-597
-13
18
-206
-178
-125
-176
-200
89
-221
-647
-388
-379
-542
-315
-39
-199
-285
-92
-258
-655
-407
-118
-263
-181
-84
-294
-213
-14
-254
-355
-224
-194
-320
9
278
-549
-855
-182
-47
-320
-204
-75
-59
-138
-271
-327
-326
-93
-105
-283
0
137
-339
-520
-391
-333
-249
-134
-189
-336
-219
-326
-105
185
-473
-633
-308
-241
-241
-322
-201
-167
-325
-281
-190
-239
-201
-27
351
198
-473
-446
-214
-60
174
55
0
209
158
23
80
254
120
280
631
-249
-293
341
66
-152
-171
-212
-357
-303
-203
-265
-408
-418
-321
-391
-204
325
1144
2875
4894
5832
5415
3555
1625
1055
466
-288
-182
-74
-313
-393
-487
-431
-458
-670
-528
-461
-711
-639
-428
-657
-759
-424
-424
-877
-895
-505
-448
-508
-671
-938
-698
-411
-320
-330
-331
-197
-252
-364
-258
-280
-255
46
41
-136
126
480
339
378
593
448
407
735
911
799
935
958
574
339
364
347
233
193
112
-146
-46
-113
-563
-392
-152
-315
-280
103
-29
-612
-586
-460
-389
-204
-246
-155
-257
-554
-252
-153
-337
-183
-222
-255
-107
-250
-383
200
302
-653
-792
-266
-317
-339
-167
-279
-377
-242
-247
-246
26
-186
-558
-247
50
-205
-418
-386
-228
-195
-117
13
-264
-303
-151
-332
-322
-179
-290
-362
-277
-19
-148
-413
-69
-184
-539
-286
-266
-556
-530
-288
-206
-218
-65
-40
-145
-119
-167
-184
-1
123
53
-1
44
-30
46
308
70
-63
233
212
67
137
162
136
114
64
-58
-269
-291
-194
-339
-551
-295
-70
-344
-520
-521
-178
77
582
1993
3571
5310
6141
4987
2794
1354
813
251
18
-81
-302
-311
-361
-438
-497
-824
-931
-587
-445
-616
-707
20
-232
-1159
-611
-499
-748
-487
-435
-613
-602
-484
-560
-458
98
166
-884
-955
-267
-358
-281
-102
-191
-169
40
75
36
234
378
303
475
1000
850
590
990
803
494
683
887
668
286
693
141
-903
111
599
47
229
167
-151
-183
-140
-264
-355
-205
-211
-368
-167
-116
-342
-345
-280
-294
-418
-341
-213
-500
-446
-121
-597
-931
-499
-116
7
54
-84
-326
-180
-33
-337
-377
-152
-208
-215
-5
-170
-502
-158
-76
-658
-424
-165
-389
-242
-307
-324
-252
-238
-132
-333
-386
-176
-200
-263
-140
-139
-326
-377
-463
-345
-238
-222
-383
-587
3
41
-318
-190
-168
-185
-166
-192
-398
-296
-1
-188
-236
-174
-190
-84
-55
-13
69
-47
136
381
44
84
382
205
216
248
-205
-290
-15
-10
-288
-266
49
-354
-621
-283
-326
-392
-171
-211
-352
-178
208
1427
3368
5147
5992
5206
3197
1244
401
244
47
-168
-211
-189
-214
-459
-703
-761
-836
-663
-739
-796
-429
-446
-710
-532
-221
-493
-740
-699
-419
-416
-605
-288
-249
-491
-544
-592
-626
-303
-133
-335
-341
-299
-406
-281
323
135
-501
136
498
282
618
781
628
689
848
788
742
826
755
552
476
579
371
-20
128
38
-310
-306
-187
-139
-130
-88
-562
-630
-107
-230
-339
-116
-170
-290
-266
-281
-281
-382
-347
-316
-487
-381
-312
-281
-207
-345
-327
-315
-355
-280
-302
-171
-20
-47
-221
-293
-322
-399
-114
19
-379
-263
-31
-481
-325
-75
-349
-226
-329
-584
-394
-204
-115
-221
-257
-82
-71
-250
-228
-290
-571
-381
-217
-415
-343
77
230
-290
-625
-422
-485
-367
-198
-314
-262
-122
160
-347
-589
-80
-173
-130
83
149
132
188
143
101
200
-57
-61
236
217
54
36
126
-24
-203
-49
-35
-311
-373
-147
-122
-429
-511
-546
-493
-247
-184
-169
241
1587
3115
4741
5986
4967
2570
1166
769
225
90
156
-504
-693
-367
-576
-626
-275
-494
-738
-614
-670
-648
-613
-554
-532
-601
-494
-500
-736
-346
-10
-555
-668
-739
-813
-450
-292
-307
-391
-308
-245
-362
-133
396
-41
-424
51
103
152
481
585
424
513
802
665
618
911
814
596
868
1018
460
68
386
445
59
31
-433
-591
-153
-95
-80
-73
-40
-217
-291
-124
-316
-467
-149
-103
-356
-394
-239
-150
-163
-224
-524
-635
-346
-60
-90
34
28
-490
-494
-121
-19
-182
-165
-80
-171
-202
-126
-174
-281
-166
-253
-370
-17
24
-225
-169
-229
-492
-503
-185
-258
-183
175
-169
-460
-419
-315
-237
-250
-123
-158
-301
-163
-126
-253
-219
-189
-162
-173
-367
-436
-171
23
-207
-355
43
-78
-624
-629
-169
-8
-295
77
361
79
23
234
255
79
188
194
137
246
148
229
167
3
-55
-314
-198
-93
-126
-171
-276
-232
-220
-287
-345
-304
-191
-243
-329
-97
633
1786
3213
5098
6064
4628
2355
1145
736
551
263
-81
-164
-180
-421
-656
-625
-561
-482
-435
-425
-629
-758
-545
-545
-407
-498
-952
-721
-362
-451
-582
-484
-299
-248
-293
-599
-686
-461
-355
-263
143
-148
-715
-218
-125
-120
163
90
244
555
522
483
605
578
626
820
823
700
757
836
627
740
931
102
-260
99
3
-144
-58
75
-207
-430
-319
-245
-214
-226
-289
-376
-20
-117
-519
-268
-119
-283
-348
-184
-176
-357
-305
-110
-209
-249
-111
-314
-457
-371
-367
-428
-148
-109
-515
-127
18
-334
-236
-74
-165
-149
-34
-337
-395
-279
-154
10
-323
-234
-97
-600
-471
-9
-148
-308
-122
-127
-286
-222
-180
-375
-287
-45
-359
-453
-120
-306
-413
5
134
-277
-505
-345
-373
-285
-91
-228
-283
12
49
-323
-368
-233
-304
-320
113
-22
-312
290
204
-134
128
267
175
168
218
183
256
365
97
-155
27
41
-117
-20
-42
-217
-362
-286
-162
-641
-757
-271
-233
-248
-78
47
579
2038
4173
5534
5878
4889
2486
1176
848
166
-142
-65
-196
-425
-573
-633
-627
-525
-415
-727
-893
-489
-420
-567
-375
-275
-538
-684
-464
-538
-649
-368
-381
-590
-507
-383
-197
-279
-663
-699
-407
-151
-212
-383
-116
76
-288
-131
464
394
332
656
680
700
754
615
663
615
641
794
751
808
575
307
423
430
399
208
-59
-388
-406
-137
-353
-351
-18
65
-450
-504
49
-191
-425
-127
-226
-151
349
-247
-913
-436
-129
-274
-298
-148
-201
-382
3
137
-142
-289
-417
-286
-274
-161
-106
-287
-221
-147
-177
-99
147
189
-417
-554
-186
-302
-289
-4
-193
-423
-177
-181
-367
-286
-165
-206
-159
-207
-386
-304
-87
-128
-180
-68
-209
-479
-402
-205
-232
-221
-93
95
-270
-612
-393
-378
-254
-129
-270
27
282
-461
-713
-175
-193
-215
24
9
-40
-30
-32
-11
46
216
225
105
297
292
-122
-32
33
-289
-257
-56
-243
-359
219
28
-768
-950
-694
-253
-194
-304
-482
-322
625
1804
3319
5191
6282
5213
2633
1107
847
372
-84
-149
-271
-348
-427
-729
-754
-540
-22
-368
-1221
-862
-749
-662
-368
-662
-696
-452
-445
-599
-524
-425
-455
-404
-431
-469
-563
-313
-250
-682
-504
-417
-419
-96
17
-22
-89
126
163
60
374
567
453
552
1019
937
241
481
1004
824
883
917
602
454
432
188
-77
-33
86
-13
-106
-206
-436
-420
-117
24
-334
-532
-414
-561
-391
-7
-360
-551
-337
-440
-339
-119
-132
-328
-285
140
-154
-656
-377
-261
-380
-223
-55
-60
-99
-85
-333
-468
-246
-323
-341
-185
-228
151
50
-579
-593
-470
-224
-94
-128
-104
-164
-305
-253
-233
-357
-214
-24
-130
-413
-411
-198
-186
-202
-301
-459
-154
-118
-613
-607
-167
18
-200
-265
-122
-210
-234
-167
-252
-290
-169
-54
-219
-295
-115
-150
-138
94
149
79
45
52
-19
70
266
151
223
299
240
224
-90
-177
-108
-98
-105
-242
-115
-152
-482
-409
-206
-241
-326
-206
7
-7
435
1792
3637
5260
5998
4867
2157
564
462
198
112
68
-281
-256
-353
-494
-573
-608
-456
-537
-519
-551
-755
-589
-239
-636
-945
-448
-353
-440
-405
-378
-477
-607
-321
-242
-500
-389
-261
-587
-675
-362
-200
-146
190
180
-62
287
373
91
241
593
527
561
813
843
821
690
693
708
903
806
192
316
599
432
212
71
-1
-178
-156
-73
-274
-395
-136
-103
-385
-181
-203
-467
-275
-224
-488
-409
-23
-195
-506
-402
-257
-307
-394
-211
-149
-177
-28
-139
-204
-80
-222
-363
-218
-23
-148
-224
-165
-261
-252
-218
-336
-428
-53
-4
-596
-498
5
-76
-271
-282
-227
-191
-194
-135
-208
-227
-119
-250
-416
-226
-35
-216
-195
-320
-702
-445
-70
-73
-258
-151
-237
-589
-248
-51
-307
-134
-133
-350
29
-69
-503
-348
-35
105
-10
-48
108
227
194
254
182
-172
-38
322
190
44
188
210
-32
-138
-229
-439
-541
-470
-302
-257
-142
-227
-396
-174
-4
27
837
2524
3945
5067
5672
4066
1488
741
595
41
-76
-80
-282
-558
-409
-297
-753
-529
-173
-631
-651
-455
-531
-584
-694
-657
-630
-533
-376
-621
-495
-232
-480
-538
-326
-240
-454
-488
-361
-396
-273
-154
-207
-189
-127
-111
17
213
336
469
459
305
333
557
726
773
739
810
920
740
726
640
382
344
360
225
-8
292
60
-646
-302
-100
-360
-168
-29
-111
-159
-278
-342
-356
-326
-137
-133
-156
-103
-334
-575
-376
-214
-275
-255
202
223
-764
-639
-145
-360
-196
-143
-278
-92
-1
-106
-184
-167
-149
-337
-284
-178
-318
-195
-48
-134
-166
-243
-399
-339
-216
-213
-208
-378
-232
-264
-500
-114
-163
-429
-131
-48
-391
-194
219
-229
-658
-347
-124
-329
-195
-4
-316
-376
-221
-278
-161
-99
-356
-350
-320
-241
-203
-231
-108
-101
391
327
-262
-215
-18
131
81
295
257
-182
300
516
41
25
90
22
-90
-24
91
-181
-471
-426
-284
-371
-284
-41
-440
-713
-290
88
622
2002
3926
5471
5900
4718
2207
760
689
255
188
157
-453
-610
-540
-557
-585
-618
-458
-462
-606
-481
-427
-685
-528
-414
-501
-463
-793
-968
-848
-482
-245
-433
-487
-360
-519
-517
-227
-362
-309
-93
-398
-543
-151
73
-122
274
535
-100
-45
471
571
667
989
734
347
574
818
771
685
736
600
309
357
351
-116
-15
153
-150
-230
-140
-227
-332
-216
-229
-461
-278
7
-250
-381
-204
-351
-553
-343
-202
-198
-324
-291
-223
-393
-253
-287
-316
-136
-69
-161
-318
-291
-263
-245
-161
161
17
-571
-573
-394
-273
-163
-264
-356
-205
-142
32
409
-348
-1180
-552
-42
-252
-308
-177
-226
-385
-324
-94
-386
-450
1
-89
-281
-215
-120
-311
-402
-231
-278
-342
-218
-180
-262
-222
-224
-310
-341
-180
-68
-201
-215
-226
-370
-280
-153
-142
-73
-60
-108
-83
213
254
161
589
569
63
4
79
140
192
-8
-112
-24
-153
-427
-365
-158
-402
-382
-122
-227
-237
-276
-319
-197
206
1261
2673
4520
6023
5649
3610
1769
1107
549
60
65
-163
-579
-744
-468
-368
-582
-432
-516
-672
-468
-539
-572
-555
-759
-544
-476
-658
-503
-601
-583
-251
-552
-651
-270
-544
-736
-439
-360
-442
-331
43
-250
-461
-131
-332
52
370
25
190
587
799
602
617
859
725
685
893
917
693
549
623
646
420
247
84
-112
26
-96
-201
22
-268
-533
-326
-179
-261
-446
-563
-440
-132
-128
-277
-227
-295
-318
-320
-335
-132
-104
-337
-305
-279
-378
-292
-234
-103
-300
-395
-253
-527
-312
-1
-128
-97
-33
-205
-384
-246
-88
-271
-205
-59
-345
-357
-232
-205
6
-166
-576
-552
-180
-139
-427
-250
-21
-256
-245
-142
-395
-447
-181
-161
-356
-332
-166
-146
-257
-256
-38
-21
-348
-413
-416
-402
-282
-361
-306
-156
-407
-475
-53
45
-207
-175
93
17
-46
151
172
113
314
420
52
-56
131
81
237
483
284
100
-139
-381
-415
-266
-17
-157
-349
-174
-11
-332
-551
-292
-312
-380
-21
532
1594
3366
5125
6017
5265
3019
1155
635
388
-124
-73
33
-381
-442
-266
-392
-674
-874
-705
-564
-588
-458
-569
-695
-577
-474
-691
-678
-336
-496
-520
-301
-459
-559
-512
-484
-575
-568
-283
-391
-365
-113
-386
-325
41
95
204
260
294
434
350
335
586
680
693
711
767
836
976
995
656
468
461
548
501
55
-251
-69
0
-276
-365
-159
-206
-270
-142
-455
-392
-199
-433
-430
-423
-232
-88
-301
-299
-236
-325
-303
-193
-242
-313
-139
-88
-180
-515
-606
-310
-360
-349
-415
-253
118
-16
-199
-56
41
-235
-267
-45
-273
-297
-50
-240
-443
-340
-57
-421
-742
-253
-153
-221
27
-44
-189
-157
-371
-483
-283
-130
-226
-275
-257
-364
-435
-223
125
-107
-553
-426
-327
-430
-64
-23
-433
-361
-62
-228
-472
-77
-48
-244
-51
-52
-122
146
404
9
-116
274
84
139
354
-34
-42
215
110
7
123
70
-133
-106
-9
-156
-277
-98
-172
-546
-465
-108
-295
-473
-199
-41
297
1676
3661
5118
6231
5460
2486
895
850
279
-118
160
-219
-541
-359
-397
-573
-759
-544
-459
-638
-621
-604
-728
-591
-312
-408
-404
-503
-646
-501
-449
-502
-605
-612
-533
-464
-443
-283
-286
-415
-109
-114
-479
-234
122
84
195
406
157
173
620
688
583
787
1088
776
665
787
569
679
838
721
500
487
530
306
166
26
-208
-371
-266
-139
-295
-278
-255
-404
-377
-172
-120
-262
-340
-345
-344
-424
-357
-148
-176
-274
-231
-266
-250
-229
-299
-214
-192
-318
-199
-49
-113
-359
-410
-28
-194
-452
-306
-325
-210
-50
-129
-266
-173
-50
-245
-272
-140
-385
-472
-206
-312
-301
201
-139
-602
-425
-373
-315
-297
-160
-241
-135
11
-388
-622
-654
-261
-60
-179
63
-68
-386
-239
-231
-360
-265
-142
-219
-191
57
-46
-206
45
-40
10
430
156
-42
144
-109
-343
19
360
371
107
-31
44
-224
-374
-164
-219
-370
-159
-251
-553
-465
-368
-274
-92
67
563
1837
3901
5533
5620
4190
2123
675
233
189
-126
-320
-139
-272
-633
-713
-549
-709
-762
-581
-489
-27
-326
-1101
-1001
-552
-393
-587
-628
-487
-571
-656
-419
0
-138
-622
-770
-617
-477
-467
-353
-267
-71
-157
-355
-84
172
162
102
367
517
440
645
722
610
852
1034
719
622
837
643
589
667
180
2
36
-102
-81
9
186
42
-293
-228
-114
-326
-401
-301
-321
-226
-247
-436
-374
-181
-177
-518
-525
-235
-511
-237
243
-322
-504
-207
-163
-174
-53
-85
-348
-249
-174
-320
-351
-144
-193
-614
-356
185
-92
-350
-24
-122
-389
-23
52
-486
-489
-119
-367
-516
-171
-81
-240
-271
-165
-232
-264
-182
-269
-276
-137
-144
-338
-405
-307
-313
-274
-46
-18
-281
-287
-326
-491
-290
-177
-255
-46
-59
-275
-209
-22
158
124
309
391
-165
-280
201
128
49
234
192
179
120
23
-103
-8
14
-53
-8
-321
-519
-526
-371
-116
-368
-548
-332
-307
-57
708
1997
3880
5494
5918
4431
2206
1077
570
211
204
-52
-547
-458
-287
-529
-572
-472
-647
-832
-644
-465
-495
-387
-465
-789
-579
-354
-545
-484
-325
-497
-779
-581
-344
-548
-469
-161
-310
-506
-341
-214
-173
-175
-256
-243
39
390
236
106
256
287
401
683
788
781
1017
989
783
811
763
488
341
575
435
-28
-23
-51
-215
191
253
-397
-465
-120
-125
-359
-269
-148
-265
-203
-225
-392
-413
-265
-90
-366
-489
-276
-353
-256
-116
-28
-213
-584
-359
-247
-231
-59
-245
-47
228
-408
-735
-338
-187
-272
-98
47
93
232
-367
-748
-382
-193
-215
-290
-186
-63
15
-84
-472
-530
-291
-178
-216
-293
-39
96
-408
-569
-192
-240
-349
-119
-103
-292
-59
35
-331
-386
-270
-148
-300
-394
-213
-317
-204
-104
-285
-177
-215
-340
-119
12
-111
-217
-28
226
204
99
145
9
-81
350
245
-77
347
242
-2
265
225
-71
-208
-26
-42
-378
-386
-264
-264
-312
-274
-270
-320
-188
-277
10
1048
2600
4271
5723
6028
4091
1777
1084
853
133
-250
-74
-221
-495
-436
-484
-590
-667
-528
-393
-564
-621
-643
-687
-543
-464
-524
-555
-590
-643
-450
-552
-697
-399
-299
-462
-502
-328
-294
-326
-228
-157
-312
-353
9
25
-190
140
379
207
233
495
589
626
645
557
811
1175
989
594
775
710
439
582
296
99
203
120
55
-151
-208
-130
-425
-425
-55
-215
-450
-263
-263
-345
-270
-169
-122
-366
-305
-206
-344
-204
-198
-319
-266
-135
-179
-283
-403
-426
-406
-210
-39
-243
-8
-145
-615
-281
-36
-261
-260
52
-131
-480
-232
-107
-308
-221
39
-83
-363
-391
-335
-316
-298
-206
-333
-490
-93
-92
-463
-240
-119
-289
-305
-259
-245
-146
-44
-239
-442
-139
-326
-656
-151
-70
-382
-295
-102
-147
-286
-145
-71
-323
-208
89
37
-116
18
20
-257
-64
114
13
340
363
71
184
170
-150
120
587
36
-267
-237
-265
-151
-237
-174
-283
-441
-146
-122
-541
-483
-256
-143
616
1810
3483
5440
6327
5047
2324
1041
1016
377
16
145
-207
-485
-393
-607
-724
-479
-503
-761
-701
-405
-568
-763
-456
-309
-545
-734
-691
-739
-654
-413
-459
-580
-204
-116
-801
-814
-316
-317
-328
-109
-282
-284
155
13
-238
-41
265
298
296
518
548
561
812
759
638
1018
904
488
602
824
768
475
454
274
-89
38
102
-150
-102
20
-156
-293
-313
-392
-385
-232
-287
-49
-82
-758
-571
-366
-445
-174
-219
-255
-156
-290
-311
-221
-368
-217
-35
-252
-403
-387
-258
-257
-210
-46
-142
-84
-42
-467
-513
-112
-30
-261
-314
-191
-228
-307
-200
-146
-241
-192
-268
-287
-141
-291
-369
-94
75
-275
-471
-245
-218
-434
-308
-61
-119
-166
-455
-505
-270
-245
-191
-278
-233
151
415
-263
-831
-424
-292
-149
67
-62
41
216
467
343
-215
-161
-23
58
479
412
36
-20
-14
-47
-37
11
-69
-150
-81
-187
-409
-257
-267
-399
-309
-297
-454
-371
314
930
2028
4063
5465
5732
4539
2214
983
713
296
48
3
-287
-535
-487
-458
-485
-662
-649
-505
-698
-658
-408
-582
-730
-275
-410
-907
-565
-344
-514
-561
-364
-479
-700
-477
-336
-458
-269
-48
-388
-613
-239
-98
-303
58
123
-65
285
473
474
554
553
595
828
946
888
737
693
753
674
663
660
515
355
287
40
-256
-83
-7
-91
-66
-144
-317
-477
-325
-189
-302
-279
-372
-621
-354
-51
-244
-223
-131
-327
-491
-252
-193
-247
-140
-308
-260
-368
-486
-246
-238
-188
90
-33
-327
-91
-178
-467
-87
-100
-681
-467
-43
-231
-278
-111
-103
-256
-248
-281
-372
-161
-127
-229
-149
-142
-341
-480
-172
-196
-435
-126
-107
-487
-425
-216
-235
-227
-215
-76
-78
-317
-360
-321
-238
-128
-94
-76
-39
-188
-191
119
65
84
293
210
-19
-138
10
102
141
292
346
99
-146
-77
-140
-279
-182
-272
-385
-263
-191
-442
-498
-142
-461
-457
414
1027
2020
3833
5497
5691
4214
2098
714
244
273
307
-300
-444
-331
-604
-483
-163
-271
-850
-1043
-660
-570
-561
-490
-622
-469
-263
-436
-635
-555
-505
-576
-474
-174
-358
-766
-471
-344
-591
-394
-229
-293
-142
-73
-307
-221
145
135
231
474
411
554
650
520
680
823
659
523
652
879
899
666
567
578
270
129
206
-57
-207
-35
-151
-363
-237
-225
-371
-183
-74
-500
-403
40
-371
-746
-398
-126
-220
-215
-233
-392
-279
-199
-314
-272
-103
-187
-385
-127
-91
-316
-317
-230
-243
-486
-186
145
-316
-532
-175
-254
-340
-37
-113
-369
-203
44
-121
-246
-137
-437
-589
-207
-137
-332
-201
239
-246
-856
-274
-172
-394
-128
-151
-256
-126
-189
-529
-504
-155
-136
-119
30
-174
-481
-480
-229
-265
-363
-17
1
-248
-95
85
1
56
462
300
-107
170
30
-324
170
272
-58
231
300
7
-26
55
-32
-205
-188
-401
-664
-363
-210
-449
-319
158
-185
-620
18
1067
2630
4567
5887
5542
3572
1876
1222
851
140
-638
-531
-292
-468
-599
-620
-534
-639
-665
-438
-267
-316
-634
-904
-840
-654
-504
-422
-526
-424
-396
-628
-577
-418
-569
-726
-468
-352
-364
-280
-340
-348
-199
-89
-242
-138
59
-177
0
363
335
398
783
876
654
844
868
644
776
662
379
449
656
544
174
275
247
-171
-101
-6
-278
-295
-94
-312
-596
-425
-231
-319
-373
-181
-216
-454
-359
-229
-412
-482
-204
-2
-138
-217
-538
-705
-257
-108
-326
-286
-194
-331
-156
20
-2
-227
-443
-181
-374
-471
39
-133
-296
-161
-280
-198
-256
-335
-362
-290
15
-330
-591
-278
-279
-379
-162
-143
-280
-92
-178
-528
-387
-77
-212
-381
-275
-220
-421
-421
-136
-263
-277
-110
-318
-437
-428
-259
-139
-266
-402
-322
-276
-260
-168
-264
-156
-50
-58
244
192
-194
-149
84
290
151
35
219
53
25
185
-1
11
137
-150
-216
-66
-246
-403
-442
-375
-356
-379
-185
-301
-444
-279
-113
226
981
2568
4500
5911
6062
4079
1564
841
672
34
-21
-74
-390
-493
-549
-672
-557
-239
-688
-1025
-591
-437
-633
-667
-518
-570
-740
-517
-362
-610
-577
-459
-662
-728
-393
-284
-585
-575
-317
-442
-421
-147
-198
-340
-288
-108
-94
133
412
32
82
567
634
776
853
633
618
874
923
844
836
629
277
358
381
95
172
164
-61
-265
-303
-106
-344
-548
-151
-234
-495
-261
-73
-116
-278
-218
-339
-555
-314
-169
-90
-86
-456
-562
-571
-424
-62
-339
-343
-120
-241
-34
61
-408
-400
-22
-254
-350
-70
-333
-485
-106
-355
-547
-6
-24
-437
-170
26
-228
-261
-191
-265
-410
-328
-183
-277
-313
-256
-199
-280
-316
-46
-253
-665
-312
-159
-355
-75
82
-290
-418
-314
-435
-333
-96
-165
-292
-109
-150
-423
-329
-193
-333
-171
169
-122
-315
89
119
-221
101
373
185
88
-136
-210
34
324
200
14
329
185
-276
-40
62
-345
-384
-74
-195
-424
-284
-518
-518
-4
-294
-659
-73
1045
2435
4132
5933
6411
4315
1789
978
635
233
38
-99
-271
-656
-704
-574
-573
-420
-423
-565
-599
-732
-779
-585
-516
-561
-514
-474
-692
-746
-433
-564
-550
-117
-183
-683
-726
-412
-556
-380
-165
-381
-301
-189
-73
-105
72
479
220
80
327
338
376
801
991
534
730
1078
811
843
1094
803
333
409
415
80
-17
28
-165
-100
37
-357
-529
-119
-128
-290
-184
-402
-510
-324
-235
-347
-391
-196
-148
-384
-402
-232
-385
-392
-67
-301
-440
98
-182
-823
-370
-29
-441
-380
-103
-187
-252
-91
-32
-240
-210
-85
-148
-143
-135
-308
-370
-243
-393
-584
-360
-196
-224
-32
29
-211
-368
-350
-290
-354
-200
137
-95
-512
-568
-475
-261
-111
-204
-335
-277
-277
-372
-237
-38
-198
-358
21
9
-358
-267
-234
-407
-173
386
-23
-416
-19
93
102
203
297
74
-39
194
181
184
261
45
-175
-114
-46
-147
-183
-10
-111
-663
-653
-279
-343
-278
-195
-351
-51
661
1298
2362
4408
5998
5574
3675
1537
435
316
108
-205
-216
-89
-324
-570
-525
-449
-457
-654
-587
-483
-600
-352
-503
-1024
-737
-319
-566
-643
-451
-611
-541
-298
-230
-297
-392
-476
-620
-515
-116
-146
-543
-305
-77
-166
5
248
141
-25
481
653
297
652
908
1138
1262
595
431
757
898
797
575
588
532
300
274
249
85
-136
-163
-27
-328
-344
-198
-467
-432
-252
-152
-362
-437
-271
-360
-248
-131
-378
-377
29
-99
-456
-303
-302
-335
-126
-341
-415
-194
-237
-344
-278
-89
-90
6
-2
-321
-394
-214
-97
-252
-390
-261
-254
-233
-183
-304
-326
-240
-30
-130
-240
-134
-421
-355
-44
-211
-322
-244
-86
-193
-353
-271
-355
-396
-232
-159
-233
-171
-269
-404
-324
-45
279
-235
-581
-230
-358
-233
72
52
282
184
-190
-29
245
168
163
265
92
-185
-56
329
365
74
-71
22
-207
-396
-214
-293
-389
-17
73
-420
-388
-275
-585
-293
490
1438
3003
4929
6008
5271
3246
1590
799
535
359
-68
-272
-294
-465
-594
-636
-667
-632
-497
-492
-694
-595
-390
-486
-594
-612
-480
-480
-575
-483
-622
-728
-454
-508
-469
-318
-515
-279
-220
-373
-403
-379
-184
-33
83
-143
-235
21
256
413
363
555
1076
797
462
821
826
720
799
803
673
636
699
350
-89
101
312
347
115
-510
-530
-296
-249
-121
-252
-138
117
-486
-634
-72
-180
-262
-149
-429
-332
-191
-352
-367
-184
-68
-568
-466
-27
-211
-277
-96
-10
-352
-393
-150
-338
-371
-151
-101
-143
48
-64
-365
-319
-334
-156
-184
-263
-257
-436
-207
-145
-256
-151
-191
-275
-138
-45
-214
-334
-231
-236
-282
7
102
-299
-445
-460
-519
-224
-74
-260
-341
-149
-241
-343
-149
-165
-288
-232
-132
-146
-209
-238
-122
173
122
-274
-241
-91
36
232
180
227
350
145
58
267
250
67
78
88
-98
-69
121
126
-234
-446
-443
-575
-92
-183
-674
-247
-330
-701
-143
723
1534
3061
5183
6407
5586
3297
1495
814
604
310
-239
-358
-222
-431
-715
-533
-277
-656
-767
-384
-457
-749
-556
-476
-834
-659
-281
-582
-780
-483
-459
-514
-444
-500
-590
-502
-407
-497
-311
-141
-317
-425
-130
-46
-143
110
85
-137
18
291
405
503
734
839
799
821
992
868
435
728
907
491
566
551
117
152
296
-30
-111
18
-255
-251
3
-511
-688
-190
-203
-255
-154
-260
-370
-322
-206
-216
-263
-159
-161
-316
-320
-305
-318
-231
-300
-525
-401
-160
-283
-99
-30
-386
-249
-229
-388
-147
-192
-201
152
-142
-395
-199
-313
-219
5
-168
-406
-327
-272
-345
-127
-9
-340
-404
-158
-274
-319
-4
-96
-345
-240
-211
-398
-428
-269
-192
-212
-158
-168
-422
-320
-77
-196
-206
61
-92
-560
-387
-203
-370
-101
98
-171
-206
70
172
-10
90
274
27
38
361
245
120
309
256
136
-62
-182
-124
-62
119
-111
-346
-232
-345
-479
-362
-227
-201
-131
-208
-471
-133
762
2070
4041
5800
6178
4634
2249
1157
858
228
34
-22
-261
-282
-498
-800
-662
-531
-699
-586
-501
-646
-628
-526
-424
-494
-483
-491
-680
-841
-593
-222
-515
-720
-416
-569
-733
-329
-334
-343
-129
-226
-217
-319
-317
-40
146
89
-49
91
342
551
528
673
935
719
695
982
840
758
1004
831
420
452
581
134
-115
120
-42
-360
-294
-193
-361
-269
-142
-260
-273
-203
-315
-458
-168
-29
-208
-330
-442
-517
-434
-301
-358
-325
-154
-262
-353
-214
-276
-381
-297
-35
-60
-247
11
-174
-511
-350
-310
-290
-162
-148
-336
-232
-84
-248
-399
-323
-175
-80
-173
-335
-262
-253
-64
-39
-390
-319
-327
-594
-397
-199
-348
-323
-65
-126
-317
-47
3
-428
-371
-151
-369
-457
-249
-172
-229
-210
-227
-372
-386
-175
-243
-110
185
-127
-158
197
166
43
319
315
-135
8
280
75
41
211
243
77
-130
-96
-206
-438
-167
-211
-535
-217
-123
-379
-317
-180
-322
-364
97
860
2213
4228
5834
6022
4405
2118
787
584
524
7
-304
-212
-279
-635
-802
-524
-483
-710
-567
-513
-710
-654
-463
-598
-678
-457
-757
-948
-480
-487
-563
-368
-397
-444
-420
-372
-448
-539
-396
-218
-233
-171
-129
-318
-206
22
55
166
371
464
371
575
816
769
830
782
714
673
762
815
514
588
728
391
291
182
-188
-67
11
-246
-299
-155
-140
-451
-359
-112
-268
-428
-401
-307
-296
-169
-273
-531
-415
-159
-186
-350
-282
-302
-399
-314
-238
-247
-397
-499
-343
-137
-113
-275
-266
-160
-69
-173
-324
-135
-212
-328
-254
-188
-270
-249
-130
-376
-292
-121
-360
-303
-218
-285
-356
-409
-133
-167
-319
-82
-225
-461
-243
-266
-323
-161
-199
-534
-510
20
-168
-347
-88
-288
-359
-145
-128
-261
24
122
-463
-530
-157
25
-19
132
233
-293
-132
315
150
117
356
352
111
94
126
1
-65
33
-119
-273
-121
-243
-453
-174
-89
-425
-440
-207
-280
-639
-396
58
420
1731
3601
5300
6248
5402
2873
1171
1066
599
-14
-85
-181
-327
-530
-694
-650
-570
-505
-587
-720
-678
-646
-689
-496
-478
-755
-927
-633
-402
-583
-348
-163
-250
-354
-604
-683
-558
-362
-285
-403
-297
-131
-220
-190
64
3
-98
137
236
243
444
694
622
510
666
867
856
815
850
696
754
811
575
543
609
118
-238
112
-49
-406
-108
-199
-517
-271
-265
-337
-195
-138
-83
-215
-307
-269
-319
-252
-177
-361
-309
-120
-360
-508
-187
-135
-360
-203
-36
-387
-608
-125
-70
-339
-65
-49
-244
-169
-76
-165
-208
-154
-289
-301
-137
-239
-410
-260
-35
-278
-439
-129
-152
-371
-45
250
-161
-441
-227
-468
-503
-7
-453
-690
-59
-60
-249
-26
70
-135
-267
-161
-98
-87
-148
-329
-434
-372
-323
-334
-268
-202
-170
-263
-164
-35
-42
356
440
86
-53
-114
-28
220
384
210
-111
102
210
164
259
133
55
-86
-31
-55
-427
-375
-223
-267
-113
-222
-450
-325
-319
-412
-47
842
2317
3942
5530
6363
4716
2164
1223
977
322
-23
26
-260
-581
-642
-437
-234
-676
-929
-846
-853
-549
-424
-528
-468
-461
-486
-419
-460
-605
-625
-489
-593
-672
-392
-451
-614
-429
-471
-509
-175
-183
-362
-242
-242
-163
40
211
377
342
401
402
378
636
849
854
888
1037
918
741
825
815
468
242
364
263
80
154
130
-117
-224
-161
-301
-411
-252
-354
-388
-129
-259
-487
-359
-133
-117
-232
-270
-291
-385
-275
-169
-304
-79
-189
-627
-531
-306
-266
-286
-136
-94
-41
172
-111
-621
-551
-225
-244
-332
-203
-147
-216
-110
86
-61
-250
-281
-429
-446
-232
-79
-105
-402
-678
-472
-126
-53
-225
-299
-105
-85
-334
-174
88
-263
-526
-274
-126
-291
-266
-110
-293
-404
-309
-201
38
-13
-300
-587
-625
-294
-280
-248
-73
-116
-122
237
858
351
-415
-170
17
72
145
70
146
327
199
289
300
-258
-418
-274
-223
-258
-398
-279
-135
-179
-233
-296
-310
-293
-296
-103
736
2307
4107
5624
6227
4832
2304
1039
766
145
108
185
-404
-526
-718
-901
-668
-394
-340
-736
-761
-506
-544
-638
-449
-412
-684
-516
-421
-637
-521
-410
-331
-449
-733
-583
-655
-556
-209
-662
-565
-37
-206
-258
-44
81
24
212
344
115
229
539
635
602
742
799
752
923
940
748
770
903
666
481
443
193
-83
-116
-88
27
-32
-499
-378
-158
-344
-197
-216
-293
-12
-250
-545
-344
-379
-456
-271
-251
-353
-289
-190
-218
-304
-296
-316
-266
-259
-291
-384
-491
-240
-202
-245
-141
-294
-312
-138
-133
-345
-248
-26
-274
-372
-162
-34
-302
-232
-33
-479
-451
-178
-384
-466
-264
-296
-345
-155
-118
-237
-355
-376
-382
-425
-133
-43
-341
-416
-418
-428
-307
-159
-273
-320
-100
-55
-239
-248
-196
-389
-364
-137
-234
-142
257
187
35
-60
-99
48
94
148
19
13
232
156
179
236
51
-151
-75
65
-296
-504
-379
-356
-322
-242
-248
-302
-257
-393
-508
105
1215
2789
4806
6169
5781
3522
1492
883
458
99
175
162
-336
-642
-551
-704
-635
-516
-668
-376
-228
-672
-994
-772
-515
-631
-535
-497
-570
-137
-218
-506
-520
-639
-531
-593
-467
-250
-376
-508
-305
-3
-311
-446
-193
-111
232
314
49
181
498
614
562
762
858
585
738
941
782
781
1019
971
620
390
145
-31
5
74
-52
-71
150
-197
-489
-156
-218
-455
-285
-245
-394
-102
-111
-388
-309
-440
-466
-275
-178
-280
-544
-519
-24
-55
-362
-50
-7
-287
-256
-171
-269
-253
-133
-178
-236
-117
-177
-341
-278
-183
-180
-145
-243
-158
-187
-429
-257
-440
-403
-96
-319
-225
-147
-355
-114
-82
-297
-324
-255
-153
-314
-311
-139
-233
-151
-56
-405
-532
-237
-72
-137
-235
-188
-277
-484
-404
-262
-62
-25
-383
-546
-311
9
5
-256
-85
244
199
180
282
279
167
144
77
38
224
280
156
85
11
-198
-227
-92
-260
-288
-226
-276
-11
-312
-713
-511
-411
-370
-46
910
2183
3658
5207
6038
5060
2601
1188
982
406
-82
38
-45
-613
-390
-204
-1021
-848
-428
-632
-500
-587
-740
-805
-614
-549
-845
-501
-291
-473
-365
-292
-551
-746
-518
-398
-542
-478
-298
-379
-483
-219
-188
-475
-227
-54
-197
-169
121
506
533
323
161
510
872
919
936
954
1060
862
582
707
649
431
481
426
107
-143
-88
-201
-317
-135
-296
-266
-3
-384
-623
-317
-282
-381
-183
-163
-365
-411
-391
-329
-371
-321
-153
-307
-173
14
-271
-387
-329
-233
-334
-265
-47
-360
-570
-354
-203
-247
-195
-162
-208
-50
-59
-257
-429
-447
-224
-208
-52
-40
-314
-258
-241
-401
-323
-106
-288
-537
-338
-254
-432
-192
-182
-467
-287
-156
-167
-256
-369
-176
-234
-301
-307
-520
-303
-115
-194
-352
-170
168
-280
-373
-211
-429
-268
-41
-78
-31
63
209
419
268
190
-14
-188
114
169
129
187
240
140
-159
-114
-242
-310
3
-172
-352
-209
-314
-570
-405
-128
-415
-556
-123
517
1604
3437
5439
6418
5275
3075
1537
483
171
91
-177
-189
-229
-400
-525
-517
-673
-786
-588
-497
-671
-585
-436
-776
-690
-190
-552
-875
-619
-544
-580
-516
-331
-593
-776
-427
-412
-523
-281
-188
-336
-255
-47
-154
-159
96
85
3
155
316
390
587
685
657
953
1102
832
660
765
795
582
663
666
428
272
120
-26
-78
-39
-16
-51
-311
-410
-399
-391
-289
-366
-288
-69
-187
-481
-385
-122
-408
-729
-456
-219
-300
-189
-154
-315
-309
-306
-293
-128
-115
-349
-202
-133
-368
-389
-168
-89
-361
-243
-134
-290
-165
-137
-325
-340
-215
-256
-406
-201
-156
-403
-316
-236
-323
-400
-230
-45
-280
-254
-38
-243
-332
-233
-162
-75
-323
-480
-361
-127
-203
-529
-275
-295
-391
-262
-306
-207
-267
-242
-24
-111
-135
24
60
131
138
-80
-133
172
267
86
120
247
219
133
138
224
-283
-522
-9
6
-206
-345
-381
-304
-224
-153
-274
-263
-111
-370
-292
516
1533
3098
5067
6272
5434
3089
1309
670
422
197
411
-82
-771
-501
-734
-701
-229
-687
-1054
-500
-441
-602
-373
-397
-594
-591
-428
-492
-581
-455
-448
-513
-458
-488
-526
-650
-454
-102
-364
-412
-271
-523
-266
-172
-320
72
213
173
379
473
370
477
689
784
822
1057
1177
677
540
850
764
510
460
282
32
215
225
-53
-137
-57
-110
-149
-204
-290
-330
-361
-280
-300
-290
-399
-400
-234
-260
-287
-334
-249
-153
-361
-358
-128
-264
-388
-230
-283
-351
-201
-207
-338
-306
-127
-71
-332
-298
-146
-418
-321
-81
-192
-254
-19
-308
-515
-124
-343
-445
-233
-242
-200
-108
-89
-268
-425
-288
-32
-159
-397
-250
-273
-432
-187
-158
-304
-169
-238
-391
-257
-159
-313
-198
-205
-483
-202
-89
-306
-185
-199
-210
-128
-87
82
67
86
289
344
267
203
62
92
178
72
30
27
142
-17
-271
-229
-165
-230
-378
-289
-202
-354
-428
-381
-370
-434
-121
270
1072
2778
4562
6034
6024
3882
1666
1006
738
160
-99
-76
-329
-603
-496
-484
-694
-646
-493
-702
-673
-281
-726
-1045
-572
-471
-395
-507
-608
-493
-588
-515
-593
-685
-496
-476
-571
-470
-350
-291
-370
-337
-169
-202
167
25
-374
50
387
302
66
284
690
818
925
774
731
1042
1114
915
692
652
512
297
345
190
3
200
154
-123
-241
-221
-242
-393
-211
-97
-532
-430
-185
-411
-295
-59
-442
-619
-144
-234
-481
-244
-149
-224
-157
-190
-434
-458
-352
-408
-258
55
-72
-423
-262
-18
-295
-309
-44
-196
-285
-124
-95
-312
-381
-162
-147
-384
-217
-107
-356
-223
-225
-403
-244
-170
-270
-398
-368
-354
-426
-125
-35
-272
-380
-334
-341
-469
-254
-155
-255
-217
-198
-263
-344
-185
-114
-397
-205
-25
-460
-212
16
-362
-78
197
85
264
-39
-441
84
412
138
92
274
331
106
-19
58
-59
-190
-99
-20
-186
-303
-247
-422
-250
-123
-538
-661
-578
-326
-51
705
2313
4174
6013
6625
4924
2215
832
677
203
-78
3
-289
-558
-504
-580
-704
-357
-127
-458
-839
-915
-560
-521
-900
-980
-926
-671
-427
-509
-488
-375
-469
-491
-395
-415
-460
-453
-436
-523
-480
-209
-251
-300
-43
-201
-343
-62
251
420
383
404
369
418
801
932
779
1013
1047
680
661
749
570
352
416
443
158
-42
-105
-366
-391
7
-263
-471
-179
-295
-378
-305
-236
-262
-238
-98
-392
-654
-397
-333
-451
-282
177
-90
-641
-393
-411
-527
-389
-242
-338
-347
-59
-264
-320
-189
-362
-382
-157
-101
-338
-138
104
-384
-469
-219
-314
-333
-189
-277
-457
-269
-161
-334
-362
-198
-175
-282
-261
-245
-368
-294
-142
-271
-356
-317
-423
-249
10
-174
-287
-437
-462
-240
-143
-400
-542
-278
-105
-110
-287
-132
44
-94
-49
69
29
-63
57
167
152
346
356
10
14
147
-46
-11
333
46
-567
-311
-108
-351
-285
-222
-292
-326
-338
-350
-355
-315
-309
85
890
1991
3585
5204
6223
5014
2375
1132
907
344
-115
-72
-203
-630
-708
-573
-572
-431
-348
-764
-930
-509
-425
-612
-516
-405
-707
-786
-530
-628
-663
-478
-537
-591
-419
-505
-562
-270
-379
-434
12
-458
-860
-265
-87
-219
-35
215
315
347
498
611
435
471
774
906
906
934
896
775
819
873
611
271
309
418
368
254
-218
-562
-362
-146
-280
-480
-352
-204
-305
-233
-152
-374
-342
-178
-308
-304
-233
-414
-434
-240
-320
-476
-327
-184
-428
-148
340
-460
-861
-276
-225
-591
-363
110
-98
-358
-220
-184
-314
-197
-154
-374
-237
-43
-132
-140
-317
-460
-383
-220
-74
-232
-223
7
-342
-779
-483
-290
-376
-181
-123
-235
-131
-54
-152
-447
-467
-289
-342
-95
-55
-388
-341
-194
-241
-18
-39
-560
-447
125
5
-434
-309
-66
-138
-45
123
96
140
297
324
51
7
183
24
-2
201
57
-41
120
-12
-352
-353
-231
-386
-225
-322
-658
-471
-310
-58
-142
31
1047
2204
3848
5554
5783
4096
2048
1001
491
104
-5
-160
-149
55
-306
-836
-856
-658
-718
-707
-443
-542
-702
-428
-514
-537
-401
-623
-647
-468
-331
-444
-518
-358
-415
-525
-324
-252
-450
-435
-362
-357
-120
51
-236
-232
187
125
39
240
398
855
977
623
602
555
750
1005
799
768
828
720
781
834
409
-115
-90
21
-206
-75
-12
-150
-109
-461
-392
-113
-444
-452
-214
-188
-122
-279
-434
-330
-284
-279
-132
-205
-408
-261
-117
-305
-204
57
-284
-697
-268
46
-366
-354
-117
-180
-236
-186
-106
-253
-363
-257
-281
-312
-56
41
-246
-268
-359
-451
-201
-164
-331
-332
173
255
-434
-501
-467
-500
-129
-120
-372
-270
23
-7
-207
-281
-329
-350
-210
-111
-322
-204
405
70
-497
-349
-391
-425
-241
-231
-261
121
413
92
-195
-77
-28
-52
104
306
224
131
290
170
141
317
58
-169
58
-36
-363
49
26
-697
-366
-12
-286
-311
-194
-294
-523
-84
599
1427
3179
4973
5932
5123
2972
1489
691
493
334
-149
-218
-246
-442
-612
-432
-267
-630
-640
-474
-652
-642
-351
-394
-593
-559
-536
-502
-556
-526
-483
-336
-429
-388
-408
-762
-415
-204
-147
-150
-325
-419
-241
-108
-192
101
224
31
109
505
531
512
703
697
688
894
1103
970
824
824
634
540
627
378
170
258
54
-236
-165
-113
-258
-289
-108
-234
-335
-76
-68
-244
-279
-284
-266
-247
-173
-216
-335
-239
-260
-382
-371
-211
-280
-351
-16
-153
-449
-268
-328
-365
-95
-264
-460
-267
-187
-161
-203
-180
-174
-400
-269
-52
-192
-264
-49
-51
-293
-148
-198
-320
-231
-216
-180
-315
-125
15
-302
-229
-144
-417
-354
-258
-315
-215
-141
-137
-283
-260
-5
-173
-272
-213
-415
-356
-153
-66
-305
-453
-275
-370
-290
-41
-127
-225
-44
-76
-169
-11
-132
-185
44
62
-29
139
211
38
176
307
156
189
215
130
68
135
366
65
-140
181
-386
-729
-145
-107
-256
-147
-68
-205
-398
-277
-253
-278
255
1358
3016
4782
6216
6141
3945
1975
1204
491
197
466
-57
-706
-465
-517
-815
-592
-388
-483
-623
-568
-666
-807
-556
-541
-536
-241
-349
-677
-590
-388
-549
-638
-368
-357
-556
-380
-363
-514
-471
-451
-316
-273
-106
28
-329
-263
154
90
149
873
761
270
690
846
755
941
1033
857
851
1282
1090
432
342
202
26
100
9
-245
-218
-120
-221
-177
66
-103
-520
-312
-379
-629
-424
-280
-376
-134
-4
-612
-495
53
-53
-421
-377
-192
-246
-275
-297
-409
-388
-309
-330
-392
-312
-175
-333
-280
-115
-255
-350
-123
-255
-451
25
-8
-616
-544
-137
-150
-238
-196
-115
-355
-421
-48
-183
-333
-167
-261
-341
-242
-247
-401
-38
137
-439
-460
-210
-325
-332
-170
25
26
-582
-668
-299
-382
-150
-112
-310
41
-29
-468
-257
-108
-233
-159
144
121
-111
77
97
-37
327
606
236
-127
106
164
-49
205
206
6
221
-38
-442
-349
-270
-172
-227
-228
-174
-425
-309
-193
-366
-27
622
1359
2737
4727
6100
5617
3538
1872
1087
374
166
-14
-400
-258
-172
-630
-611
-482
-775
-562
-388
-402
-400
-428
-339
-569
-640
-461
-578
-568
-373
-330
-321
-255
-365
-468
-239
-255
-548
-489
-382
-415
-287
-35
-5
-121
7
157
177
322
510
522
566
742
889
881
851
986
1004
925
979
786
606
869
883
292
14
45
-241
-286
-50
-179
-279
92
31
-418
-396
-198
-255
-295
-132
-141
-333
-219
-186
-338
-121
33
-296
-442
-233
-374
-497
-170
-83
-358
-318
-224
-398
-431
-294
-12
-83
-288
-153
-314
-301
-172
-292
-279
-99
16
-156
-142
-204
-386
-240
-161
-204
-177
-163
-371
-492
-185
-129
-265
47
2
-403
-479
-386
-246
-90
-101
-413
-410
-129
-164
-310
-297
-201
-246
-366
-224
16
-118
-189
-143
-293
-194
-12
55
139
318
441
-231
-459
62
-26
160
374
44
30
137
98
124
27
-166
-336
-432
-361
-411
-389
-151
-93
-96
-213
-401
-382
129
1169
2158
3398
5051
5538
3869
1750
791
364
111
47
-147
-323
-384
-405
-454
-586
-649
-643
-680
-639
-338
-441
-491
-145
-563
-771
-425
-541
-512
-292
-607
-718
-482
-502
-518
-262
-254
-513
-336
-316
-416
-273
-148
-154
-175
60
201
160
159
290
371
395
649
1155
1223
590
473
708
748
821
607
362
398
331
35
273
545
-165
-586
-292
-368
-463
-54
-57
-460
-278
-330
-644
-393
-144
-251
-347
-192
-234
-370
-310
-224
-182
-282
-331
-351
-434
-366
-314
-404
-301
-327
-198
207
-307
-622
-380
-567
-633
-479
-272
-128
-272
-306
-95
-178
-267
-56
-134
-410
-364
-180
-368
-456
-272
-328
-246
-283
-477
-278
-67
-292
-626
-503
-323
-239
-173
-244
-278
-214
-220
-290
-375
-401
-238
-165
-127
-168
-205
-418
-497
-95
-5
-20
-195
-331
-81
72
141
43
47
267
167
-151
62
166
-35
221
186
-457
-359
74
-185
-281
-136
-262
-372
-160
-172
-457
-351
-167
-297
-48
835
2032
3369
5069
5872
4394
2163
915
481
115
17
-68
-330
-304
-248
-489
-607
-646
-708
-434
-533
-508
-270
-658
-732
-625
-585
-472
-617
-549
-324
-431
-567
-575
-469
-479
-426
-279
-527
-565
-248
-353
-351
-61
-185
-392
-110
223
8
18
465
573
494
614
761
723
738
872
817
857
878
765
549
233
263
127
31
122
-139
-129
-51
-270
-341
-235
-206
-380
-215
57
-305
-518
-311
-407
-345
68
-97
-468
-419
-318
-304
-246
-132
-267
-421
-285
-237
-305
-217
-261
-414
-306
-214
-387
-399
-87
-88
-254
-308
-290
-276
-295
-83
-155
-321
-205
-250
-355
-211
-89
-160
-207
-138
-125
-361
-419
-213
-254
-345
-81
15
-380
-435
-180
-188
-127
-143
-168
-14
-185
-392
-128
-125
-413
-238
-179
-196
-213
-188
86
-151
-240
-128
-269
114
93
-384
-164
159
115
73
265
491
344
32
153
220
-12
270
415
6
-31
-52
-261
-337
-220
-169
-265
-309
-236
-217
-416
-231
-271
-368
223
930
2147
4123
5725
6008
4603
2446
1368
889
279
-106
-136
-91
-447
-690
-584
-432
-625
-522
-274
-587
-720
-554
-494
-632
-455
-332
-655
-707
-482
-389
-579
-699
-302
-321
-708
-392
-291
-542
-350
-193
-382
-446
-354
-281
-80
169
185
72
286
495
205
308
799
688
887
1401
1023
539
661
719
528
569
747
424
149
265
-43
-337
-176
-213
-345
-39
176
-345
-819
-459
-354
-323
-77
-184
-137
-182
-418
-622
-489
-205
-200
-328
-402
-358
-454
-410
-322
-457
-335
-16
22
-327
-359
-352
-507
-295
-232
-326
-303
-161
-422
-505
-104
-140
-257
-177
-126
-251
-359
-285
-295
-343
-250
-119
-30
-119
-274
-572
-627
-210
-240
-399
-214
-276
-420
161
144
-729
-506
-35
-206
-398
-217
67
-259
-485
-256
-327
-335
-93
-189
-271
-156
-80
24
56
121
98
-7
43
163
135
337
409
56
-82
26
-1
-47
45
-65
-190
-175
-183
-588
-615
-90
-242
-376
-149
-218
-372
-230
33
647
2327
4126
5156
5824
4884
2332
845
648
495
321
45
-232
-476
-510
-466
-780
-765
-497
-598
-716
-513
-328
-506
-679
-515
-483
-624
-495
-320
-480
-713
-750
-634
-480
-386
-448
-528
-368
-289
-490
-309
60
-177
-247
-29
-176
-28
685
498
-56
218
439
433
746
1067
896
880
978
876
735
720
798
498
296
399
134
-91
118
264
-163
-378
-273
-596
-316
-164
-631
-461
-187
-202
-269
-278
-178
-233
-315
-225
-327
-325
-41
-63
-566
-661
-287
-469
-392
-137
-417
-295
-206
-371
-255
-144
-182
-250
-54
-44
-397
-449
-216
-122
-315
-450
-233
-229
-333
-136
-155
-209
-123
-234
-152
-21
-185
-615
-566
-69
-216
-417
-130
67
-342
-450
-243
-388
-293
-238
-147
98
-217
-533
-432
-282
-194
-266
-207
-91
-144
34
166
-23
4
213
149
-156
-99
247
60
-121
211
163
41
147
47
-141
-55
196
-172
-330
-113
-331
-486
-518
-356
-354
-444
-139
-167
-164
696
1844
3190
4935
5736
4382
2198
940
582
340
-206
-301
-314
-517
-363
-440
-719
-583
-437
-604
-523
-461
-629
-539
-317
-380
-575
-603
-615
-676
-432
-474
-676
-137
-94
-712
-717
-445
-434
-519
28
37
-935
-478
117
-242
-84
244
173
79
441
629
465
790
884
504
659
907
759
730
1013
886
594
570
144
-184
49
107
-175
-206
-198
-187
-165
-242
-210
-385
-322
-147
-183
-73
-210
-509
-493
-276
-317
-321
-182
-364
-410
-381
-185
-130
-456
-351
-290
-551
-389
-84
-207
-421
-298
-96
-307
-389
-179
-290
-355
-130
-249
-385
440
533
-596
-763
-533
-547
-321
-206
-330
-385
-219
-208
-115
18
-11
-10
-465
-522
-235
-316
-213
-220
-218
8
-166
-492
-400
-204
-320
-454
-213
-49
-297
-546
-254
5
-125
38
82
5
119
6
16
247
238
101
142
244
142
105
168
-34
-186
-103
192
-30
-910
-637
-78
-347
-231
-65
-222
-178
-204
-365
-80
489
1117
2320
4077
5299
5025
3486
1824
721
67
-211
-320
-280
-237
-317
-343
-217
-375
-813
-904
-622
-427
-462
-346
-325
-491
-538
-542
-638
-639
-464
-457
-540
-591
-317
69
-332
-541
-620
-682
-313
-182
-444
-334
13
-163
91
224
-30
201
464
402
441
725
773
563
614
737
634
761
865
845
809
441
216
101
119
183
71
263
98
-277
-590
-681
-232
-351
-245
7
-296
-32
74
-187
-72
-280
-512
-443
-359
-295
-397
-309
-68
-178
-259
-136
-401
-539
-151
251
-258
-802
-288
-358
-635
-151
-14
-220
-104
78
-30
-258
-219
-302
-413
-144
-62
-252
-13
140
-378
-491
-244
-330
-211
-198
-431
-355
-381
-299
-60
-124
-132
-221
-324
-65
-87
-312
-131
19
-107
-268
-410
-426
-378
-136
86
-263
-410
-120
-189
-270
-163
-137
-106
276
599
70
-302
62
82
65
274
192
287
285
-52
-4
314
101
-201
-97
-108
-231
-282
-222
-90
-262
-380
-269
-407
-406
-25
76
348
1713
3278
4832
5900
5175
2994
1540
1243
122
-415
122
-82
-411
-405
-429
-485
-546
-504
-549
-607
-365
-464
-625
-419
-295
-588
-685
-294
-331
-686
-612
-566
-606
-374
-400
-368
-613
-709
-257
-228
-195
-150
-247
-111
-36
-58
220
314
53
10
347
574
677
807
828
747
566
651
974
1136
815
358
308
409
348
194
-63
10
67
-91
15
-152
-284
-125
-120
-129
-111
-371
-514
-311
-174
-245
-198
-153
-586
-706
-267
-23
-177
-227
-83
-144
-166
-124
-246
-455
-395
-200
-203
-78
-176
-520
-292
-18
-56
-208
-250
-83
-150
-220
-36
89
-127
-402
-305
-450
-612
52
55
-663
-325
45
-164
-163
-134
-307
-182
-92
-473
-429
-104
-274
-344
93
15
-512
-409
-146
-378
-397
-143
7
226
87
-400
-745
-513
-155
-244
-114
175
78
-344
-164
300
28
43
323
157
189
405
236
65
278
256
-22
-51
129
129
382
251
-1064
-1018
-101
-159
-299
-259
-194
-307
-359
-274
-5
670
1298
2437
4294
5725
5799
4078
2084
1095
501
-59
-120
-113
-226
3
-312
-889
-906
-591
-433
-509
-388
-476
-761
-539
-396
-591
-552
-399
-498
-654
-384
-328
-667
-544
-414
-468
-479
-460
-103
-431
-637
-265
-399
-114
114
-137
-86
111
142
160
455
676
684
738
711
653
744
888
903
700
914
1364
786
85
139
134
88
107
-13
-188
-150
-97
-309
-125
286
-19
-511
-370
-299
-531
-472
-351
-354
-194
-160
-366
-320
-178
-349
-409
-102
-156
-372
-364
-229
-128
-118
-61
-192
-352
-307
-182
-286
-348
-30
-272
-516
15
-44
-355
-147
-54
-192
-152
-124
-313
-285
-314
-254
158
-27
-397
-401
-359
-159
-227
-336
-106
-127
-279
-204
-281
-361
-149
-60
-161
-82
119
-35
-709
-714
-214
-250
-43
-20
-159
7
293
201
-221
111
306
65
156
321
236
76
353
352
-234
-175
41
-223
-235
-220
-224
-4
-171
-296
-417
-601
-323
-182
-126
-13
226
1295
2996
4663
5689
5275
3227
1197
666
392
-171
-159
-13
-316
-551
-392
-417
-644
-475
-507
-553
-290
-420
-635
-765
-580
-406
-624
-529
-343
-489
-547
-406
-424
-550
-400
-240
-415
-346
-209
-403
-368
-195
213
174
-802
-486
146
37
406
438
388
635
680
815
941
835
727
793
939
808
667
682
693
621
552
492
-63
-378
-79
-3
-435
-423
-50
-331
-399
-196
-289
-222
-23
-162
-352
-115
-217
-583
-372
-175
-145
-281
-316
-412
-502
-245
-301
-303
-149
-218
-81
-79
-248
-214
-287
-151
-116
-261
-193
-239
-325
-186
-47
-207
-279
-52
-83
-294
-138
-106
-358
-269
-134
-222
-353
-172
-133
-416
-308
-308
-392
-181
-35
-64
-254
-283
-188
-301
-223
-24
-163
-211
-126
-269
-353
-124
70
-85
-95
-71
-122
135
219
110
352
556
212
-148
-66
102
51
26
33
-151
-250
-162
-237
-171
322
251
-703
-843
-329
-404
-464
-251
-39
323
1425
3094
4563
5528
5089
2968
1121
797
785
75
-481
-519
-682
-723
-871
-728
-368
-276
-197
-394
-316
-384
-684
-546
-428
-559
-574
-454
-576
-709
-548
-278
-408
-605
-466
-490
-675
-343
94
-426
-538
-87
-329
-374
-73
-79
-28
106
295
209
129
684
687
653
999
854
821
1128
1056
634
613
643
339
492
543
108
-110
-258
-214
-168
-330
-152
-154
-314
-43
-191
-385
-96
-168
-486
-319
-16
-315
-435
-4
-339
-742
-257
-158
-373
-253
-166
-333
-343
-246
-385
-266
-47
-212
-341
11
50
-51
-85
-500
-450
-294
-260
-145
-343
-79
347
-311
-684
-319
-341
-165
128
-159
-269
38
-62
-461
-369
-89
-238
-362
-187
-135
-309
-264
-208
-150
-110
-366
-240
-158
-306
-93
-105
-433
-341
-174
-201
23
72
-22
132
346
312
188
85
-115
27
241
249
160
82
260
42
-120
56
-129
-287
-205
-217
-371
-346
-339
-445
-281
-41
-376
-396
161
631
1906
4023
5702
5795
4403
2388
1044
603
343
13
-233
-128
-300
-622
-524
-421
-545
-566
-383
-621
-729
-442
-497
-268
-300
-568
-551
-741
-580
-466
-644
-452
-220
-401
-554
-387
-543
-601
-310
-293
-105
87
-201
-348
-95
-53
-92
399
655
234
170
420
586
684
790
908
820
883
1024
886
717
594
417
294
172
21
-63
-112
-74
-133
-289
-207
-159
-302
-53
143
-364
-368
-254
-505
-319
-258
-379
-379
-215
-202
-439
-247
12
-168
-307
-238
-334
-374
-241
-284
-379
-244
-74
-40
2
-165
-316
-344
-316
-199
-217
-140
28
-200
-500
-365
-241
-249
-207
-67
253
-135
-523
-271
-356
-277
-162
-310
-217
142
72
-393
-417
-411
-440
-204
-192
-328
-226
-162
-324
-256
22
21
-306
-200
6
-375
-101
111
-450
-432
87
264
98
215
297
159
223
267
137
75
254
274
79
155
26
-267
-225
-151
-276
-380
-362
-380
-57
-381
-814
-346
-276
-255
230
1129
2892
4919
5881
5658
3934
1716
963
645
35
-49
35
-300
-507
-394
-537
-551
-619
-863
-632
-544
-506
-544
-664
-400
-247
-544
-752
-675
-772
-675
-149
-441
-959
-388
-219
-532
-387
-277
-310
-257
-160
-145
-360
-335
-47
36
127
332
270
126
385
490
515
800
900
939
732
847
959
560
668
468
272
493
267
5
-54
-93
-218
-243
-95
-212
-368
-250
-264
-394
-419
-115
58
-454
-470
-312
-513
-221
-162
-276
-61
-281
-669
-499
-216
-289
-340
-198
-219
-214
25
-156
-444
-292
-128
-217
-313
-163
-49
-194
-404
-277
-269
-329
141
135
-421
-395
-149
-277
-328
-193
-249
-317
-203
-231
-311
-53
-182
-541
-206
-142
-262
-103
-69
-160
-442
-262
-18
-399
-350
-102
-427
-376
15
-48
-116
98
98
43
183
230
220
162
138
88
45
126
126
154
182
39
-246
-410
-223
-11
-428
-616
-140
-229
-371
-269
-384
-329
-143
26
519
1736
3362
4909
5838
4885
2468
1102
768
262
116
-28
-388
-583
-667
-373
-369
-629
-583
-634
-677
-530
-524
-601
-439
-341
-501
-626
-566
-590
-598
-437
-357
-456
-506
-500
-652
-503
-221
-293
-334
-205
-164
-171
-125
-148
106
228
-74
181
475
448
481
503
683
848
756
770
903
755
717
852
707
379
270
275
112
78
154
-225
-380
35
-35
-151
-216
-575
-374
-290
-412
-315
-357
-293
-213
-282
-354
-181
-181
-393
-364
-323
-351
-359
-123
-142
-336
-206
-286
-283
-23
-89
-310
-222
-294
-472
-289
-37
-168
-302
-217
-391
-313
-78
-121
-186
-132
-65
-231
-344
-217
-228
-315
-178
-198
-406
-340
-164
-153
-188
-185
-285
-187
-216
-452
-370
-282
-331
-449
-248
22
-92
-212
-88
116
23
-37
155
45
-55
236
292
-53
48
292
85
118
187
-60
-40
59
-140
-294
-135
-111
-285
-181
-181
-381
-379
-208
-241
-503
-387
55
497
1836
3918
5218
5684
4605
2286
1033
758
373
77
-16
-236
-598
-650
-478
-564
-647
-526
-476
-594
-546
-505
-719
-600
-309
-548
-764
-347
-234
-671
-631
-486
-364
-214
-634
-1018
-596
-155
-307
-420
-234
-40
-220
-315
5
42
-13
153
248
289
396
565
593
663
775
672
637
895
890
562
499
467
381
445
403
33
-284
-117
20
-204
-145
42
-183
-307
-287
-519
-524
-221
-274
-428
-112
-77
-423
-265
-206
-462
-549
-447
-285
-390
-340
-225
-373
-349
-145
-159
-214
-138
-278
-117
-45
-248
-349
-524
-196
-125
-270
42
-48
-492
-394
-229
-375
-248
-129
-196
-219
-163
-59
-273
-409
-206
-361
-264
79
-279
-557
-287
-236
-147
24
-288
-523
-472
-391
-189
-178
-263
-281
-345
-203
-101
-214
-186
-113
-288
-348
-83
227
22
-206
51
30
-78
183
219
94
239
252
23
38
274
95
-169
139
-19
-332
3
-193
-532
-376
-234
-345
-382
-100
-244
-637
-418
64
523
1862
4089
5642
5930
4844
2582
1072
825
416
0
-91
-239
-290
-456
-582
-624
-694
-565
-543
-673
-615
-248
-299
-733
-700
-687
-706
-454
-430
-637
-565
-374
-454
-341
-316
-728
-597
-200
-402
-592
-370
-74
-211
-366
-112
-158
-149
186
265
225
432
646
768
871
634
488
616
909
1030
682
539
553
354
272
330
159
20
126
-46
-372
-260
7
-204
-429
-179
-375
-536
-198
-268
-624
-219
241
-505
-676
-77
-282
-410
-123
-110
-270
-259
-249
-421
-402
-198
-275
-387
110
-108
-793
-261
31
-291
18
35
-275
-308
-342
-308
-400
-246
-67
-247
-293
-142
-184
-415
-277
-86
-275
-342
-293
-234
-221
-249
-307
-290
-18
-74
-325
-350
-255
-403
-596
-250
-141
-284
-138
-105
-251
-273
-216
-235
-279
-245
-223
-234
-93
-59
-69
299
328
-264
-293
163
193
81
162
253
167
170
264
-27
-160
164
-18
-238
76
-9
-452
-441
-133
-258
-376
-159
-377
-636
-372
-88
388
1529
3345
5258
6197
5503
3111
1194
863
490
190
-107
-267
-190
-455
-492
-658
-836
-592
-498
-623
-580
-449
-565
-623
-518
-572
-588
-419
-511
-773
-526
-288
-637
-679
-156
-345
-850
-481
-238
-441
-441
-310
-364
-141
115
-68
91
179
170
244
315
526
575
622
852
963
721
692
819
713
767
675
386
485
486
124
-90
17
89
-400
-521
142
-93
-478
-238
-337
-378
-209
-175
-307
-324
-323
-387
-303
-234
-262
-269
-210
-390
-441
-111
-68
-283
-342
-296
-229
-267
-210
-135
-285
-234
-152
-213
-140
-145
-244
-286
-209
-112
-281
-248
-77
-322
-496
-158
-135
-517
-237
160
-315
-598
-112
-191
-385
-153
-204
-335
-167
-59
-425
-462
-183
-318
-307
75
-188
-545
-178
-90
-300
-269
-145
-257
-231
34
110
-27
91
191
-62
67
329
165
173
315
15
-44
188
130
-243
-214
89
-88
-300
-290
-278
-379
-489
-401
-309
-308
-199
-345
-304
553
1742
3203
5037
6190
5206
2625
970
688
353
-19
-83
-221
-229
-329
-684
-691
-523
-547
-669
-571
-442
-565
-599
-527
-608
-598
-437
-536
-531
-205
-400
-716
-630
-585
-536
-459
-393
-285
-289
-479
-357
-269
-248
-35
-89
51
211
203
282
298
423
502
558
741
712
751
878
753
620
790
842
436
565
599
-24
39
252
13
-51
67
-116
-448
-272
-260
-528
-307
-214
-322
-323
-244
-181
-318
-109
-213
-658
-427
-199
-112
-78
-211
-266
-471
-394
-191
-305
67
-62
-492
-233
-127
-148
-208
-194
-67
-121
-205
-142
-224
-331
-117
2
-247
-246
-117
-282
-268
-10
-209
-566
-250
-89
-380
-216
-142
-420
-232
-163
-320
-373
-303
-80
-247
-275
-196
-439
-318
-100
-270
-206
27
-102
-385
-300
-142
-348
-196
97
-209
-223
180
116
-56
97
356
372
138
132
108
-45
355
426
-85
-32
-28
-292
-316
-116
-75
-307
-272
-275
-442
-266
-129
-318
-364
-295
24
800
2372
4519
5696
5965
4586
2032
1252
1021
199
-182
-188
-259
-530
-511
-471
-650
-697
-385
-248
-664
-673
-565
-727
-664
-537
-600
-623
-108
-188
-718
-616
-628
-595
-590
-653
-601
-526
-311
-355
-270
-108
-145
-133
-201
-148
-104
34
290
222
236
494
520
483
727
884
765
835
877
678
563
646
737
330
223
447
123
-26
72
-156
-327
-164
-146
-201
-193
-179
-160
-392
-386
-271
-359
-306
-259
-396
-334
50
-145
-597
-281
-212
-518
-289
24
-96
-471
-337
-275
-440
-87
-70
-297
-132
-95
-204
-167
-106
-236
-344
0
-139
-545
-280
-220
-439
-232
-102
-206
17
-192
-595
-550
-300
-156
-299
-195
-108
-205
-77
-133
-349
-399
-276
-190
-365
-313
-155
-344
-384
49
-162
-344
36
-290
-550
-344
-249
-317
-300
-77
-118
-178
33
113
290
238
-185
-32
367
322
185
454
111
-227
238
237
54
-54
-107
-70
-228
-378
-299
-282
-395
-349
-278
-273
-263
-207
-120
85
1233
2819
4432
6107
5773
3615
1803
1076
600
13
31
-54
-477
-435
-310
-496
-584
-467
-536
-701
-546
-438
-531
-440
-473
-690
-783
-664
-401
-487
-639
-698
-743
-576
-394
-400
-417
-177
-450
-773
-294
-122
-363
-228
88
-12
-131
103
230
260
402
632
508
431
565
605
891
1030
925
745
539
580
516
397
416
193
28
169
35
-379
-276
269
-337
-711
-22
-309
-428
-164
-365
-398
-296
-263
-266
-318
-289
-366
-416
-127
-8
-171
-387
-434
-420
-358
-178
-309
-456
-21
-79
-504
-139
-29
-299
-248
-172
-159
-88
-99
-185
-289
-259
-149
-70
51
-349
-695
-375
-206
-244
-196
-158
-110
-191
-364
-336
-313
-275
-159
-201
-209
-112
-243
-367
-85
-131
-403
-247
-119
-189
-418
-375
-112
-240
-417
-299
-195
-59
72
-94
12
189
80
104
283
359
92
-12
230
189
24
111
456
157
-335
168
-45
-576
-319
-345
-464
-295
-136
-308
-452
-330
-500
-404
304
1131
2591
4548
6220
6614
4067
1144
641
516
187
5
-265
-268
-368
-638
-616
-479
-452
-331
-403
-666
-604
-610
-731
-436
-323
-607
-582
-556
-639
-548
-604
-458
-298
-573
-558
-198
-275
-629
-490
-289
-385
-232
-26
-68
-179
-83
53
42
386
538
280
545
733
614
843
958
814
771
799
598
591
868
491
17
83
313
151
-101
-20
-66
-214
-186
-179
-476
-533
-309
-262
-267
-98
-104
-447
-492
-287
-362
-346
-194
-145
-188
-392
-407
-360
-306
-194
-276
-247
-131
-318
-147
401
-49
-572
-336
-302
-366
-273
-163
-238
-323
-208
-202
-348
13
198
-473
-371
-140
-310
-272
-390
-357
-260
-86
-121
-281
-185
-136
-316
-399
-191
-168
-352
-288
-156
-188
-119
63
-310
-594
-212
-316
-470
-54
-2
-163
-157
-126
150
179
-73
0
7
65
200
97
165
221
55
-32
24
-79
-297
-124
46
-206
-410
-473
-689
-420
113
-503
-936
-299
95
563
1876
3734
5311
5833
4662
2366
891
538
265
-128
-269
-233
-456
-637
-582
-347
145
-343
-1178
-918
-694
-618
-619
-727
-531
-524
-697
-592
-547
-563
-331
-392
-355
-549
-580
-337
-767
-509
-158
-474
-336
-103
-197
-140
23
-6
-58
131
287
258
394
654
612
607
829
849
635
733
946
584
464
755
423
22
171
17
-122
-128
-210
-109
-77
-104
-271
-319
-213
-273
-343
-251
-339
-415
-230
-255
-407
-400
-209
195
-129
-1007
-657
-220
-357
-171
-202
-304
-203
-280
-290
40
244
-197
-538
-274
-300
-415
-250
-224
-288
-300
329
150
-824
-339
-223
-552
-95
-365
-707
-67
-50
-383
-196
-134
-293
-374
-229
-269
-316
-104
-228
-408
-117
-198
-489
-307
-58
-229
-378
-231
-424
-508
-90
229
-313
-603
-38
160
33
126
263
101
130
353
180
59
147
92
-53
10
-30
-131
31
-154
-441
-536
-357
-335
-528
-355
-538
-747
-453
-130
156
785
2226
3965
5386
5985
4769
2374
970
633
154
-160
-137
-319
-631
-542
-169
-268
-498
-633
-967
-889
-599
-625
-724
-636
-548
-687
-686
-416
-295
-577
-563
-422
-728
-537
-376
-693
-393
-197
-524
-532
-319
-155
-222
-207
-95
-179
-25
188
165
199
411
694
579
484
760
793
760
826
611
302
435
678
356
185
317
68
-31
71
-195
-171
-26
-460
-515
-284
-284
-387
-311
-60
-211
-470
-352
-290
-537
-235
21
-665
-690
-146
-170
-409
-361
-188
-422
-336
-4
-321
-343
-44
-257
-363
-165
-219
-371
-245
-150
-291
-313
-229
-160
-102
-20
-205
-591
-313
-181
-351
-196
-244
-510
-577
-215
-102
-258
-129
-160
-332
-280
-21
-210
-549
-85
-90
-647
-383
-210
-450
-299
-139
-188
-276
-201
-215
-275
-50
-80
-63
14
-45
31
2
77
108
88
282
140
2
154
185
140
92
149
24
-184
-94
-116
-370
-329
-155
-393
-497
-360
-360
-291
-220
-321
-202
738
2581
4519
5903
6151
4296
1890
1176
1050
277
-91
184
-350
-864
-467
-528
-719
-528
-529
-663
-655
-382
-265
-555
-572
-569
-770
-556
-390
-669
-636
-350
-320
-376
-472
-563
-613
-434
-190
-376
-639
-371
-218
-380
-145
17
-31
122
365
334
348
552
471
477
791
884
762
870
936
595
500
698
634
379
561
474
-244
-141
65
-224
-224
-10
-29
-292
-328
-249
-362
-315
-224
-344
-375
-67
102
-405
-390
-37
-421
-439
-133
-277
-330
-209
-281
-337
-136
-91
-319
-300
-243
-280
8
48
9
-231
-563
-174
-202
-224
42
-131
-235
-130
-215
-357
-202
-139
-282
-207
-116
-256
-273
-91
-136
-390
-302
-67
-305
-206
-49
-251
-263
-362
-186
-200
-353
-219
-271
-220
-97
-173
-169
-37
-145
-283
-63
59
-32
101
296
173
79
108
25
88
149
131
322
289
49
-107
-120
85
-31
-112
-86
-265
-341
-342
-264
-323
-332
-84
-255
-593
-251
482
1522
3317
5220
6166
5458
3284
1325
655
478
363
333
-196
-550
-633
-690
-445
-447
-490
-623
-795
-714
-534
-212
-314
-535
-428
-664
-788
-511
-454
-561
-472
-334
-471
-496
-368
-435
-324
-290
-533
-565
-236
-2
-201
-243
26
86
38
190
416
342
286
584
601
714
1019
827
712
1000
883
570
583
525
290
175
264
183
-110
-195
-149
-216
-288
-235
-234
-363
-292
-140
-477
-296
40
-517
-491
-159
-417
-444
-207
-300
-376
-150
-48
-126
-283
-330
-319
-324
-4
-140
-253
-187
-373
-290
-226
-125
-210
-277
-109
-158
-233
-74
-100
-371
-318
-121
-289
-357
-80
38
-356
-523
-324
-329
-176
-88
-220
-274
-243
-322
-413
-247
-154
-336
-285
-244
-240
111
21
-389
-398
-274
-87
-214
-417
181
358
-2
136
193
79
135
152
11
145
402
213
11
-14
-29
-97
-153
-107
-504
-501
-144
-404
-494
-330
-335
-519
-447
-182
271
1413
3073
4981
6177
5456
3169
1189
713
520
22
-151
-3
-34
-552
-703
-608
-749
-625
-562
-712
-626
-503
-425
-222
-531
-879
-683
-605
-637
-616
-547
-426
-464
-553
-307
-227
-491
-464
-308
-346
-415
-328
-258
-240
-103
-28
-103
65
284
239
361
655
761
708
700
732
712
769
849
580
581
655
404
553
523
165
-74
-281
-193
-64
-112
-136
-285
-353
-158
-252
-447
-232
-197
-408
-224
-119
-355
-412
-296
-302
-382
-345
79
159
-347
-371
-426
-420
-133
-192
-312
-233
-90
-190
-75
132
-199
-582
-428
-170
-232
-41
61
-177
-162
-136
-142
-223
-371
-236
-262
-257
-189
-292
-165
-74
-367
-381
-83
-280
-553
-166
79
-408
-383
-170
-392
-354
-192
-158
-212
-310
-265
-69
-149
-287
-173
-159
-113
-63
-131
112
317
-7
-106
90
140
237
239
71
24
162
162
64
340
151
-354
-257
-217
-276
-371
-352
-304
-433
-236
203
-253
-902
-436
31
546
1901
3822
5643
6121
4965
2939
1223
720
555
107
-60
-130
-419
-486
-417
-669
-776
-478
-393
-573
-558
-582
-724
-639
-592
-696
-598
-451
-608
-790
-545
-467
-676
-550
-401
-442
-441
-385
-415
-421
-183
-142
-332
-369
-238
-163
136
265
-113
107
530
690
709
571
696
683
571
917
830
516
734
610
413
430
243
92
-95
-104
-109
-284
3
-25
-452
-475
-320
-119
-495
-511
-20
-292
-469
-263
-305
-419
-195
-155
-368
-287
-303
-416
-151
-144
-361
-331
-445
-217
-130
-349
-212
-259
-218
-121
-327
-173
63
-166
-259
-286
-414
-409
-274
-200
-316
-430
-222
279
11
-442
-367
-451
-386
-172
-340
-415
-113
-282
-335
-150
-275
-235
-245
-228
-295
-301
-117
-294
-493
-231
-156
-403
-302
-200
-356
-275
59
-112
-375
-132
-49
-250
-229
169
-32
-346
71
137
-42
122
195
94
162
178
77
152
269
186
-97
-131
-185
-257
-108
-478
-738
-436
-316
-393
-366
-133
-185
-341
383
1748
3335
5246
6546
5634
2941
1152
816
482
98
-217
-384
-379
-419
-574
-692
-585
-627
-693
-510
-546
-757
-729
-407
-382
-695
-633
-585
-735
-714
-395
-462
-903
-686
-792
-854
-324
-382
-414
-264
-401
-462
-343
-165
18
174
15
-220
-65
249
327
534
936
688
440
513
611
724
647
678
764
888
852
342
-168
-244
-93
-101
-285
-243
-219
-304
-64
-24
-579
-810
-190
-86
-488
-406
-275
-353
-399
-332
-420
-507
-311
-236
-327
-300
-325
-423
-438
41
-8
-560
-233
-220
-707
-457
-187
-587
-435
-61
-140
-222
-242
-123
-184
-314
-272
-385
-390
-231
-290
-264
-91
-184
-408
-290
-344
-506
-443
-436
-314
-306
-288
-267
-461
-317
-121
-339
-416
-212
-328
-603
-297
-253
71
470
-685
-1032
-488
-235
-206
-417
-211
-132
-317
-201
-22
45
164
53
-122
-145
-21
254
199
463
611
-299
-440
41
3
-79
-60
-72
-211
-254
-166
-297
-418
-267
-280
-401
-367
-338
-142
-52
-211
285
1752
3690
5313
5936
4831
2572
1245
750
219
-243
-387
-290
-445
-581
-474
-454
-715
-326
-107
-990
-964
-565
-715
-688
-399
-300
-643
-563
-447
-766
-817
-528
-525
-633
-310
-95
-412
-662
-482
-558
-529
-3
-183
-463
69
85
-249
-42
233
404
474
611
758
654
676
811
749
766
823
608
515
746
610
241
335
179
62
314
-276
-593
-420
-453
-418
-490
-258
-142
-227
-190
-237
-348
-380
-295
-219
-171
-226
-319
-453
-396
-356
-466
207
222
-852
-829
-220
-146
-303
-348
-43
-22
-275
-130
-221
-367
-319
-310
-414
-206
92
-325
-204
-38
-663
-673
-230
-197
-218
-57
-185
-282
-350
-442
-309
-290
-278
-168
-301
-369
-310
-247
-56
-326
-514
-439
-311
-220
-264
-52
-44
-474
-574
-225
-276
-438
-130
-27
-231
-153
-12
-127
-112
-14
-64
501
792
21
-353
-76
44
-83
-66
64
-64
-220
-108
-67
-322
-285
184
-198
-690
-468
-414
-397
-600
-554
-281
141
1089
2287
4002
5527
5508
3696
1743
841
333
114
43
-228
-267
-273
-350
-550
-790
-525
-860
-1099
-588
-643
-742
-523
-369
-577
-700
-518
-636
-554
-419
-586
-437
-252
-581
-659
-352
-652
-897
-492
-154
-217
-305
-115
-40
-105
-43
8
-22
172
653
714
399
350
420
539
801
743
1066
1222
374
104
216
319
339
140
147
17
-50
-3
-62
-288
-504
-299
-337
-391
-217
-349
-455
-342
-231
-528
-108
236
-787
-704
-203
-364
-312
-251
-177
-267
-384
-214
63
-130
-279
-191
-481
-453
-234
-345
-362
-251
-307
-389
-238
-86
-197
-168
119
-90
-426
-172
-276
-585
-277
-118
-322
-337
-187
-261
-345
-210
-247
-250
-205
-327
-294
-78
-6
-218
-200
-151
-369
-463
-324
-293
-561
-424
-121
-269
-280
-99
-290
-451
-161
101
140
-21
169
252
-246
-10
203
-112
205
353
-94
-37
171
-3
100
77
-33
-59
-288
-256
-382
-289
114
-187
-462
-507
-512
-411
-336
-89
383
1351
2857
4676
5776
5322
3627
1375
409
446
34
-50
-52
-249
-162
-282
-605
-768
-813
-644
-641
-658
-498
-650
-457
-57
-572
-954
-633
-573
-696
-558
-442
-588
-585
-492
-247
70
-168
-642
-849
-447
-305
-531
-376
-38
184
205
305
234
90
252
406
460
534
706
818
722
850
842
605
681
800
539
199
230
140
-257
-285
-84
-182
-170
-88
-327
-466
-280
-227
-350
-187
-96
-404
-370
-191
-224
-110
-95
-228
-487
-525
-281
-335
-298
-126
-246
-286
-225
-321
-362
-305
-265
-242
-262
304
702
-456
-918
-362
-339
-195
-71
-244
-276
-190
89
48
-327
-314
-365
-219
-101
-278
-66
35
-255
-339
-263
-272
-184
-33
-193
-510
-546
-299
-231
-317
-153
-166
-320
-198
-252
-110
98
-262
-298
-283
-370
-257
-298
-163
-65
-231
-175
32
-31
-22
170
432
519
-6
29
201
183
395
92
22
268
86
-163
20
110
-69
-202
-174
-242
-361
-233
-266
-400
-307
-219
-250
-69
528
1027
1896
4050
5720
5884
4468
2208
1047
713
455
0
-190
-108
-341
-533
-583
-469
-318
-498
-710
-713
-674
-542
-410
-461
-440
-538
-727
-545
-417
-533
-475
-235
-368
-701
-490
-93
-372
-852
-594
-318
-263
-58
-135
-247
-97
11
2
129
441
464
353
523
589
566
892
914
814
1080
869
456
293
536
636
320
341
354
22
61
103
-234
-179
-71
-255
-333
-208
-83
-199
-359
-288
-192
-255
-277
-306
-414
-304
-265
-488
-456
-443
-313
-67
-107
-88
-129
-82
-88
-316
-293
-113
-164
-218
-94
-107
-290
7
40
-597
-604
-308
-193
-169
-103
-112
-260
-65
2
-263
-360
-335
-330
-390
-214
149
82
-244
-572
-663
-397
-171
-161
-330
-104
210
-219
-601
-393
-290
-266
-107
-189
-279
-201
-57
192
28
-423
-528
-336
-128
-169
-176
63
213
381
479
202
-150
-234
55
124
185
406
171
241
337
50
-91
-131
-92
-203
-271
-124
-60
-237
-365
-320
-290
-522
-725
-311
121
1074
2876
4611
6167
6292
4086
1706
939
637
82
59
26
-298
-319
-658
-769
-362
-524
-667
-753
-819
-466
-457
-514
-418
-556
-481
-389
-596
-739
-598
-466
-586
-509
-249
-182
-399
-543
-678
-668
-315
-311
-294
49
202
142
-144
-217
68
247
482
531
607
950
1065
988
696
611
878
776
587
667
632
522
567
336
-26
-118
2
-73
-371
-266
-303
-346
-247
-418
-150
40
-314
-385
-169
-169
-363
-310
-170
-293
-365
-100
-169
-419
-263
-233
-178
-148
-405
-522
-428
-147
-96
-231
-144
-78
89
73
-149
-308
-540
-370
-158
-254
-129
-77
-259
-145
-78
-331
-344
-20
-225
-460
-258
-303
-325
-150
-63
-321
-281
-136
-205
-59
39
-367
-739
-351
-114
-275
-210
-32
-127
-328
-248
-242
-341
-156
-33
-130
-20
17
-121
27
232
137
-59
194
390
-198
-328
156
241
210
341
237
-38
95
119
-216
-243
-125
-260
-251
-158
-206
-380
-420
-200
-174
-291
-216
600
1861
3667
5528
6019
4780
2391
820
673
659
439
-86
-555
-527
-619
-651
-462
-557
-515
-457
-554
-443
-656
-746
-630
-437
-253
-460
-530
-374
-366
-474
-413
-429
-516
-473
-487
-511
-352
-49
-85
-335
-315
-237
-258
-73
122
139
70
157
431
435
601
837
654
868
1236
914
788
923
606
497
657
534
333
221
178
-9
-154
172
83
-229
-146
-384
-413
-41
-179
-553
-534
-283
-167
-250
-183
-157
-292
-244
-244
-306
-148
65
-101
-442
-271
-19
-232
-368
-245
-402
-340
-1
7
-216
-377
-223
-290
-303
-68
-209
-224
-44
-128
-203
-222
-253
-314
-277
-160
-198
-133
-54
-227
-487
-277
-48
-391
-450
-202
-207
-342
-180
-114
-354
-296
-156
-218
-339
-309
-266
-277
-161
-173
-190
-78
-250
-301
-39
63
-7
11
116
108
79
218
121
-14
71
45
24
2
136
116
-173
-94
-21
-283
-301
-208
-376
-403
-285
-362
-250
-109
-344
-274
379
1557
3057
4671
5834
5042
2696
1239
738
82
-12
131
-155
-579
-655
-607
-621
-535
-719
-639
-312
-460
-678
-644
-443
-423
-495
-335
-448
-680
-631
-516
-594
-594
-491
-489
-440
-150
-127
-569
-578
-501
-417
-216
-101
2
-42
4
191
285
325
497
515
524
746
717
531
692
770
657
740
824
530
347
287
106
311
2
-380
-62
-133
-185
-201
-400
-228
-206
-359
-188
-96
-329
-313
-208
-399
-312
-170
-387
-350
-105
-294
-509
-150
-159
-436
-385
-249
-69
-271
-281
-34
-257
-339
-167
-259
-313
-132
-176
-266
-80
-219
-454
-140
3
-245
-241
-242
72
63
-668
-664
-302
-345
-269
-143
-136
-110
-299
-389
-290
-223
-130
-178
-172
-303
-411
-204
-185
-253
-17
63
-630
-600
-28
-280
-268
-34
-256
-371
-68
109
-13
108
275
74
-30
27
141
340
167
-13
-76
-76
125
70
91
181
-90
-300
-146
-122
-329
-316
-135
-334
-492
-36
-341
-722
-170
209
834
2317
4237
5631
5865
4420
2113
1015
640
42
-162
-4
-206
-608
-558
-257
-554
-854
-571
-571
-757
-569
-472
-621
-552
-569
-449
-324
-482
-580
-814
-804
-373
-304
-609
-552
-508
-542
-355
-291
-350
-268
-186
-278
-210
-89
100
162
128
358
451
418
435
535
516
598
812
685
709
851
626
607
549
298
743
628
-58
-210
-237
-139
-218
-270
-166
-316
-391
-440
-167
185
-261
-366
-356
-476
-246
-353
-447
-318
-357
-441
25
118
-685
-351
-47
-544
-291
-29
-82
-242
-247
-124
-253
-253
-43
-239
-375
-123
-157
-278
-134
-95
-247
-149
110
-111
-636
-347
-82
-547
-213
-193
-627
-310
-153
-42
18
-127
-297
-429
-275
-218
-329
-210
-181
-204
-116
-140
38
-247
-401
-51
-353
-501
-395
-102
-67
-336
-167
-270
-293
3
-187
-333
-10
123
182
344
203
-5
271
388
60
110
332
225
282
451
246
-194
-256
-46
-175
-163
-83
-347
-458
-190
-237
-415
-188
-198
-281
-63
182
781
2126
4226
6057
6031
4200
2297
1234
785
423
-48
20
157
-372
-677
-548
-547
-706
-582
-144
-501
-897
-552
-713
-718
-585
-693
-354
-208
-400
-670
-581
-331
-450
-561
-364
-247
-392
-368
-263
-407
-396
113
-51
-468
74
-98
-382
251
421
383
502
574
652
775
825
808
836
840
937
858
604
976
724
-177
160
342
-73
341
90
-609
-314
-195
-295
-381
-185
142
-289
-357
-162
-447
-364
-188
-16
-148
-486
-357
-349
-422
-286
-190
-122
-39
-341
-639
-266
-71
-235
-72
-5
-139
-215
-223
-154
-241
-41
94
-444
-513
-135
-238
-332
-79
-60
-257
-278
-336
-381
-245
-112
-183
-219
-153
-201
-339
-339
-228
-359
-186
188
-118
-704
-557
-205
-280
-172
-82
-262
23
282
-258
-484
-266
-301
-374
-269
-151
-81
50
-180
-290
206
192
-98
55
202
235
307
312
240
98
50
229
168
167
147
-190
-359
-253
-134
-307
-401
-257
-144
-234
-290
-187
-222
-329
-70
658
2014
4138
5887
6245
4813
2443
1018
620
347
-4
-162
-155
-398
-611
-499
-355
-356
-468
-554
-710
-832
-530
-420
-564
-518
-529
-666
-623
-429
-517
-569
-353
-201
-521
-607
-316
-458
-505
-373
-348
-192
67
3
-432
-394
27
-5
146
347
400
1020
704
61
594
948
884
764
804
945
754
599
701
645
596
612
224
-238
-295
-145
-174
-215
-116
-184
-98
-16
-159
-319
-288
-98
-495
-675
-219
-161
-382
-247
-183
-389
-299
-165
-262
-259
-158
-171
-184
-90
-119
-218
-211
-161
-163
-218
-40
-243
-713
-305
-184
-452
-94
-20
-176
-100
-124
-215
-213
-39
-77
-343
-241
57
-135
-634
-375
-38
-280
-374
-250
-142
-152
-89
-452
-813
-451
-343
-475
-328
-294
-253
-211
-399
-350
-98
-117
-253
-328
-129
3
-90
-34
2
-114
-171
147
211
146
293
159
4
132
184
74
-1
152
261
-222
-467
-164
-301
-372
-95
-64
-234
-427
-439
-472
-407
-59
219
862
2411
4202
5476
5953
4426
1684
663
575
83
18
38
-283
-300
-458
-893
-759
-382
-311
-547
-602
-499
-466
-473
-495
-540
-639
-535
-369
-472
-537
-439
-497
-665
-437
-355
-626
-417
-307
-464
-313
-135
-207
-191
-152
-93
2
34
238
273
458
959
623
181
621
740
604
843
832
612
649
698
615
489
507
458
-47
-278
-47
-199
-480
-111
-115
-167
8
-601
-607
-278
-414
-399
-199
-160
-362
-276
-87
-145
-372
-347
-58
-326
-484
-108
-232
-457
-172
-105
-239
-304
-459
-441
-274
-74
-173
-288
-133
-213
-320
-128
-57
-223
-204
-51
-248
-518
-328
-254
-245
-1
-240
-521
-399
-290
-305
-343
-257
-216
-208
-187
-304
-425
-307
-200
-337
-211
-227
-223
73
-269
-508
-470
-421
-175
-262
-369
-203
-228
-284
-23
-66
-256
-43
87
151
53
-78
110
88
44
247
261
368
430
-272
-481
-47
-87
-263
-208
-116
-322
-347
-89
40
-10
-509
-701
-447
-404
-41
403
971
2365
3939
5518
5917
3986
1849
1030
688
112
-164
-101
-348
-558
-408
-449
-690
-489
-345
-556
-629
-662
-804
-739
-451
-760
-868
-437
-433
-611
-575
-480
-501
-380
-255
-462
-662
-486
-231
-298
-445
-262
-249
-471
-314
-209
-205
264
393
62
269
478
389
503
765
747
640
938
892
469
611
641
423
474
425
272
29
-84
23
-267
-226
90
-281
-451
-260
-359
-401
-171
-254
-559
-432
-135
-181
-272
-208
-219
-290
-364
-298
-359
-364
-132
-297
-109
197
-571
-809
-184
-83
-302
-284
-157
-182
-99
26
-146
-423
-324
-245
-368
-297
-209
-309
-391
-125
126
-86
-295
-386
-451
-431
-102
148
-308
-273
-228
-604
-333
-165
-408
-378
-164
-254
-399
-245
-246
-309
-67
-161
-391
-223
-253
-404
-308
-54
-43
-61
-94
-507
-429
-10
139
75
-33
142
277
136
169
192
-80
2
262
206
249
392
23
-340
-221
-175
-320
-354
-206
-371
-464
-184
-394
-651
-400
-349
-203
487
1586
3056
4931
6438
5805
3517
1582
798
307
-52
55
-216
-477
-352
-396
-506
-586
-723
-814
-621
-536
-608
-439
-719
-722
-527
-633
-525
-611
-546
-430
-571
-446
-331
-476
-573
-504
-456
-384
-454
-347
260
-258
-797
-328
-196
39
219
42
284
711
548
256
505
705
576
780
1015
905
809
772
701
646
420
-114
-115
181
-67
-246
-105
46
-32
-354
-394
-262
-337
-371
-400
-374
-182
-191
-370
-340
-227
-145
-207
-389
-402
-384
-340
-194
-252
-217
-19
-254
-462
-128
226
-248
-522
-199
-250
26
-23
-626
-586
-235
-76
-224
-229
-162
-293
-240
-80
-118
-169
61
-48
-468
-465
-364
-352
56
-87
-412
-193
-278
-434
-441
-247
-70
-256
-308
-209
-185
-249
-359
-333
-255
-171
-38
-141
-279
36
-191
-524
-239
-72
-68
-127
35
-289
-244
424
181
50
343
262
12
-6
221
251
211
267
344
93
-268
-81
-160
-170
-25
-272
-449
-401
-435
-563
-354
-160
-297
-279
274
1173
2644
4698
6155
5933
4244
2107
757
347
181
-20
-218
-82
-268
-542
-232
-637
-1044
-635
-540
-643
-664
-549
-565
-662
-409
-123
-308
-755
-802
-669
-618
-533
-635
-667
-255
-168
-406
-394
-471
-479
-349
-209
-159
-228
-84
256
322
199
232
254
341
695
765
669
1025
1158
827
498
661
744
496
531
408
179
369
297
-211
-163
-29
-257
-238
-39
-205
-399
-130
-290
-578
-342
-205
-292
-367
-219
-217
-427
-360
-292
-399
-408
-141
-132
-358
-218
-394
-464
-76
-125
-160
224
-48
-798
-554
-75
-246
-300
-55
-125
-364
-200
-85
-256
-341
-249
-242
-305
-140
-147
-368
-199
-36
-134
-222
-234
-251
-468
-457
-349
-431
-252
-7
-152
-322
-207
-234
-361
-175
-89
-137
-50
-188
-406
-289
-12
-141
-327
-74
-71
-211
-22
135
-51
254
412
-303
54
423
83
292
392
68
-131
-24
14
-110
-155
-87
-104
-313
-463
-423
-418
-468
-119
148
-436
-565
-64
535
2222
4608
5984
5973
4445
2158
1062
857
471
-33
-240
-243
-454
-631
-457
-432
-451
-355
-656
-856
-655
-594
-691
-706
-660
-611
-288
-206
-740
-924
-654
-463
-524
-634
-473
-330
-262
-208
-458
-438
-191
-195
-312
-301
-50
-33
-30
396
539
131
166
507
873
761
346
778
1034
1061
1014
669
640
723
464
133
242
169
-96
-54
-16
-114
-280
-195
-107
-407
-337
92
-217
-495
-202
-447
-599
-279
-335
-424
-214
-173
-273
-92
-373
-630
-217
-196
-301
-180
-110
-175
-269
-238
-138
-266
-337
-31
-109
-332
-144
-150
-339
-171
296
-3
-618
-344
-313
-494
-116
-119
-354
-192
-184
-343
-225
-79
-183
-230
-79
-238
-453
-306
-174
-222
-249
-150
77
-200
-568
-238
-279
-335
-316
-463
-175
-84
-325
-201
65
-108
-291
-186
-135
-142
102
177
205
405
170
-51
-42
31
158
98
88
211
77
-112
628
621
-795
-756
-285
-532
-368
-236
-372
-413
-242
-283
-416
-244
465
1453
2216
3905
5760
6243
4649
1913
852
795
347
-36
-56
-195
-458
-536
-608
-635
-701
-624
-527
-709
-463
-41
-484
-981
-859
-615
-628
-788
-613
-588
-692
-511
-529
-534
-276
-434
-598
-365
-279
-325
-46
62
-600
-669
-101
-69
-107
164
494
515
328
512
668
558
696
776
753
1151
1040
340
493
617
302
381
396
38
-227
-100
-94
-321
-349
-16
-52
-384
-238
-358
-654
-452
-319
-439
-401
-139
129
22
-428
-723
-575
-404
-182
-143
-528
-277
-142
-424
-381
-402
-356
-146
-165
-336
-284
-38
-2
-232
-183
-244
-507
-270
-173
-439
-323
-371
-440
-118
-266
-377
-190
-338
-381
-402
-414
-249
-313
-419
-217
-151
-394
-303
-195
-482
-12
259
-618
-608
-226
-458
-540
-306
-207
-403
-108
145
-346
-523
-367
-346
-277
-74
198
83
-126
46
145
15
85
173
157
167
45
26
110
26
-121
4
-37
-285
-416
-456
-326
-377
-393
-250
-215
-283
-456
-560
-346
354
1494
3324
5252
6227
5388
2981
1280
740
259
210
444
-182
-758
-608
-640
-722
-552
-512
-531
-472
-756
-957
-684
-510
-595
-571
-381
-397
-587
-517
-572
-883
-512
-352
-543
-324
-414
-507
-468
-396
-256
-467
-451
-160
-173
-27
111
12
93
398
649
653
494
630
655
576
923
876
641
839
856
517
389
478
324
21
164
60
-400
-252
-123
-126
-88
-244
-508
-628
-405
-329
-327
-101
-88
-339
-329
-360
-525
-415
-290
-267
-341
-289
-129
-303
-435
-302
-176
-144
40
-221
-725
-330
-176
-359
-163
-39
-161
-327
-258
-260
-324
-301
-251
-221
-247
-68
-172
-300
-139
-395
-562
-245
-200
-228
-21
-202
-523
-570
-221
-227
-575
-277
-30
-396
-394
-153
-213
-3
-226
-599
-402
-120
-44
-315
-380
-270
-412
-361
-28
16
-148
17
168
-74
-91
242
126
-40
137
14
-81
170
298
41
-136
-40
-134
-191
16
-265
-487
-309
-417
-357
-256
-168
-319
-389
-36
-155
326
1923
3658
5009
5677
4639
2226
931
736
391
228
78
-348
-634
-605
-543
-689
-540
-312
-537
-776
-588
-463
-612
-612
-653
-722
-480
-308
-469
-585
-504
-585
-706
-561
-471
-440
-311
-303
-476
-594
-431
-269
-241
-34
183
25
-304
-93
214
202
441
746
646
511
818
727
531
848
837
525
581
619
261
434
293
-189
24
24
-77
-198
-157
-143
-420
-238
-260
-499
-242
-63
-321
-389
-255
-275
-240
-365
-489
-429
-407
-268
-240
-187
75
-208
-568
-396
-261
-318
-355
-181
52
-60
-241
-296
-390
-284
-79
-87
-217
-136
-208
-408
-259
-219
-295
-74
-165
-425
-396
-233
-297
-398
-6
-48
-382
-294
-192
-287
-128
-9
-342
-423
-234
-167
-371
-339
-31
-98
-251
-152
-257
-463
-106
-147
-464
-164
-25
-369
-546
-186
-94
-49
206
237
120
100
198
2
67
306
113
4
165
126
-29
125
98
-276
-165
-14
-319
-348
-207
-170
-335
-403
-362
-520
-422
-193
-25
557
1732
3289
4935
6029
5325
2903
1323
922
272
-89
-10
-179
-489
-550
-363
-483
-628
-400
-654
-845
-399
-473
-709
-542
-484
-510
-551
-421
-542
-724
-430
-388
-512
-320
-319
-625
-561
-136
-387
-673
-335
-230
-208
-47
89
6
-125
114
274
193
280
669
971
677
550
700
604
735
736
665
847
535
336
501
249
-30
5
129
59
-100
-224
-270
-305
32
69
-622
-492
-200
-386
-342
-164
-186
-298
33
-19
-576
-544
-276
-152
-143
-126
-35
-426
-504
-129
-266
-201
-131
-339
-343
-201
-80
-216
-282
-58
-147
-131
36
-441
-505
61
-5
-410
-291
-148
-301
-265
-127
-186
-320
-113
-67
-364
-225
-27
-272
-195
27
-465
-597
-197
-239
-287
-199
-180
-190
-135
-66
-111
-86
-168
-267
-249
-108
-181
-464
-398
-58
-49
-288
-172
-63
-129
-180
44
296
199
293
172
-46
273
275
57
185
482
98
-153
262
125
10
67
-218
-339
-72
-76
-431
-329
-181
-383
-329
-218
-245
-214
284
1372
2670
4322
6071
6256
4132
1996
1091
389
79
44
-236
-280
-302
-507
-592
-584
-523
-503
-450
-387
-370
-445
-698
-930
-851
-491
-447
-579
-548
-452
54
-144
-910
-602
-503
-629
-370
-495
-393
-155
-239
-203
-168
-181
16
110
163
148
174
493
458
351
687
906
706
1026
1102
471
867
843
333
641
503
192
336
223
21
-37
59
-41
-400
-282
-189
-318
-282
-160
-242
-340
-267
-278
-254
-271
-286
-200
-324
-293
-220
-392
-272
-221
-474
-270
115
-292
-583
-247
-238
-159
113
-131
-294
-182
-244
-230
-274
-315
-271
-321
-188
-56
-252
-184
44
-184
-321
-260
-257
-334
-181
41
-169
-251
-208
-469
-590
-278
-117
-181
-108
-93
-252
-388
-276
-238
-327
-54
-39
-145
-148
-378
-400
-318
-166
-259
-442
259
392
-546
-370
-67
-319
-67
188
44
-26
456
746
245
-181
-21
163
168
189
105
21
153
124
-133
-121
-30
-277
-497
-259
-310
-448
-156
-187
-314
-350
-424
-209
562
1748
3382
5290
6372
5440
2966
1318
1120
618
-9
-51
-183
-15
-283
-956
-1005
-734
-534
-690
-669
-406
-470
-626
-491
-409
-572
-528
-151
-222
-642
-632
-634
-775
-530
-352
-634
-585
-286
-329
-373
-214
-250
-450
-92
67
-150
120
274
100
344
788
624
474
646
645
706
779
881
843
711
870
760
479
470
229
89
187
124
183
-122
-418
-339
-420
-198
-169
-441
-270
-241
-484
-424
-258
-345
-269
-192
-271
-297
-364
-283
-409
-230
172
-293
-543
-298
-434
-539
-285
-200
-185
-128
18
26
-450
-395
-222
-369
-264
-142
-330
-263
259
194
-237
-321
-316
-543
-583
-321
-275
-153
-106
-231
-280
-324
-225
-328
-419
-219
-380
-455
295
224
-645
-601
-364
-446
-315
-165
-260
-144
62
-167
-193
-22
-396
-495
-250
-153
-157
-51
138
61
13
158
229
132
195
224
108
110
70
-28
8
144
-79
-87
-160
-531
-468
-337
-99
-86
-300
-225
-213
-377
-424
-342
-175
702
2232
3892
5569
6101
4704
2187
1024
923
122
-110
-168
-445
-400
-403
-496
-615
-526
-454
-653
-626
-360
-469
-679
-510
-474
-529
-510
-611
-541
-405
-484
-565
-524
-453
-407
-615
-570
-285
-433
-413
-162
-83
-138
-81
197
74
87
310
120
197
497
551
575
793
832
727
845
858
669
753
871
743
607
295
65
96
336
364
-223
-523
-370
-373
-389
-203
-152
-390
-339
-166
-444
-454
-121
-114
-79
-188
-553
-561
-343
-192
-134
-278
-271
-445
-767
-435
-163
-219
-173
-168
-279
-360
252
677
-367
-928
-514
-424
-305
-201
-345
-371
-272
-321
-343
-159
-107
-162
-135
142
4
-645
-480
-559
-681
-218
-340
-273
-176
-214
-194
-346
-183
-237
-375
-216
-304
-499
-305
16
-76
-287
-439
-330
-313
-443
-151
-180
-180
323
-33
-426
-77
55
205
282
114
106
162
61
-66
-134
-42
-46
-218
-133
-259
-558
-381
-232
-320
-302
-246
-312
-314
-196
-199
273
1529
2980
4517
5799
5278
2839
1126
821
401
-11
18
-163
-651
-719
-433
-596
-526
-102
-767
-1207
-669
-503
-655
-630
-508
-573
-522
-239
-276
-794
-808
-513
-706
-638
-284
-257
-551
-564
-293
-354
-401
-291
-275
-274
-143
5
44
311
172
-26
554
538
273
604
826
881
1059
1027
641
483
518
583
545
356
237
-27
-136
59
-74
-365
-112
-74
-406
-293
-178
-202
-345
-326
-232
-494
-124
56
-535
-360
-157
-279
-232
-482
-415
-255
-359
-257
-294
-186
-68
-226
-314
-310
-240
-213
-7
122
-286
-483
-287
-296
-364
-244
-100
-109
-104
-119
-419
-441
-152
-328
-221
210
-95
-574
-459
-310
-405
-235
-98
-200
-294
-270
-281
-378
-164
20
-72
46
-206
-684
-596
-272
-205
-358
-231
-151
159
119
-536
-400
-207
-182
-29
109
390
151
-156
50
181
67
30
166
228
49
66
262
47
-173
-107
-84
-106
-71
62
-433
-760
-380
-476
-421
-149
-350
-465
30
702
1605
3384
5312
6046
5122
3103
1417
1039
677
-199
-419
-415
-388
-281
-615
-785
-635
-680
-548
-501
-627
-482
-473
-540
-514
-355
-259
-344
-497
-861
-858
-512
-530
-705
-553
-307
-357
-362
-160
-539
-746
-256
-180
-250
-97
33
169
654
719
-32
-107
393
575
563
654
847
734
607
957
1295
920
414
328
213
290
260
112
-380
-731
92
45
-250
47
-247
-370
-204
-306
-390
-256
-213
-292
-283
-233
-311
-311
57
12
-407
-369
-387
-413
-361
-281
-295
-454
-114
87
-444
-485
-136
-228
-297
-236
-92
-49
-125
-293
-352
-139
-131
-257
-253
-137
-212
-299
-56
-72
-600
-651
-201
-67
-138
-309
-358
-231
-145
-200
-192
-108
-124
-72
-184
-255
-136
-248
-363
-508
-423
-146
-237
-225
-70
-113
-313
-281
-115
-160
-71
249
207
-86
128
452
134
-62
231
-87
-220
411
358
-72
193
170
-217
-147
-29
-199
-382
-211
-141
-312
-268
-267
-410
-244
-309
-572
249
1400
2432
4365
6176
6059
4034
1886
1023
678
195
183
96
-455
-569
-492
-578
-532
-627
-648
-518
-658
-700
-622
-621
-533
-485
-128
-217
-864
-779
-503
-567
-565
-440
-465
-543
-515
-401
-423
-404
-156
11
-190
-444
-225
-116
-61
191
293
505
645
558
493
478
553
613
895
1258
959
552
570
551
488
474
356
155
74
35
208
412
47
-461
-632
-476
-382
-445
-333
-260
-441
-366
-315
-157
498
-126
-668
-415
-526
-346
-296
-305
-67
-89
-422
-213
12
-395
-323
-120
-363
-319
-141
-177
-52
-90
-214
-206
-355
-203
-206
-290
-157
-292
-400
-231
-164
-208
-131
-231
-255
-161
-190
-292
-367
-241
-246
-273
17
-116
-435
-312
-240
-268
-108
109
-458
-774
-219
-189
-341
-264
-183
-109
-155
-30
-7
-351
-289
-11
-18
-11
508
656
-101
-142
48
-174
82
358
215
117
199
35
-123
32
1
-230
-372
-153
-37
-466
-404
-292
-614
-271
-147
-558
-273
353
1167
2808
4804
6114
5854
3825
1613
734
538
350
43
-301
-161
-379
-669
-456
-621
-808
-702
-593
-488
-569
-653
-605
-683
-577
-514
-678
-526
-312
-392
-506
-507
-646
-517
-374
-440
-352
-367
-521
-708
-463
-156
-208
-139
39
115
144
94
286
419
441
713
1033
793
541
972
886
575
714
767
631
456
338
177
191
180
-80
1
37
-263
-262
-248
-400
-435
-339
-57
-78
-397
-486
-566
-527
-308
-255
-122
-157
-412
-500
-394
-278
-420
-211
-60
-262
-100
-313
-533
-486
-335
-73
-161
-59
14
-370
-469
-247
-331
-432
-272
-167
-62
-54
-260
-145
-252
-569
-245
-366
-566
-199
-305
-431
-192
-71
-373
-396
-248
-386
-322
-235
-53
172
-76
-617
-783
-446
-281
-395
-316
-173
-210
-87
101
-173
-353
-139
-19
15
-21
237
468
133
-8
41
68
212
110
-225
-134
-36
-257
-184
-111
-323
-394
-163
-63
-357
-476
-259
-251
-438
-377
-50
597
2073
3671
4973
5941
4833
2267
879
672
271
-212
-8
-48
-551
-473
-441
-688
-708
-614
-479
-615
-607
-248
-526
-970
-808
-697
-599
-462
-412
-265
-457
-775
-742
-422
-369
-484
-365
-400
-419
-315
-304
-303
-296
-225
-51
-76
186
651
336
18
280
487
468
615
869
707
810
1019
665
549
676
627
448
733
689
-280
-566
-142
-113
-204
-127
-225
-18
232
-240
-545
-497
-450
-324
-350
-191
-203
-269
-15
-404
-671
-375
-161
-186
-349
-173
-182
-443
-390
-184
-217
-247
-162
-238
-356
-49
165
-222
-330
-358
-296
-128
-295
-327
-229
-207
-184
-234
-175
-100
-346
-347
-78
-208
-348
-157
-215
-442
-147
-9
-321
25
-128
-842
-525
-47
-147
-343
-226
-170
-297
-195
24
-103
-437
-278
-94
-329
-312
107
182
-84
-57
-139
-144
107
375
450
265
78
-160
36
190
54
1
42
70
-246
-192
192
-254
-603
-145
-186
-601
-407
-160
-331
-287
-44
52
528
1679
3193
5087
6226
5286
3026
1337
724
255
8
85
-123
-482
-441
-292
-531
-711
-612
-742
-814
-454
-185
-606
-972
-847
-682
-500
-471
-240
53
-398
-888
-730
-515
-503
-544
-390
-195
-459
-577
-236
-281
-374
79
54
-352
15
477
409
216
258
491
521
813
1003
741
762
723
627
746
770
648
510
394
575
171
-542
25
76
-237
-215
-467
-275
-181
-283
-240
-198
-216
-307
-263
-71
-449
-554
-39
-428
-709
-350
-227
-229
-155
-72
-209
-259
-207
-325
-432
-181
-120
-423
-395
-181
-230
-253
-116
-294
-509
-302
-146
-287
-134
-19
-244
-184
-80
-245
-390
-350
-326
-320
-72
-51
-333
-464
-418
-341
-363
-221
-25
-283
-580
-268
-146
-374
-196
-42
-275
-355
-228
-356
-408
-166
-101
-78
161
-233
-709
-432
-18
-55
-168
55
22
-10
144
176
94
185
207
84
202
315
202
5
17
-83
-15
243
-254
-631
-402
-232
-303
-645
-360
-52
-483
-462
-184
-67
564
1978
3663
5414
6521
5311
2507
1120
1150
379
-219
53
-138
-440
-328
-539
-760
-633
-491
-425
-620
-464
-602
-1143
-916
-548
-492
-461
-406
-555
-585
-409
-461
-594
-570
-446
-402
-348
-417
-654
-385
-88
-308
-329
-137
-194
-284
10
341
281
233
468
659
573
542
701
854
874
858
749
530
643
699
559
517
302
26
37
109
13
-84
-247
-394
-423
-351
-274
-183
-96
-223
-502
-692
-414
-185
-205
-169
-319
-307
-280
-62
29
-610
-573
-308
-442
-239
-68
-355
-288
-27
-335
-303
9
-203
-453
-295
-139
-287
-362
-155
-102
-250
-93
-303
-681
-359
-187
-293
-215
-179
-311
105
231
-502
-543
-291
-422
-446
-311
-258
-365
-447
-115
373
65
-322
-336
-593
-636
-206
-181
-765
-412
214
-66
-395
-392
-275
-236
-158
-209
-163
40
-5
25
221
229
86
-3
71
51
78
317
340
239
152
125
-35
-299
-68
-185
-666
-426
-199
-451
-412
-162
-364
-553
-145
-179
-442
206
982
2289
4522
6165
6160
4340
2069
896
597
246
-101
88
-180
-807
-791
-511
-395
-520
-477
-602
-785
-658
-577
-553
-734
-658
-476
-654
-676
-537
-486
-632
-449
-364
-708
-494
-76
-195
-567
-502
-390
-451
-265
-24
-90
-167
-5
-47
84
393
468
690
778
516
580
1014
881
676
951
811
671
818
771
559
355
221
111
-12
-104
166
29
-452
-406
-348
-328
-215
-305
-328
35
235
-259
-725
-493
-294
-376
-301
-239
-337
-466
-20
459
-191
-657
-530
-487
-257
-136
-286
-280
-162
-272
-336
-185
-120
-269
253
840
-130
-810
-433
-390
-188
-22
-447
-480
-85
-170
-302
-80
-58
-281
-370
-198
-162
-308
-239
-154
-191
-118
60
-125
-462
-278
-203
-270
-91
-256
-428
-490
-355
-16
-207
-275
-56
-150
-100
-51
-125
142
279
86
14
206
267
114
150
308
263
83
91
106
35
274
-135
-536
-97
-257
-568
-315
-53
-176
-210
-291
-535
-510
-231
220
829
2350
4561
5712
5560
4200
1943
756
623
301
-23
52
100
-335
-728
-642
-438
-538
-569
-478
-744
-701
-386
-610
-670
-406
-548
-616
-446
-384
-427
-435
-344
-430
-456
-196
-282
-615
-413
-217
-312
-255
-245
-444
-332
188
347
176
203
253
251
440
655
794
935
1040
822
630
686
690
1025
707
125
491
443
212
183
35
63
-13
-200
-144
-95
-251
-190
-27
-275
-501
-421
-174
43
-401
-601
-443
-454
-292
-209
-158
-36
-76
-219
-197
-262
-456
-445
-128
190
-236
-737
-334
-210
-319
-75
-140
-191
69
42
-240
-322
-343
-354
-189
-67
-207
-253
-89
-113
-120
56
-285
-637
-350
77
-67
-614
-402
-202
-466
-316
-120
-196
-176
-106
-163
-202
-134
-190
-392
-229
26
-149
-222
4
-7
4
174
-138
-312
-88
136
201
236
602
321
-163
-3
-8
-35
128
-8
280
477
-409
-659
-400
-369
-287
-351
-340
-139
93
44
-253
-349
327
1710
3304
4905
5898
5018
2454
1171
1184
480
-69
-384
-513
-444
-438
-427
-604
-580
-495
-534
-391
-235
-201
-517
-880
-824
-738
-622
-464
-489
-571
-235
-137
-719
-537
-467
-827
-489
-287
-351
-336
-218
-179
-199
13
51
-85
69
255
78
107
519
617
567
722
746
568
594
973
972
611
692
564
136
367
448
-225
-229
110
-19
-119
-91
-104
-209
-220
-251
-359
-322
-35
-105
-303
-69
-268
-534
-259
-167
-505
-532
-151
-205
-365
-61
-280
-679
-257
2
-183
-106
11
-260
-411
-245
-204
-263
-226
-174
-134
-228
-271
-292
-381
-277
-79
116
-1
-345
-568
-458
-209
-293
-349
-199
-204
-351
-164
382
91
-468
-444
-539
-414
-209
-297
-385
-267
-174
-319
-326
-168
-185
-306
237
548
-396
-739
-185
43
-443
-549
52
39
106
437
142
137
375
65
15
255
67
-130
60
103
-101
-48
79
-213
-307
-137
-396
-378
-54
-153
-142
-99
-533
-667
-385
139
1209
2756
4713
6082
5713
3684
1714
877
498
245
-49
-304
-272
-286
-521
-570
-437
-442
-489
-597
-928
-989
-526
-169
-715
-1032
-488
-543
-631
-311
-348
-547
-550
-519
-547
-445
-336
-352
-328
-377
-523
-440
-296
-316
-399
-194
41
61
266
446
345
327
543
689
684
762
811
707
712
718
988
858
195
160
89
153
204
-168
-162
-135
-449
-495
-222
-236
-256
-19
-75
-342
-416
-296
-323
-292
-197
-570
-695
-426
-96
-193
-345
-103
-285
-491
-268
-235
-273
1
-209
-610
-456
-317
-312
-273
-138
-13
-3
-243
-437
-538
-493
-218
-296
-364
-231
-274
-414
-198
207
303
-146
-554
-546
-568
-409
-323
-456
-332
-232
-388
-389
-284
-392
-354
-53
-66
207
420
-513
-755
-233
-495
-702
-308
-359
-233
-42
-387
-246
-141
-213
-6
-1
-75
77
63
3
171
357
197
111
205
37
41
332
298
-231
-252
-9
-282
-278
-150
-268
-234
-346
-515
-398
-243
-270
-394
-425
-182
304
1309
3278
5182
5961
5292
3524
1763
869
566
74
-230
-107
-297
-585
-523
-516
-657
-627
-439
-514
-732
-454
-163
-682
-901
-503
-690
-797
-500
-659
-830
-654
-481
-435
-362
-332
-458
-494
-361
-327
-534
-243
126
-125
-398
-384
-113
-44
134
348
411
742
771
603
677
694
662
742
860
727
612
1316
1396
-111
-566
8
-79
-97
47
-155
-301
-181
-199
-69
177
-12
-507
-639
-364
-371
-390
-231
-184
-347
-321
-122
-434
-528
-312
-418
-388
-195
-235
-388
-244
-171
-154
-34
-203
-429
-378
-130
120
74
-422
-536
-498
-544
-176
-154
-299
-74
-3
-99
-144
-461
-555
-220
-58
-312
-456
-280
-212
48
106
-451
-712
-448
-220
-323
-399
110
90
-456
-469
-428
-440
-349
-243
-325
-439
-137
228
-45
-483
-428
-470
-455
-61
-143
-286
190
199
-220
-57
390
364
141
133
116
75
134
177
130
186
43
-259
-228
-161
-434
-233
2
-523
-507
-271
-454
-525
-454
-393
-345
439
1743
2914
4512
6056
5805
3511
1486
933
486
-64
-20
463
98
-868
-917
-812
-760
-543
-699
-769
-623
-568
-268
-310
-672
-725
-882
-820
-636
-658
-496
-420
-473
-353
-409
-671
-582
-193
-365
-792
-420
-212
-402
-218
-130
-199
-74
267
686
683
225
185
408
600
697
657
810
971
889
753
787
707
404
302
214
72
175
39
-148
-188
-266
-370
-443
-74
-14
-376
-353
-295
-335
-478
-306
-220
-539
-410
-237
-297
-265
-201
12
-139
-426
-402
-558
-409
-210
-145
-118
-358
-442
-363
-217
-340
-74
553
44
-693
-750
-483
-376
-406
-286
-176
-251
-123
-21
-580
-593
-235
-356
-238
-27
-216
-482
-422
-249
-316
-280
-144
-210
-384
-320
-218
-251
-109
-101
-273
-58
211
-49
37
447
139
-119
125
183
29
96
311
464
562
214
2
180
240
238
149
176
306
129
390
845
-19
-588
-327
-413
-417
-302
-221
-324
-409
-236
-103
-142
-220
-87
167
517
1680
3636
5476
6004
4581
2239
964
613
-36
-193
116
-180
-533
-441
-559
-770
-671
-707
-858
-693
-539
-713
-773
-568
-535
-595
-540
-452
-588
-667
-395
-615
-1029
-631
-441
-683
-484
-288
-395
-376
-158
-181
-317
-135
-48
-97
78
174
93
195
566
688
566
718
469
341
993
1008
521
651
677
269
334
465
285
70
-68
-44
-207
-209
-12
-355
-604
-403
-509
-595
-299
-7
-228
-597
-474
-392
-529
-504
-410
-494
-451
-307
-476
-439
-234
-730
-710
-328
-671
-606
-389
-505
-616
-448
-256
-448
-546
-257
-188
-348
-311
-312
-398
-422
-354
-389
65
99
-497
-409
-419
-510
-472
-418
-199
-372
-414
24
-46
-349
-515
-389
58
-15
-175
-274
-387
-247
-316
-336
-83
-55
-283
-432
-454
-433
-400
-194
-100
-228
-109
87
122
-12
-56
144
147
255
628
139
-446
-163
19
110
133
92
-247
-392
-17
-268
-445
-278
-405
-389
-285
-390
-334
-243
-408
-373
279
1478
2951
4816
6053
5104
2916
1579
984
265
-5
-163
-447
-461
-491
-619
-609
-471
-459
-607
-713
-522
-581
-871
-601
-410
-428
-252
-361
-462
-292
-237
-192
-84
252
148
-346
-22
119
-109
247
482
37
-108
480
621
531
811
808
698
943
1149
1024
980
1030
956
981
1159
1030
733
777
787
574
546
471
511
789
233
-407
-475
-294
-166
-364
-397
-403
-495
-346
44
-84
-323
-285
-410
-482
-384
-278
-423
-483
-297
-317
-420
-258
-234
-456
-341
-165
-315
-424
-141
6
-303
-361
-9
169
-495
-621
-329
-448
-357
-325
-145
-64
-164
-319
-318
-172
-341
-414
-152
-113
-301
-351
-378
-512
-480
-73
-170
-386
-33
-293
-728
-510
-293
-428
-438
-192
-160
-171
-81
-343
-583
-410
-309
-410
-247
-120
-367
-83
45
-437
-516
-401
17
436
240
-16
0
90
149
107
58
148
151
-33
-46
36
-227
-277
-84
-196
-483
-724
-701
-847
-833
-573
-793
-949
-741
-792
-755
-21
1095
2614
4594
6049
5377
2857
1264
746
206
137
-93
-689
-1001
-750
-694
-767
-428
-502
-671
-459
-345
-573
-629
-392
-498
-607
-437
-307
-251
-292
-447
-674
-636
-383
-512
-453
-52
-246
-685
-863
-505
-295
-313
-26
-19
-39
105
121
100
326
477
480
574
757
742
561
588
689
660
573
692
382
-36
146
148
-79
-72
24
-232
-503
-501
-647
-708
-475
-473
-690
-473
-566
-910
-636
-316
-353
-529
-504
-538
-598
-382
-325
-547
-419
-221
-397
-437
-241
-393
-549
-169
-197
-286
45
112
-19
-249
-30
74
-75
244
364
252
394
665
627
594
893
872
848
1137
1100
1119
1219
1160
978
824
1036
875
829
1259
1172
741
719
966
712
529
678
456
319
502
412
218
346
380
109
69
277
78
-134
98
381
228
-141
-13
20
-204
29
359
145
-172
-49
-2
107
270
-59
21
208
-250
-551
-404
-434
-708
-401
-449
-903
-897
-853
-623
-601
-730
-560
-562
-209
690
1716
3564
5668
6259
4726
2376
1057
624
161
-51
-121
-336
-404
-776
-956
-695
-842
-938
-685
-568
-678
-600
-511
-795
-843
-454
-575
-777
-429
-328
-566
-505
-385
-530
-467
-256
-318
-490
-437
-466
-601
-310
78
-131
-442
-229
27
-34
268
646
332
290
618
540
433
695
740
585
797
866
589
306
247
181
0
18
-79
-339
-324
-148
-312
-534
-340
-373
-492
-316
-371
-669
-589
-501
-615
-491
-323
-493
-514
32
-91
-679
-783
-766
-730
-568
-449
-485
-554
-353
-138
-336
-474
-616
-603
-415
-548
-439
-249
-472
-644
-618
-461
-346
-547
-633
-280
-306
-564
-287
-333
-652
-265
-24
-413
-562
-347
-256
-481
-269
48
-124
-69
9
-245
-143
205
220
205
417
411
197
330
606
561
311
425
507
413
672
597
566
1174
991
371
329
606
905
906
891
994
1076
1132
962
586
578
746
522
331
546
519
68
-1
12
-237
-140
-186
-503
-413
-323
-552
-688
-551
-559
-756
-318
962
2259
3459
5094
5790
4189
1799
669
345
-193
-298
-373
-870
-941
-1054
-1306
-1091
-898
-1084
-1023
-914
-1177
-1093
-859
-933
-1028
-921
-715
-853
-832
-598
-1082
-1043
-560
-758
-805
-615
-616
-712
-494
-309
-535
-618
-431
-350
-391
-248
-92
-55
293
549
329
239
290
377
447
468
705
895
490
523
674
183
273
259
-5
151
116
-224
-277
-8
-96
-374
-299
-270
-386
-335
-227
-319
-314
-19
-130
-322
-70
-377
-810
-322
-169
-468
-347
-343
-390
-249
-36
87
-545
-807
-151
-162
-277
-73
-15
-66
-292
-437
-577
-594
-360
-368
-445
-319
-484
-618
-403
-372
-567
-473
-295
-561
-688
-464
-297
-402
-486
-375
-552
-667
-445
-417
-382
-256
-387
-438
-301
-251
-373
-274
20
-225
-373
-155
-272
-463
-344
-64
-149
-322
-165
-121
-199
51
131
5
211
-60
-241
141
149
65
132
160
135
131
240
149
-160
-200
206
72
-419
-258
-405
-599
-375
-324
-483
-357
-136
-426
-556
-105
718
1959
3795
5580
6104
4782
2470
1019
542
179
-66
-167
-168
-273
-270
-345
-618
-554
-506
-430
-306
-329
-164
-185
-297
-183
-71
-288
-456
-77
-42
-192
19
170
106
62
-161
-427
-306
-153
-153
-197
-69
-26
-134
48
195
264
565
561
500
567
764
870
372
720
1107
620
743
970
886
740
633
449
211
214
177
36
-13
-29
-232
-249
-135
-347
-486
-334
-146
-482
-558
-188
-333
-421
-305
-277
-479
-489
-292
-224
-272
-438
-427
-302
-17
-72
-561
-536
-324
-402
-310
-123
-34
-55
-258
-380
-422
-328
-215
-365
-326
-151
-170
-192
-88
-238
-452
-260
-164
-254
-219
10
53
-344
-391
-328
-435
-269
-113
-271
-344
7
-25
-372
-170
-108
-400
-74
133
-274
-305
-132
-271
-260
-127
-206
-221
-290
-322
-234
-211
-48
-50
-91
38
-80
-92
152
164
-151
-130
213
94
-284
-92
292
250
197
212
71
-118
-11
-67
-287
-176
-227
-430
-432
-320
-266
-428
-334
-297
-406
-129
397
1542
3506
5582
6407
5392
3268
1570
913
645
360
-71
-163
-64
-457
-574
-464
-638
-667
-553
-385
-485
-546
-459
-663
-670
-431
-447
-621
-482
-393
-558
-465
-301
-250
-330
-488
-483
-442
-246
-316
-470
-182
-49
-174
-235
-56
76
137
375
511
486
661
848
770
903
1090
874
804
961
869
925
1015
632
366
428
390
189
68
305
205
-227
-138
30
-2
38
-74
-258
-242
-184
-135
-177
-183
0
-31
-179
-105
-193
-416
19
105
-559
-346
-131
-370
-226
-120
-82
-134
-189
-246
-352
-267
-74
-102
-308
-299
-365
-375
-202
-193
-178
-358
-487
-525
-441
56
-177
-607
-272
-247
-559
-507
-356
-425
-482
-113
10
-364
-488
-468
-419
-267
-289
-377
-256
-394
-482
-286
-147
-139
-293
-303
-291
-287
-299
-316
-297
-281
-162
-191
-334
-30
-89
-373
1
91
-49
-92
34
186
100
326
559
176
-131
-67
-88
-62
94
25
-185
-143
-117
-356
-443
-250
-93
-63
-183
-435
-553
-463
-356
-119
627
2046
3899
5604
6420
5242
2678
1290
1001
410
-24
13
-308
-303
618
37
-934
-866
-874
-468
-573
-839
-486
-636
-656
-499
-620
-453
-438
-676
-673
-566
-617
-600
-432
-490
-572
-344
-312
-444
-175
-140
-355
-205
-123
-294
-376
-207
-41
-53
204
720
786
558
767
912
713
983
1090
747
709
930
690
219
242
222
165
96
-161
-271
-253
-228
-342
-436
-306
-193
-235
-198
-321
-513
-481
-360
-306
-700
-371
-61
-539
-265
-194
-501
-293
-190
-333
-320
-182
-118
-171
-221
-253
-382
-168
54
-299
-372
-280
-495
-343
-48
-153
-269
-203
-30
1
-152
-86
-79
-318
-228
-17
-80
-234
-438
-346
-279
-223
215
-439
-765
-64
-272
-332
-61
-221
-318
-78
8
-211
-294
-182
-337
-320
59
-191
-255
-40
-428
-504
-215
-174
-65
-36
-257
-267
-324
-176
21
-20
169
285
107
8
257
179
233
536
27
-254
58
180
64
-128
26
320
35
-378
-400
-471
-440
-306
-369
-360
-239
-282
-560
-117
818
1347
2593
4608
6097
5968
4004
1765
840
658
262
-83
-143
-249
-288
42
-349
-893
-844
-984
-826
-659
-695
-368
-452
-797
-573
-541
-677
-506
-526
-677
-569
-304
-385
-526
-317
-360
-553
-203
20
-633
-610
-57
-347
-525
-189
22
76
283
431
404
519
663
724
832
952
929
839
911
1195
1057
638
574
317
319
389
105
-22
-264
-299
-190
-189
-175
-173
-60
-134
-392
-418
-283
-306
-355
-363
-152
-291
-624
-371
-144
-69
-360
-437
-290
-364
-346
-396
-165
40
-96
-347
-479
-330
-369
-270
-110
-48
74
-298
-478
-380
-337
-183
-341
-17
376
-413
-761
-309
-286
-266
-103
-140
-125
-99
-223
-386
-381
-239
-281
-342
-157
-75
-255
-220
-251
-445
-274
-189
-342
-340
-222
-214
-297
-239
12
-88
-487
-391
-369
-434
-20
54
-334
-268
89
75
52
104
-34
79
627
633
-19
-193
-27
-22
34
217
209
61
383
245
-485
-585
-384
-353
-371
-225
-292
-331
-92
-184
-345
-255
423
1643
3296
5252
6152
5289
3029
1027
496
391
130
-149
-292
-295
-522
-676
-434
-358
-721
-700
-603
-741
-734
-621
-412
-498
-549
-666
-796
-538
-562
-706
-525
-391
-500
-589
-432
-480
-735
-481
-216
-338
-246
-14
-55
-180
-74
-48
-33
53
179
427
453
642
740
571
672
825
807
754
705
591
484
535
363
166
754
619
-677
-744
-204
-390
-498
-258
-339
-663
-204
44
-348
-392
-398
-341
-321
-391
-286
-228
-176
-168
-333
-472
-293
-430
-479
-182
-391
-591
-367
-194
-508
-456
2
-328
-398
-32
-170
-229
-211
-271
-250
-170
-286
-560
-489
-280
-350
-303
12
5
-328
-554
-493
-493
-406
61
-243
-487
-224
-454
-515
-337
-271
-399
-378
-136
-154
-180
-261
-479
-544
-418
-419
-233
-120
-424
-187
-289
-493
-249
-279
-160
97
-52
-161
-7
-98
-132
125
293
106
20
148
-89
1
571
79
-438
-119
-196
-312
-214
-279
-378
-363
-209
-21
-258
-453
-456
-644
-407
68
612
1846
3887
5724
6200
4777
2205
709
459
233
-135
-365
