225
232
230
218
195
163
126
86
48
16
-9
-23
-28
-23
-12
1
13
19
18
6
-15
-44
-79
-116
-150
-178
-197
-207
-208
-200
-188
-175
-164
-160
-164
-178
-201
-233
-269
-307
-342
-372
-392
-402
-399
-386
-363
-335
-305
-278
-257
-246
-245
-256
-277
-305
-337
-368
-394
-411
-419
-415
-401
-378
-350
-321
-293
-272
-259
-257
-266
-286
-314
-348
-383
-416
-441
-453
-450
-429
-388
-327
-248
-154
-47
68
191
319
453
597
754
931
1134
1370
1644
1958
2311
2699
3114
3545
3979
4404
4806
5174
5499
5774
5993
6153
6251
6284
6248
6139
5956
5695
5358
4951
4484
3974
3439
2905
2394
1928
1526
1198
950
777
671
615
593
588
583
568
535
481
410
324
232
138
49
-30
-97
-150
-190
-218
-236
-245
-250
-252
-254
-259
-269
-287
-313
-347
-390
-437
-487
-536
-578
-613
-635
-645
-642
-629
-609
-586
-565
-549
-543
-547
-562
-587
-619
-653
-685
-711
-725
-728
-717
-694
-664
-629
-596
-569
-554
-551
-562
-586
-619
-657
-693
-723
-743
-750
-743
-724
-696
-663
-630
-602
-583
-575
-579
-594
-617
-645
-674
-700
-719
-730
-730
-720
-702
-676
-648
-619
-595
-577
-568
-569
-580
-599
-624
-651
-676
-695
-706
-706
-695
-675
-648
-618
-589
-565
-551
-546
-553
-570
-594
-622
-650
-673
-689
-694
-689
-674
-651
-622
-593
-566
-544
-532
-529
-536
-552
-574
-598
-621
-639
-648
-648
-636
-615
-586
-552
-518
-488
-466
-453
-453
-463
-483
-510
-539
-567
-588
-600
-599
-586
-562
-528
-488
-448
-413
-386
-372
-370
-382
-405
-435
-466
-494
-513
-520
-513
-492
-459
-418
-373
-330
-295
-269
-257
-257
-268
-286
-308
-329
-345
-353
-349
-335
-310
-276
-238
-199
-162
-130
-106
-92
-87
-91
-101
-115
-127
-136
-137
-128
-109
-79
-41
1
45
84
117
138
148
146
134
117
98
83
76
80
98
129
170
218
269
316
355
382
396
397
385
366
343
322
306
300
306
323
350
385
423
460
492
516
529
530
521
503
479
454
430
412
401
399
407
422
443
466
487
503
511
509
496
474
445
411
377
346
321
305
299
303
315
332
351
368
379
381
372
352
320
279
232
183
137
98
68
50
44
48
61
78
94
106
109
101
81
52
14
-27
-68
-103
-130
-146
-150
-143
-127
-107
-86
-70
-62
-65
-80
-107
-143
-184
-227
-265
-295
-312
-316
-306
-284
-254
-220
-189
-163
-149
-149
-162
-189
-225
-266
-306
-340
-365
-375
-371
-354
-325
-289
-251
-216
-190
-175
-173
-184
-207
-238
-272
-306
-335
-355
-364
-360
-345
-320
-289
-257
-227
-204
-191
-191
-203
-225
-256
-289
-320
-345
-359
-360
-347
-321
-286
-247
-209
-177
-156
-149
-156
-176
-204
-238
-270
-296
-312
-316
-306
-285
-255
-221
-187
-159
-139
-132
-136
-151
-176
-206
-237
-265
-286
-297
-297
-285
-262
-231
-197
-164
-135
-116
-108
-113
-131
-158
-192
-227
-259
-283
-296
-294
-279
-253
-218
-180
-144
-114
-95
-89
-96
-114
-142
-173
-204
-230
-246
-251
-244
-227
-201
-171
-141
-117
-101
-96
-104
-122
-149
-181
-214
-243
-264
-275
-273
-259
-234
-202
-167
-133
-105
-85
-77
-81
-96
-120
-149
-180
-206
-226
-235
-233
-220
-197
-167
-136
-108
-86
-75
-75
-87
-110
-140
-172
-203
-229
-245
-250
-243
-227
-204
-177
-152
-131
-119
-117
-126
-146
-173
-204
-236
-263
-283
-293
-291
-277
-252
-220
-185
-151
-121
-102
-94
-99
-117
-145
-180
-217
-250
-276
-291
-293
-282
-258
-228
-193
-161
-136
-121
-120
-132
-156
-188
-225
-260
-289
-308
-316
-310
-294
-268
-239
-211
-187
-172
-168
-175
-193
-218
-246
-274
-298
-313
-318
-312
-297
-274
-246
-218
-194
-176
-167
-169
-180
-201
-228
-257
-286
-311
-328
-335
-332
-317
-292
-262
-228
-197
-172
-158
-156
-168
-192
-225
-264
-302
-335
-357
-366
-360
-340
-309
-271
-232
-198
-173
-159
-160
-173
-197
-227
-260
-290
-313
-326
-328
-319
-299
-274
-245
-218
-196
-183
-180
-187
-204
-228
-256
-282
-304
-318
-322
-315
-298
-275
-247
-218
-193
-175
-166
-168
-180
-201
-228
-258
-287
-311
-327
-333
-327
-311
-284
-252
-217
-183
-156
-139
-133
-141
-160
-189
-221
-253
-280
-296
-300
-290
-266
-233
-193
-153
-117
-89
-72
-66
-71
-83
-100
-116
-128
-132
-127
-112
-87
-54
-17
22
58
89
111
124
126
118
101
78
53
27
6
-8
-12
-5
12
39
71
105
138
166
185
194
193
185
170
154
139
130
128
136
151
173
199
224
246
261
267
263
250
231
207
183
162
148
143
147
160
181
205
230
251
265
268
259
239
209
173
135
99
69
50
42
47
61
82
106
126
139
142
131
106
70
25
-24
-72
-115
-148
-169
-176
-171
-156
-135
-112
-91
-78
-75
-86
-109
-144
-187
-236
-284
-327
-360
-380
-386
-377
-356
-327
-293
-259
-232
-215
-209
-217
-237
-265
-299
-333
-363
-384
-395
-393
-380
-358
-330
-300
-274
-253
-243
-243
-253
-271
-296
-324
-350
-372
-387
-395
-394
-387
-375
-360
-345
-332
-321
-310
-298
-281
-255
-214
-155
-73
35
171
334
525
742
984
1248
1534
1838
2160
2497
2849
3211
3582
3956
4330
4697
5052
5386
5691
5957
6173
6328
6408
6404
6306
6108
5811
5420
4947
4413
3840
3258
2696
2180
1732
1368
1093
903
788
729
706
697
685
655
601
522
423
311
199
97
11
-52
-91
-110
-112
-106
-99
-97
-104
-125
-158
-203
-257
-316
-374
-429
-476
-513
-538
-552
-554
-548
-537
-524
-513
-507
-510
-522
-544
-575
-610
-645
-677
-701
-714
-714
-701
-677
-646
-612
-582
-559
-547
-549
-564
-591
-627
-665
-702
-732
-751
-757
-749
-728
-699
-664
-628
-598
-575
-564
-566
-581
-606
-638
-672
-704
-730
-744
-746
-735
-712
-681
-645
-609
-580
-561
-554
-561
-580
-608
-641
-674
-701
-718
-722
-712
-690
-658
-620
-582
-550
-526
-515
-519
-536
-565
-600
-637
-670
-694
-705
-701
-682
-650
-610
-567
-527
-496
-477
-472
-482
-504
-534
-567
-598
-622
-635
-634
-621
-597
-564
-528
-493
-464
-443
-434
-436
-449
-472
-500
-530
-558
-580
-592
-594
-584
-563
-534
-500
-466
-436
-413
-399
-397
-405
-422
-443
-465
-484
-496
-498
-489
-469
-443
-411
-379
-351
-330
-318
-316
-323
-337
-355
-372
-385
-391
-388
-374
-350
-319
-282
-242
-205
-172
-147
-131
-126
-129
-139
-154
-169
-181
-187
-182
-166
-139
-101
-57
-10
35
74
103
119
123
115
98
77
57
43
38
47
68
103
147
198
250
298
339
368
384
388
380
365
345
325
311
305
310
328
356
394
436
478
515
543
559
560
547
524
492
459
429
408
398
403
422
452
490
530
568
598
616
619
608
585
553
516
479
448
426
416
417
428
448
470
492
508
515
511
495
467
431
388
344
303
268
241
226
221
226
238
255
271
284
289
284
267
239
200
155
106
59
17
-14
-33
-39
-32
-17
4
25
41
48
43
25
-4
-41
-83
-124
-160
-186
-201
-203
-194
-176
-153
-130
-110
-97
-94
-102
-119
-145
-176
-208
-239
-263
-279
-285
-280
-265
-243
-216
-189
-166
-149
-142
-147
-162
-187
-218
-251
-281
-305
-318
-319
-307
-282
-249
-212
-175
-143
-121
-110
-113
-129
-156
-189
-224
-257
-282
-297
-300
-291
-271
-243
-212
-181
-155
-137
-130
-133
-147
-168
-194
-220
-243
-259
-265
-261
-247
-223
-194
-163
-133
-108
-91
-85
-91
-106
-130
-160
-190
-217
-237
-248
-247
-235
-213
-186
-156
-128
-107
-95
-94
-105
-124
-150
-178
-203
-221
-228
-224
-209
-183
-151
-116
-84
-59
-44
-41
-50
-72
-102
-137
-172
-202
-223
-233
-229
-212
-185
-151
-114
-80
-53
-37
-34
-44
-67
-97
-132
-165
-193
-211
-216
-209
-190
-162
-129
-95
-64
-41
-28
-27
-37
-56
-83
-113
-142
-167
-184
-192
-188
-174
-152
-125
-97
-73
-55
-47
-51
-65
-88
-118
-148
-177
-198
-209
-210
-199
-179
-152
-124
-98
-77
-66
-64
-72
-89
-113
-139
-165
-186
-199
-204
-199
-185
-164
-139
-113
-91
-75
-69
-74
-89
-114
-144
-177
-207
-231
-245
-248
-239
-219
-191
-160
-129
-104
-88
-83
-91
-109
-136
-169
-202
-232
-254
-266
-266
-254
-233
-205
-175
-147
-125
-112
-111
-122
-143
-171
-202
-232
-256
-271
-274
-266
-248
-223
-194
-166
-143
-128
-124
-131
-148
-174
-205
-236
-265
-287
-300
-302
-293
-274
-248
-217
-186
-158
-139
-130
-133
-148
-172
-203
-235
-264
-286
-296
-293
-277
-250
-214
-176
-140
-111
-93
-88
-97
-117
-146
-180
-212
-240
-259
-267
-262
-245
-220
-189
-157
-128
-108
-99
-103
-119
-146
-180
-216
-249
-274
-288
-287
-273
-246
-211
-172
-135
-106
-89
-85
-97
-122
-157
-197
-237
-272
-297
-309
-308
-293
-267
-235
-200
-167
-142
-126
-122
-130
-146
-170
-196
-220
-238
-248
-248
-237
-217
-191
-162
-133
-109
-91
-82
-80
-86
-97
-110
-122
-130
-130
-122
-104
-78
-44
-7
31
67
97
118
129
129
118
99
73
46
21
2
-8
-7
7
32
66
104
143
178
205
220
224
215
198
175
152
133
122
123
135
158
189
224
258
286
303
308
299
278
247
211
174
143
120
109
112
128
154
188
224
257
283
298
299
287
261
226
186
145
109
82
67
65
75
95
120
144
163
170
165
144
109
63
11
-41
-87
-123
-144
-150
-142
-122
-95
-66
-41
-25
-21
-32
-57
-95
-141
-193
-245
-291
-328
-352
-362
-357
-340
-314
-283
-253
-228
-212
-208
-216
-235
-263
-296
-329
-359
-382
-393
-393
-380
-357
-327
-294
-263
-238
-223
-219
-229
-250
-280
-315
-351
-381
-402
-411
-407
-391
-365
-333
-301
-271
-249
-234
-226
-221
-215
-201
-171
-121
-44
63
200
366
559
776
1014
1267
1535
1815
2107
2411
2727
3055
3396
3746
4102
4461
4814
5153
5467
5746
5976
6144
6238
6245
6159
5974
5690
5314
4859
4343
3789
3223
2673
2164
1717
1346
1058
852
718
642
605
589
576
552
509
446
364
271
176
88
14
-39
-72
-86
-87
-81
-77
-81
-97
-127
-171
-226
-287
-347
-402
-447
-478
-495
-498
-491
-477
-461
-448
-442
-445
-460
-485
-519
-559
-599
-636
-665
-683
-688
-680
-662
-637
-609
-584
-564
-554
-555
-568
-591
-620
-652
-682
-706
-722
-727
-720
-703
-678
-647
-615
-587
-564
-552
-551
-561
-582
-610
-642
-673
-699
-717
-722
-715
-696
-668
-634
-600
-570
-548
-538
-541
-557
-584
-617
-652
-685
-711
-727
-729
-719
-696
-664
-627
-589
-554
-528
-513
-512
-523
-546
-577
-612
-647
-675
-693
-698
-689
-667
-634
-596
-557
-522
-497
-484
-485
-500
-524
-555
-587
-615
-634
-641
-634
-614
-584
-547
-509
-474
-447
-432
-431
-444
-469
-502
-538
-573
-601
-617
-620
-608
-581
-545
-503
-460
-422
-394
-379
-378
-391
-414
-443
-474
-500
-519
-527
-524
-509
-485
-455
-424
-395
-371
-354
-347
-348
-356
-369
-383
-395
-401
-399
-387
-365
-333
-293
-250
-208
-170
-140
-121
-114
-119
-134
-155
-178
-198
-211
-214
-204
-182
-148
-105
-58
-10
34
71
97
110
113
105
89
71
55
45
46
58
85
123
171
224
276
322
358
380
388
382
365
341
315
294
281
280
292
315
349
388
428
465
495
514
521
516
502
480
454
429
409
396
394
403
423
452
486
522
555
581
596
598
587
564
531
492
453
417
389
372
367
373
388
408
429
445
454
453
439
414
379
340
298
260
229
208
198
199
208
224
241
254
261
258
242
215
177
133
85
38
-3
-34
-54
-62
-59
-48
-33
-17
-5
0
-6
-23
-51
-87
-129
-171
-210
-241
-260
-266
-257
-235
-202
-163
-124
-88
-63
-51
-54
-74
-107
-150
-198
-244
-282
-309
-321
-318
-302
-276
-247
-218
-196
-184
-184
-196
-218
-246
-275
-302
-323
-333
-333
-321
-300
-273
-243
-213
-187
-167
-155
-153
-159
-172
-191
-213
-235
-253
-265
-270
-265
-251
-230
-205
-179
-156
-139
-134
-140
-157
-185
-218
-253
-283
-305
-314
-309
-290
-259
-220
-179
-141
-111
-93
-89
-99
-120
-149
-181
-211
-234
-246
-246
-233
-209
-177
-140
-105
-75
-56
-51
-60
-83
-117
-159
-202
-242
-273
-291
-293
-280
-253
-216
-173
-131
-96
-71
-59
-63
-79
-107
-140
-174
-204
-225
-235
-231
-215
-189
-156
-120
-87
-61
-44
-39
-45
-62
-86
-115
-143
-168
-187
-196
-195
-185
-167
-144
-120
-97
-80
-71
-72
-84
-104
-131
-160
-188
-211
-225
-228
-218
-196
-165
-128
-89
-53
-26
-10
-7
-18
-41
-72
-108
-144
-175
-196
-207
-205
-192
-171
-144
-116
-92
-75
-68
-72
-88
-113
-145
-179
-212
-240
-258
-265
-259
-242
-215
-182
-147
-115
-91
-77
-77
-90
-114
-147
-183
-218
-245
-261
-264
-253
-230
-198
-164
-132
-107
-94
-95
-109
-135
-169
-205
-239
-265
-281
-284
-275
-254
-225
-192
-160
-133
-115
-108
-114
-132
-159
-193
-228
-262
-288
-304
-307
-298
-277
-249
-216
-184
-157
-140
-135
-142
-160
-187
-217
-247
-271
-285
-289
-280
-260
-233
-201
-169
-141
-120
-110
-111
-122
-141
-167
-194
-221
-242
-256
-261
-257
-244
-225
-202
-180
-162
-151
-149
-157
-175
-200
-230
-259
-285
-302
-309
-304
-287
-261
-230
-197
-169
-148
-140
-146
-165
-195
-232
-270
-305
-331
-344
-343
-326
-296
-257
-214
-172
-137
-112
-101
-105
-123
-152
-189
-229
-265
-294
-311
-314
-302
-276
-241
-200
-162
-131
-112
-109
-124
-153
-193
-239
-284
-320
-343
-349
-338
-311
-272
-227
-181
-141
-112
-96
-95
-107
-131
-163
-197
-228
-250
-261
-257
-236
-199
-150
-94
-36
17
57
80
84
67
34
-11
-58
-101
-132
-144
-135
-106
-60
-5
52
104
143
165
169
155
128
94
59
30
13
9
21
47
83
126
171
212
245
266
275
270
254
228
197
163
133
108
92
86
91
106
128
154
180
202
218
225
222
211
191
166
139
113
91
76
69
70
79
94
113
132
148
158
160
152
134
107
73
35
-3
-36
-62
-78
-84
-80
-67
-50
-33
-20
-14
-18
-33
-58
-91
-128
-165
-199
-226
-244
-252
-252
-244
-233
-220
-211
-208
-213
-227
-249
-278
-310
-343
-373
-396
-409
-412
-402
-383
-355
-323
-290
-261
-240
-228
-227
-238
-259
-287
-319
-350
-377
-395
-403
-399
-384
-359
-330
-298
-270
-250
-241
-245
-261
-288
-320
-351
-375
-384
-373
-338
-277
-190
-82
44
183
329
479
631
786
948
1120
1310
1523
1765
2039
2346
2685
3049
3433
3825
4215
4591
4942
5256
5523
5733
5878
5952
5950
5869
5707
5468
5155
4779
4349
3883
3397
2909
2438
2000
1609
1275
1001
790
635
530
463
425
404
391
377
357
328
288
239
181
116
49
-20
-85
-146
-199
-242
-275
-296
-306
-308
-303
-296
-289
-287
-293
-308
-334
-369
-412
-460
-509
-554
-593
-622
-639
-644
-638
-622
-600
-575
-552
-534
-524
-524
-535
-556
-584
-616
-648
-676
-696
-705
-703
-690
-667
-638
-609
-582
-562
-554
-557
-573
-599
-632
-668
-702
-729
-745
-749
-739
-718
-687
-653
-618
-588
-567
-557
-560
-574
-597
-625
-654
-680
-698
-706
-702
-688
-664
-634
-603
-575
-555
-544
-545
-559
-582
-613
-646
-678
-702
-717
-719
-708
-684
-651
-613
-575
-541
-517
-504
-503
-516
-538
-566
-596
-623
-642
-650
-647
-633
-609
-579
-547
-517
-493
-479
-475
-481
-498
-520
-546
-572
-593
-606
-609
-601
-583
-557
-526
-493
-462
-439
-425
-422
-431
-450
-476
-505
-533
-554
-566
-567
-555
-531
-500
-464
-427
-395
-371
-357
-354
-362
-378
-400
-423
-443
-456
-460
-453
-434
-405
-368
-327
-286
-251
-225
-210
-209
-220
-240
-266
-292
-313
-324
-321
-304
-273
-230
-182
-132
-87
-51
-27
-18
-22
-36
-56
-77
-95
-104
-103
-90
-64
-28
15
62
108
148
181
203
214
213
204
188
171
155
146
146
157
180
213
252
295
336
371
395
408
409
399
381
359
338
322
315
318
331
355
386
421
456
486
508
520
520
509
488
460
430
401
379
366
366
377
399
429
461
490
511
521
516
496
465
424
380
337
300
274
259
257
267
284
306
327
345
354
353
340
316
280
237
190
142
98
62
36
23
23
32
48
67
83
91
88
72
43
3
-44
-94
-140
-179
-205
-218
-216
-202
-179
-151
-124
-101
-86
-84
-93
-115
-147
-185
-224
-261
-291
-310
-317
-312
-295
-271
-242
-215
-193
-179
-176
-184
-201
-225
-252
-277
-298
-312
-315
-309
-293
-270
-243
-214
-189
-169
-157
-154
-161
-177
-198
-222
-246
-266
-278
-281
-274
-258
-235
-208
-181
-158
-144
-139
-145
-162
-187
-217
-247
-274
-293
-303
-301
-288
-265
-235
-203
-172
-147
-131
-126
-133
-151
-178
-210
-243
-272
-292
-301
-297
-281
-254
-221
-186
-153
-128
-115
-114
-127
-151
-184
-221
-257
-287
-306
-312
-304
-283
-252
-214
-176
-141
-116
-103
-104
-119
-145
-179
-214
-247
-272
-286
-286
-272
-248
-215
-180
-146
-119
-101
-95
-102
-119
-145
-174
-204
-230
-248
-257
-255
-243
-222
-196
-167
-141
-120
-107
-105
-113
-130
-154
-182
-209
-232
-246
-250
-243
-226
-200
-170
-139
-112
-93
-85
-89
-104
-129
-161
-195
-227
-253
-270
-275
-268
-250
-224
-194
-164
-138
-120
-113
-119
-136
-162
-194
-228
-257
-279
-290
-288
-272
-246
-213
-177
-144
-118
-104
-102
-114
-138
-170
-206
-240
-269
-287
-293
-287
-268
-241
-209
-177
-150
-131
-123
-128
-144
-170
-202
-235
-266
-291
-305
-308
-298
-279
-252
-222
-193
-170
-157
-156
-166
-188
-218
-252
-284
-311
-329
-334
-327
-308
-281
-248
-215
-186
-165
-154
-155
-168
-190
-219
-250
-280
-306
-323
-329
-325
-310
-286
-257
-225
-197
-174
-161
-159
-169
-189
-218
-250
-281
-306
-322
-327
-319
-299
-270
-237
-203
-175
-155
-147
-152
-168
-194
-225
-258
-287
-309
-322
-323
-313
-294
-268
-240
-214
-193
-181
-180
-189
-208
-235
-265
-294
-318
-333
-338
-330
-310
-282
-248
-214
-185
-164
-155
-159
-177
-205
-239
-275
-306
-329
-339
-336
-319
-292
-257
-221
-187
-162
-147
-146
-158
-182
-214
-249
-285
-314
-335
-344
-341
-326
-301
-271
-238
-209
-186
-173
-172
-182
-203
-231
-262
-292
-317
-333
-337
-328
-308
-278
-241
-203
-167
-138
-120
-114
-120
-138
-163
-191
-218
-238
-247
-242
-223
-190
-147
-98
-48
-2
34
58
69
67
53
32
8
-14
-31
-40
-39
-28
-10
15
42
70
93
111
122
125
121
111
98
85
75
71
76
90
113
144
180
217
251
278
293
296
284
261
229
193
156
125
104
95
100
117
144
176
210
239
260
270
267
252
226
193
158
124
96
77
70
75
90
112
139
164
183
193
191
175
145
106
60
12
-33
-70
-95
-107
-106
-93
-73
-49
-27
-11
-5
-12
-32
-65
-106
-152
-199
-240
-272
-292
-300
-294
-279
-259
-238
-221
-213
-216
-232
-260
-296
-336
-374
-406
-427
-433
-425
-403
-371
-333
-295
-263
-241
-232
-238
-257
-287
-323
-360
-393
-417
-429
-425
-408
-378
-339
-298
-260
-230
-214
-213
-228
-256
-293
-333
-366
-386
-385
-357
-299
-212
-98
40
195
363
538
717
901
1090
1291
1508
1748
2016
2318
2653
3021
3416
3829
4248
4660
5051
5405
5710
5954
6124
6215
6219
6135
5961
5702
5366
4963
4508
4019
3516
3019
2548
2120
1747
1435
1186
995
853
748
668
601
538
474
406
335
266
201
144
97
60
30
5
-22
-53
-91
-137
-190
-246
-301
-350
-390
-416
-429
-430
-422
-410
-398
-392
-396
-411
-438
-476
-522
-570
-616
-655
-683
-698
-699
-687
-665
-637
-607
-581
-563
-555
-560
-576
-601
-633
-665
-695
-717
-729
-729
-716
-694
-664
-631
-600
-574
-558
-553
-560
-577
-602
-631
-661
-686
-703
-710
-706
-692
-668
-640
-609
-581
-559
-547
-545
-556
-576
-604
-637
-669
-697
-717
-726
-722
-707
-681
-649
-614
-581
-554
-537
-532
-541
-561
-589
-622
-654
-682
-699
-705
-696
-676
-645
-609
-571
-538
-514
-501
-501
-514
-536
-565
-595
-623
-642
-651
-648
-634
-609
-578
-545
-514
-490
-476
-474
-485
-506
-536
-571
-605
-634
-653
-661
-656
-637
-608
-571
-531
-494
-464
-443
-435
-439
-453
-474
-499
-522
-540
-548
-544
-529
-504
-471
-435
-399
-368
-346
-334
-333
-343
-361
-383
-405
-424
-435
-435
-423
-401
-369
-332
-293
-257
-228
-210
-203
-210
-227
-252
-280
-307
-327
-337
-334
-315
-282
-237
-183
-126
-71
-22
15
40
49
46
33
14
-5
-20
-27
-21
-3
28
69
116
164
208
244
269
282
282
271
254
234
217
206
206
218
241
275
316
358
398
431
453
461
456
439
414
384
356
334
323
325
340
369
406
449
491
528
555
570
570
556
532
499
463
428
399
378
367
368
378
395
416
437
454
465
467
459
441
416
385
353
322
296
277
268
267
274
286
299
310
315
310
294
267
230
186
138
92
51
19
-1
-10
-7
5
23
42
58
67
67
55
32
0
-39
-81
-121
-156
-183
-198
-201
-193
-177
-156
-134
-114
-103
-101
-110
-130
-160
-194
-230
-263
-288
-303
-305
-294
-274
-246
-216
-188
-167
-157
-159
-174
-200
-234
-270
-305
-334
-353
-359
-352
-333
-304
-269
-233
-199
-172
-156
-153
-162
-182
-212
-247
-283
-315
-340
-354
-356
-345
-324
-296
-264
-234
-209
-192
-187
-192
-207
-229
-254
-278
-296
-305
-304
-293
-272
-245
-214
-185
-161
-145
-140
-147
-163
-188
-217
-246
-272
-290
-299
-297
-284
-262
-234
-204
-177
-155
-142
-139
-147
-164
-188
-216
-243
-265
-280
-285
-280
-265
-242
-215
-186
-161
-142
-131
-131
-141
-159
-183
-209
-233
-250
-260
-258
-247
-226
-199
-169
-141
-119
-105
-103
-112
-131
-159
-190
-221
-248
-268
-276
-273
-259
-236
-207
-175
-145
-120
-104
-98
-102
-115
-135
-158
-182
-202
-216
-221
-216
-203
-183
-159
-135
-113
-97
-90
-92
-105
-126
-152
-181
-207
-228
-240
-242
-233
-215
-190
-162
-135
-114
-101
-98
-108
-127
-153
-184
-215
-241
-261
-270
-270
-259
-240
-216
-189
-164
-143
-130
-125
-130
-143
-162
-186
-211
-234
-252
-263
-264
-257
-242
-220
-196
-172
-152
-140
-137
-144
-161
-185
-214
-243
-269
-287
-296
-294
-281
-260
-233
-205
-180
-162
-153
-155
-168
-189
-216
-244
-270
-289
-300
-300
-289
-269
-243
-215
-188
-167
-154
-151
-159
-177
-202
-231
-259
-283
-299
-306
-303
-290
-270
-245
-220
-199
-184
-179
-182
-195
-214
-237
-261
-282
-296
-301
-297
-283
-262
-235
-206
-179
-157
-142
-137
-142
-157
-179
-206
-234
-259
-278
-288
-287
-275
-254
-226
-195
-166
-144
-131
-130
-142
-166
-198
-235
-270
-299
-318
-324
-317
-297
-268
-234
-201
-174
-156
-150
-156
-174
-199
-229
-258
-283
-298
-302
-294
-276
-249
-218
-186
-157
-136
-125
-124
-135
-155
-183
-213
-244
-269
-287
-296
-293
-279
-258
-230
-201
-174
-154
-143
-142
-153
-173
-201
-231
-260
-285
-300
-306
-299
-282
-256
-225
-191
-160
-135
-119
-112
-116
-129
-148
-169
-189
-203
-207
-200
-180
-148
-108
-62
-16
26
58
78
85
79
64
42
19
0
-11
-12
-2
19
48
80
112
140
160
169
167
155
136
112
88
68
56
54
64
85
117
156
200
243
281
310
327
330
319
296
264
228
192
162
142
134
140
160
189
225
261
293
316
327
324
309
282
249
214
182
157
141
138
145
162
184
209
232
249
257
255
242
219
188
152
113
77
45
20
4
-2
0
9
22
36
46
48
42
25
-3
-39
-81
-124
-164
-197
-218
-228
-225
-213
-195
-176
-160
-153
-157
-174
-203
-240
-282
-324
-360
-386
-398
-396
-380
-353
-320
-284
-251
-225
-210
-206
-214
-232
-257
-286
-314
-338
-354
-360
-355
-339
-316
-287
-257
-231
-212
-205
-211
-232
-265
-308
-354
-398
-431
-447
-439
-404
-341
-249
-132
5
157
317
482
650
821
998
1188
1399
1637
1910
2222
2575
2966
3387
3828
4275
4712
5124
5497
5818
6078
6268
6384
6423
6383
6263
6064
5789
5442
5033
4572
4074
3559
3045
2554
2104
1709
1379
1118
923
787
697
641
605
578
548
512
467
413
352
287
220
155
92
32
-25
-79
-129
-175
-215
-249
-276
-294
-306
-312
-315
-319
-325
-338
-358
-387
-424
-465
-509
-551
-588
-616
-634
-640
-635
-620
-599
-576
-555
-539
-532
-535
-549
-572
-604
-639
-675
-707
-730
-742
-742
-729
-706
-675
-641
-608
-583
-567
-564
-575
-596
-627
-661
-694
-721
-737
-741
-730
-707
-675
-637
-600
-567
-545
-534
-538
-554
-580
-613
-646
-675
-695
-704
-700
-683
-655
-622
-587
-555
-532
-519
-519
-531
-554
-584
-616
-645
-667
-679
-679
-667
-643
-612
-577
-542
-513
-493
-484
-487
-503
-527
-558
-591
-620
-642
-654
-653
-639
-614
-581
-544
-508
-478
-458
-450
-456
-474
-501
-533
-564
-591
-608
-613
-606
-586
-558
-525
-492
-465
-446
-439
-444
-460
-484
-511
-537
-559
-571
-571
-560
-538
-506
-469
-431
-395
-366
-346
-336
-338
-349
-367
-390
-413
-432
-444
-446
-438
-419
-392
-359
-323
-288
-259
-238
-226
-225
-232
-246
-262
-277
-287
-289
-281
-262
-232
-195
-154
-112
-74
-44
-24
-15
-18
-30
-46
-64
-78
-84
-78
-60
-28
16
67
122
175
222
259
283
293
291
279
260
240
222
212
212
224
249
284
326
372
415
451
477
489
486
470
443
412
380
355
340
339
354
383
424
471
520
563
596
615
620
610
588
558
526
497
474
462
462
472
492
518
545
570
588
596
593
579
553
520
483
445
410
381
362
352
353
361
374
389
400
406
401
386
359
322
278
229
181
138
103
80
68
68
78
94
112
128
137
136
125
101
67
27
-18
-61
-98
-126
-143
-148
-141
-126
-105
-82
-63
-51
-48
-57
-77
-106
-141
-178
-213
-242
-261
-268
-263
-247
-224
-196
-170
-149
-137
-136
-147
-169
-199
-233
-266
-294
-314
-321
-317
-302
-277
-248
-218
-191
-171
-161
-161
-172
-192
-217
-245
-272
-293
-307
-310
-303
-285
-260
-230
-199
-171
-151
-140
-140
-152
-172
-199
-228
-255
-276
-287
-287
-276
-254
-226
-195
-166
-143
-130
-128
-137
-157
-183
-212
-240
-262
-275
-277
-267
-247
-220
-188
-156
-127
-105
-93
-92
-101
-119
-144
-173
-200
-224
-239
-244
-238
-221
-196
-165
-133
-105
-84
-73
-75
-88
-111
-141
-173
-202
-224
-236
-236
-224
-202
-174
-142
-112
-88
-73
-68
-74
-90
-114
-141
-168
-191
-206
-211
-205
-188
-162
-129
-94
-63
-38
-23
-21
-32
-55
-86
-121
-156
-185
-205
-212
-206
-189
-162
-130
-98
-69
-50
-41
-44
-59
-84
-116
-149
-180
-205
-220
-223
-214
-195
-167
-135
-102
-75
-56
-48
-53
-69
-95
-127
-160
-190
-212
-223
-221
-208
-185
-157
-127
-99
-80
-70
-72
-85
-108
-136
-167
-194
-215
-227
-229
-219
-201
-176
-149
-124
-105
-95
-96
-108
-131
-161
-195
-229
-257
-277
-285
-281
-264
-238
-204
-169
-137
-112
-98
-97
-109
-132
-165
-202
-238
-269
-291
-300
-296
-279
-251
-218
-184
-155
-133
-124
-127
-143
-169
-201
-234
-263
-284
-294
-292
-277
-252
-221
-188
-157
-133
-118
-115
-123
-142
-169
-201
-233
-261
-283
-294
-294
-283
-262
-235
-205
-177
-153
-139
-135
-142
-158
-182
-210
-237
-258
-272
-275
-267
-248
-222
-193
-164
-140
-124
-120
-127
-145
-172
-204
-237
-266
-287
-298
-298
-286
-264
-235
-203
-172
-145
-126
-116
-117
-127
-146
-171
-197
-222
-242
-254
-258
-251
-236
-215
-190
-166
-145
-130
-125
-130
-143
-164
-190
-217
-240
-258
-266
-264
-251
-229
-201
-170
-141
-116
-101
-97
-104
-123
-150
-181
-213
-240
-258
-264
-258
-240
-211
-178
-144
-114
-94
-85
-90
-107
-134
-166
-199
-228
-248
-256
-252
-236
-209
-177
-141
-108
-80
-59
-48
-46
-52
-64
-79
-92
-102
-104
-98
-82
-57
-24
14
54
91
122
144
153
151
136
111
81
48
20
1
-7
0
21
55
97
142
185
220
245
255
253
239
218
194
174
160
156
163
180
205
235
264
289
306
312
307
291
266
235
203
173
150
137
134
144
165
194
227
259
286
304
309
299
276
242
199
155
113
80
58
50
57
75
101
130
156
175
181
173
151
116
71
22
-28
-72
-107
-131
-141
-139
-127
-109
-89
-73
-64
-66
-80
-107
-145
-190
-238
-285
-325
-355
-372
-376
-366
-346
-318
-288
-260
-237
-223
-220
-227
-243
-267
-294
-320
-342
-356
-362
-358
-345
-325
-301
-277
-256
-241
-234
-236
-247
-266
-289
-314
-338
-357
-371
-377
-376
-368
-355
-339
-321
-302
-283
-262
-238
-208
-167
-112
-38
59
181
330
508
714
949
1211
1498
1807
2137
2483
2844
3213
3589
3966
4338
4702
5051
5378
5676
5936
6148
6302
6384
6384
6292
6102
5812
5426
4957
4422
3846
3257
2684
2155
1693
1314
1026
827
707
649
632
636
641
631
597
536
450
347
237
130
36
-37
-87
-113
-119
-111
-96
-83
-76
-83
-105
-143
-194
-255
-321
-386
-444
-491
-525
-543
-548
-540
-525
-507
-490
-478
-476
-485
-505
-535
-572
-612
-650
-682
-704
-714
-710
-695
-670
-640
-610
-585
-568
-563
-569
-588
-615
-647
-679
-706
-725
-731
-725
-706
-678
-643
-606
-572
-546
-531
-528
-538
-560
-590
-625
-659
-688
-709
-719
-715
-698
-671
-636
-598
-562
-533
-514
-508
-515
-535
-564
-598
-632
-661
-681
-689
-684
-667
-640
-608
-574
-544
-522
-511
-511
-524
-545
-573
-602
-628
-647
-656
-654
-640
-616
-586
-553
-522
-495
-478
-471
-474
-488
-509
-535
-561
-583
-599
-605
-602
-588
-565
-537
-508
-480
-458
-445
-441
-448
-464
-485
-510
-532
-549
-557
-554
-540
-515
-483
-448
-413
-383
-363
-353
-356
-370
-393
-421
-450
-475
-492
-498
-491
-471
-441
-402
-360
-319
-284
-259
-247
-249
-263
-288
-318
-348
-372
-385
-385
-368
-336
-291
-238
-183
-131
-89
-59
-44
-44
-56
-76
-100
-121
-135
-138
-128
-105
-70
-27
20
67
110
144
168
181
183
176
163
148
136
130
133
147
172
207
250
296
343
384
417
439
448
446
434
415
396
380
372
375
390
417
453
495
538
576
606
624
628
620
602
577
550
525
507
499
501
515
538
566
595
622
643
655
655
644
623
593
558
522
489
462
444
436
438
448
465
484
501
513
516
507
487
456
416
372
326
285
250
225
212
210
216
228
242
254
259
254
238
211
174
130
82
36
-4
-35
-53
-58
-50
-34
-11
12
30
40
39
24
-3
-40
-82
-126
-165
-195
-214
-221
-214
-198
-175
-151
-129
-115
-110
-117
-134
-160
-192
-225
-257
-282
-298
-303
-297
-280
-256
-228
-198
-173
-154
-144
-146
-160
-183
-214
-249
-283
-312
-332
-340
-334
-316
-287
-251
-213
-179
-152
-137
-135
-147
-170
-201
-235
-267
-292
-307
-309
-299
-277
-247
-213
-182
-156
-139
-134
-142
-159
-185
-215
-243
-267
-282
-286
-279
-260
-234
-202
-170
-142
-121
-110
-110
-121
-141
-167
-194
-219
-238
-248
-247
-236
-215
-188
-158
-129
-106
-91
-87
-93
-110
-134
-162
-190
-215
-232
-241
-239
-227
-206
-180
-150
-121
-97
-80
-72
-75
-87
-108
-135
-164
-191
-212
-224
-224
-213
-190
-159
-124
-89
-59
-38
-30
-34
-51
-78
-110
-143
-171
-191
-199
-194
-178
-153
-123
-93
-67
-49
-41
-45
-60
-82
-110
-137
-162
-179
-187
-185
-173
-153
-127
-100
-75
-55
-43
-40
-48
-64
-87
-114
-141
-164
-181
-188
-186
-174
-153
-128
-101
-76
-58
-50
-53
-69
-95
-128
-165
-200
-229
-248
-254
-246
-225
-194
-158
-120
-87
-63
-51
-53
-68
-94
-127
-163
-196
-223
-239
-243
-235
-215
-188
-158
-127
-102
-86
-80
-87
-104
-129
-160
-191
-218
-237
-246
-243
-228
-205
-176
-146
-118
-98
-88
-90
-103
-127
-158
-193
-226
-254
-272
-278
-272
-253
-224
-190
-153
-120
-95
-81
-80
-92
-115
-147
-183
-217
-245
-263
-268
-261
-241
-213
-181
-149
-122
-104
-98
-105
-123
-150
-183
-217
-248
-272
-285
-288
-278
-257
-229
-197
-165
-138
-119
-112
-117
-134
-159
-191
-224
-253
-273
-283
-280
-264
-238
-206
-173
-142
-120
-109
-111
-124
-148
-178
-210
-239
-260
-272
-272
-261
-240
-213
-183
-156
-133
-120
-117
-124
-141
-165
-192
-220
-244
-261
-270
-268
-256
-236
-211
-184
-159
-140
-128
-127
-135
-153
-176
-202
-227
-247
-258
-259
-250
-230
-202
-171
-140
-112
-93
-84
-86
-100
-122
-150
-180
-207
-226
-236
-234
-219
-195
-163
-127
-92
-61
-38
-24
-20
-24
-34
-47
-60
-69
-72
-68
-55
-34
-8
23
54
83
106
122
128
125
112
92
67
41
20
5
2
11
34
68
110
157
203
242
271
286
287
273
249
218
185
157
137
130
136
154
182
216
250
279
299
306
299
280
251
216
182
153
133
124
129
145
170
200
230
254
270
275
267
248
220
186
150
116
88
68
58
58
67
82
99
115
127
130
123
105
77
40
-1
-44
-84
-117
-141
-153
-154
-146
-130
-112
-96
-86
-85
-96
-119
-153
-195
-241
-286
-325
-353
-368
-368
-354
-327
-293
-255
-219
-190
-171
-166
-174
-194
-223
-255
-288
-315
-333
-339
-334
-318
-294
-265
-237
-212
-195
-188
-191
-204
-225
-251
-279
-305
-327
-342
-350
-349
-339
-322
-298
-267
-229
-186
-136
-78
-12
65
155
261
384
529
698
893
1117
1371
1654
1963
2297
2650
3015
3387
3759
4123
4474
4806
5114
5393
5637
5839
5992
6087
6114
6063
5926
5698
5379
4976
4499
3968
3408
2844
2304
1815
1396
1061
814
653
564
531
535
553
568
566
539
484
405
309
206
105
17
-54
-103
-130
-139
-135
-123
-111
-103
-106
-120
-148
-189
-240
-297
-358
-417
-470
-513
-544
-561
-564
-555
-537
-514
-491
-472
-460
-459
-470
-492
-522
-556
-591
-620
-641
-651
-647
-631
-606
-574
-541
-511
-490
-480
-484
-499
-526
-560
-597
-631
-660
-679
-686
-680
-664
-640
-612
-582
-557
-538
-529
-530
-541
-561
-585
-611
-635
-652
-660
-657
-642
-619
-588
-555
-523
-498
-482
-479
-488
-509
-538
-571
-602
-628
-644
-647
-637
-615
-585
-550
-517
-489
-471
-465
-473
-493
-522
-555
-589
-617
-636
-642
-635
-615
-584
-547
-508
-472
-443
-426
-422
-431
-452
-481
-513
-544
-570
-586
-590
-581
-561
-532
-497
-461
-427
-401
-384
-379
-386
-403
-428
-457
-487
-512
-529
-534
-528
-510
-481
-446
-409
-374
-346
-328
-323
-331
-349
-375
-403
-429
-447
-453
-445
-424
-391
-350
-305
-263
-228
-204
-194
-198
-213
-237
-265
-292
-312
-322
-320
-304
-276
-239
-196
-151
-109
-74
-48
-33
-29
-34
-45
-60
-74
-83
-84
-75
-54
-22
18
64
111
155
191
217
230
230
221
205
187
173
166
171
188
218
259
305
353
397
433
457
468
466
453
433
409
387
371
364
367
383
408
442
481
520
557
586
605
614
611
599
579
556
533
514
504
502
511
530
555
583
609
631
643
643
631
608
575
537
497
461
431
412
403
407
419
438
460
480
493
498
490
469
437
396
349
302
258
221
196
182
180
188
201
215
227
231
225
208
179
141
97
51
7
-31
-59
-76
-82
-78
-65
-48
-30
-16
-7
-7
-18
-37
-65
-97
-132
-164
-190
-207
-213
-208
-193
-172
-147
-124
-106
-97
-99
-112
-136
-167
-202
-236
-264
-283
-290
-285
-268
-242
-211
-179
-151
-130
-119
-120
-132
-153
-181
-210
-238
-261
-275
-278
-270
-253
-228
-199
-169
-143
-124
-115
-116
-128
-149
-176
-205
-233
-255
-269
-272
-264
-246
-221
-193
-165
-141
-126
-120
-126
-142
-166
-196
-226
-252
-271
-279
-274
-257
-230
-196
-160
-125
-98
-81
-77
-86
-107
-137
-171
-205
-234
-253
-260
-254
-237
-210
-177
-143
-113
-90
-77
-75
-84
-103
-128
-156
-183
-206
-221
-226
-221
-205
-181
-151
-120
-91
-68
-55
-53
-63
-84
-112
-145
-177
-203
-220
-224
-216
-195
-166
-132
-99
-72
-53
-47
-54
-72
-98
-128
-159
-184
-200
-205
-197
-179
-151
-119
-85
-56
-34
-23
-24
-37
-60
-90
-124
-156
-182
-198
-203
-196
-178
-152
-123
-94
-70
-55
-50
-58
-76
-102
-133
-165
-191
-210
-219
-215
-200
-175
-143
-109
-78
-53
-39
-37
-49
-72
-105
-142
-180
-212
-236
-247
-244
-228
-201
-169
-135
-105
-83
-74
-79
-97
-125
-160
-197
-231
-256
-270
-272
-260
-238
-208
-175
-144
-119
-102
-97
-103
-119
-144
-173
-202
-227
-246
-255
-253
-241
-221
-195
-168
-143
-124
-114
-115
-126
-146
-173
-203
-232
-256
-271
-276
-270
-254
-230
-202
-174
-149
-132
-124
-127
-141
-163
-190
-218
-242
-259
-266
-261
-245
-220
-189
-157
-126
-102
-88
-86
-96
-116
-145
-178
-211
-241
-262
-274
-275
-264
-245
-218
-189
-161
-139
-126
-123
-131
-150
-177
-207
-237
-263
-280
-285
-278
-259
-231
-197
-162
-131
-108
-96
-98
-113
-138
-172
-208
-242
-270
-287
-291
-283
-262
-232
-199
-165
-137
-119
-112
-119
-138
-166
-200
-235
-265
-287
-298
-296
-281
-256
-223
-188
-155
-129
-113
-110
-119
-138
-167
-199
-230
-256
-272
-277
-270
-252
-225
-194
-162
-136
-118
-111
-116
-132
-157
-187
-218
-246
-265
-275
-272
-258
-234
-203
-168
-134
-105
-83
-71
-70
-78
-93
-113
-133
-149
-159
-158
-145
-122
-89
-50
-8
33
67
93
108
111
103
88
67
45
25
12
7
12
27
50
78
109
138
163
181
190
189
180
165
146
129
115
110
114
129
154
187
224
261
292
314
325
321
304
276
241
203
167
139
122
118
128
151
182
218
254
284
304
312
307
288
258
222
183
146
117
97
90
96
113
137
165
191
210
220
216
198
168
128
82
36
-5
-36
-55
-60
-52
-34
-10
14
34
44
40
22
-10
-54
-105
-159
-210
-252
-283
-300
-302
-291
-270
-245
-219
-198
-186
-185
-195
-216
-244
-276
-307
-333
-350
-356
-350
-332
-306
-275
-244
-216
-196
-187
-190
-206
-232
-265
-301
-336
-365
-384
-390
-384
-365
-337
-304
-272
-246
-232
-232
-246
-273
-309
-345
-375
-389
-379
-341
-270
-167
-34
124
301
491
689
894
1103
1321
1552
1801
2074
2376
2709
3073
3463
3873
4291
4706
5103
5469
5790
6052
6244
6356
6381
6313
6153
5901
5567
5160
4696
4195
3678
3167
2683
2244
1862
1545
1293
1102
960
857
777
709
644
575
501
423
345
272
208
156
116
87
65
45
23
-7
-45
-92
-146
-203
-260
-311
-352
-383
-401
-409
-408
-404
-399
-399
-406
-422
-447
-482
-522
-564
-605
-640
-666
-680
-681
-670
-650
-623
-594
-568
-549
-540
-544
-560
-586
-620
-657
-691
-719
-737
-741
-732
-710
-680
-646
-613
-585
-568
-564
-573
-594
-624
-658
-692
-719
-735
-738
-727
-703
-670
-631
-593
-560
-537
-526
-529
-545
-572
-605
-640
-673
-699
-714
-716
-707
-685
-656
-622
-587
-557
-535
-524
-524
-537
-559
-589
-621
-650
-674
-688
-690
-679
-656
-625
-590
-555
-524
-503
-493
-496
-512
-538
-571
-605
-636
-659
-671
-669
-653
-626
-590
-552
-516
-486
-468
-462
-471
-491
-520
-553
-585
-611
-627
-630
-620
-597
-565
-527
-489
-455
-429
-413
-410
-419
-437
-462
-490
-515
-534
-543
-541
-527
-502
-470
-434
-398
-366
-343
-331
-330
-341
-360
-384
-409
-431
-445
-449
-441
-422
-393
-357
-318
-281
-250
-226
-213
-209
-214
-226
-240
-253
-262
-262
-253
-235
-206
-171
-132
-92
-54
-23
-1
12
14
9
-3
-17
-29
-37
-35
-24
0
34
76
124
172
218
256
283
300
304
299
287
273
260
253
255
268
292
325
365
408
448
482
506
518
517
504
482
456
429
407
394
392
402
425
457
494
532
566
592
607
609
598
578
550
519
489
464
448
441
444
456
474
494
513
527
532
527
511
483
448
408
367
329
299
278
268
269
277
290
304
314
317
309
289
259
218
172
124
79
40
11
-7
-12
-7
7
25
44
59
66
64
51
26
-9
-51
-97
-141
-180
-210
-229
-237
-232
-218
-197
-174
-152
-137
-130
-134
-149
-173
-203
-235
-265
-288
-302
-303
-293
-273
-245
-214
-184
-161
-147
-145
-156
-178
-208
-243
-277
-307
-327
-336
-332
-317
-293
-264
-234
-207
-188
-178
-179
-191
-211
-237
-265
-291
-311
-323
-325
-316
-298
-273
-245
-216
-191
-174
-167
-171
-186
-210
-240
-273
-302
-325
-337
-337
-324
-299
-266
-230
-195
-166
-148
-142
-150
-170
-200
-234
-269
-298
-318
-326
-320
-302
-274
-240
-204
-172
-148
-134
-132
-143
-165
-194
-226
-257
-282
-297
-302
-294
-275
-247
-215
-183
-154
-134
-123
-125
-138
-160
-188
-217
-244
-263
-273
-271
-258
-234
-204
-171
-139
-113
-97
-93
-100
-120
-147
-180
-212
-240
-260
-269
-265
-250
-225
-194
-161
-131
-108
-95
-94
-104
-124
-151
-180
-209
-232
-247
-252
-246
-231
-208
-182
-156
-133
-117
-111
-115
-129
-151
-179
-208
-235
-255
-266
-265
-252
-229
-198
-163
-129
-101
-82
-76
-83
-103
-133
-169
-205
-238
-261
-273
-270
-255
-229
-195
-159
-125
-99
-84
-82
-93
-117
-149
-185
-221
-252
-274
-284
-280
-264
-236
-202
-166
-131
-104
-88
-84
-93
-113
-142
-174
-206
-233
-251
-258
-253
-238
-215
-188
-162
-139
-124
-120
-126
-143
-167
-197
-228
-256
-277
-288
-289
-278
-259
-233
-204
-178
-157
-144
-143
-152
-172
-198
-228
-257
-281
-297
-302
-295
-278
-253
-224
-194
-168
-150
-144
-149
-165
-192
-225
-259
-291
-315
-328
-328
-315
-291
-258
-222
-188
-160
-143
-139
-148
-169
-200
-234
-268
-297
-316
-323
-317
-300
-273
-240
-207
-178
-156
-145
-145
-157
-178
-206
-236
-265
-288
-302
-306
-299
-282
-256
-226
-195
-168
-147
-137
-138
-151
-173
-203
-236
-267
-292
-308
-311
-303
-282
-253
-220
-187
-159
-141
-136
-144
-165
-196
-233
-270
-302
-324
-334
-329
-310
-281
-245
-207
-173
-147
-134
-134
-148
-174
-207
-242
-276
-302
-317
-319
-309
-287
-256
-222
-189
-163
-146
-141
-149
-169
-198
-231
-265
-293
-313
-322
-317
-300
-273
-239
-203
-169
-142
-124
-118
-124
-141
-165
-192
-220
-242
-255
-258
-248
-226
-194
-156
-115
-75
-41
-16
-2
2
-4
-18
-36
-55
-70
-79
-78
-67
-46
-17
17
52
84
109
124
127
119
102
78
54
32
19
17
27
51
85
126
170
211
244
267
277
274
259
236
208
180
155
137
129
130
141
160
182
206
227
243
251
249
238
220
198
174
153
138
131
133
145
163
186
209
228
240
242
234
216
189
157
122
90
62
41
28
24
28
37
48
59
68
70
66
53
33
4
-29
-65
-101
-133
-159
-177
-186
-185
-177
-164
-149
-138
-133
-137
-153
-179
-214
-255
-298
-337
-369
-390
-397
-391
-374
-347
-317
-286
-260
-241
-233
-235
-246
-266
-290
-316
-340
-360
-372
-377
-373
-361
-343
-321
-298
-278
-262
-254
-255
-266
-287
-316
-351
-387
-420
-446
-461
-462
-448
-416
-367
-303
-226
-138
-40
66
181
306
443
598
773
975
1208
1475
1777
2114
2484
2880
3295
3718
4140
4550
4937
5291
5605
5872
6085
6239
6329
6350
6297
6165
5950
5654
5280
4836
4338
3803
3255
2719
2219
1775
1403
1111
899
761
684
650
642
641
632
607
558
488
398
296
190
87
-6
-85
-146
-189
-216
-228
-230
-225
-219
-215
-219
-232
-257
-294
-341
-397
-457
-517
-572
-618
-651
-670
-676
-669
-653
-633
-612
-595
-585
-584
-594
-612
-638
-668
-698
-724
-743
-753
-752
-739
-717
-687
-655
-625
-600
-585
-583
-592
-613
-643
-677
-710
-738
-755
-761
-753
-733
-704
-669
-635
-606
-586
-578
-583
-600
-627
-660
-694
-724
-746
-757
-756
-742
-718
-687
-654
-622
-596
-579
-572
-577
-592
-615
-642
-670
-694
-711
-719
-716
-704
-682
-655
-626
-597
-574
-559
-554
-560
-575
-598
-624
-651
-673
-688
-693
-686
-670
-645
-615
-585
-559
-539
-530
-531
-543
-563
-588
-614
-637
-653
-660
-656
-641
-618
-588
-555
-524
-498
-481
-475
-481
-497
-522
-551
-582
-609
-628
-637
-633
-616
-589
-553
-513
-473
-439
-413
-399
-398
-410
-432
-460
-489
-516
-533
-539
-530
-507
-471
-426
-377
-330
-290
-261
-247
-248
-263
-287
-316
-343
-363
-372
-367
-346
-312
-267
-218
-168
-124
-89
-66
-57
-60
-72
-91
-111
-127
-136
-135
-122
-97
-62
-19
28
74
116
149
172
183
184
176
163
150
140
137
145
164
194
233
276
321
362
397
421
433
434
426
410
392
374
362
357
362
378
403
435
471
507
538
562
576
578
570
552
527
500
474
453
441
439
448
467
494
525
555
581
597
602
592
568
532
489
443
399
363
339
328
332
347
370
395
417
431
432
419
392
353
307
257
210
170
140
122
116
121
132
147
160
167
167
156
134
102
63
20
-23
-63
-96
-119
-131
-132
-125
-111
-95
-81
-72
-71
-80
-99
-127
-160
-197
-231
-261
-283
-295
-296
-287
-269
-246
-221
-197
-177
-166
-164
-173
-191
-219
-251
-285
-317
-342
-358
-362
-353
-333
-305
-272
-240
-213
-195
-190
-197
-216
-245
-278
-313
-342
-363
-372
-368
-352
-325
-293
-259
-228
-206
-193
-194
-206
-230
-260
-293
-325
-350
-365
-368
-359
-339
-310
-277
-244
-216
-196
-187
-190
-204
-226
-253
-279
-302
-317
-321
-315
-298
-273
-244
-214
-189
-170
-162
-164
-177
-198
-225
-253
-278
-297
-306
-304
-290
-266
-236
-202
-171
-145
-129
-126
-135
-156
-186
-221
-256
-286
-307
-315
-310
-291
-261
-224
-186
-151
-123
-107
-105
-115
-136
-165
-197
-227
-250
-265
-267
-259
-240
-215
-186
-158
-135
-120
-115
-121
-135
-157
-183
-210
-233
-251
-260
-259
-249
-229
-203
-174
-146
-122
-106
-100
-105
-121
-146
-176
-207
-235
-256
-267
-266
-254
-232
-204
-174
-146
-125
-114
-114
-126
-147
-174
-203
-230
-251
-263
-263
-252
-230
-202
-169
-137
-111
-93
-87
-94
-113
-142
-177
-214
-248
-275
-291
-295
-285
-265
-236
-204
-172
-147
-130
-125
-132
-150
-176
-206
-236
-262
-281
-290
-287
-275
-254
-228
-199
-174
-154
-142
-142
-151
-171
-197
-227
-257
-282
-300
-307
-304
-289
-266
-237
-208
-182
-163
-155
-158
-173
-198
-229
-262
-293
-317
-331
-333
-324
-303
-275
-243
-212
-185
-167
-159
-162
-175
-196
-223
-251
-276
-296
-307
-308
-300
-282
-257
-230
-202
-179
-164
-157
-162
-176
-198
-226
-254
-280
-299
-309
-308
-296
-275
-248
-218
-190
-168
-155
-153
-162
-181
-208
-238
-268
-294
-311
-318
-313
-298
-274
-244
-213
-185
-164
-153
-153
-166
-189
-218
-250
-280
-304
-316
-316
-303
-278
-244
-208
-174
-148
-134
-135
-150
-178
-216
-257
-296
-326
-344
-347
-334
-308
-271
-230
-189
-155
-131
-121
-124
-141
-167
-200
-234
-264
-287
-300
-301
-291
-270
-243
-212
-182
-158
-141
-136
-141
-157
-180
-208
-237
-262
-280
-289
-286
-273
-250
-222
-191
-162
-138
-124
-120
-127
-144
-169
-197
-226
-249
-264
-268
-259
-238
-207
-170
-130
-91
-59
-35
-21
-18
-23
-34
-48
-61
-70
-71
-62
-45
-19
12
47
81
110
130
140
138
124
100
71
39
11
-9
-18
-12
9
42
85
131
177
217
245
261
263
252
232
207
182
161
148
145
153
171
196
224
251
274
290
295
290
274
251
224
195
169
150
140
140
151
170
195
223
247
266
275
273
259
234
202
167
131
100
76
62
58
62
73
87
100
108
110
102
85
58
25
-13
-52
-88
-119
-142
-156
-161
-158
-148
-136
-124
-115
-113
-119
-135
-161
-193
-230
-269
-304
-333
-354
-363
-361
-349
-328
-302
-275
-250
-230
-219
-219
-228
-245
-269
-296
-321
-342
-354
-356
-348
-330
-305
-277
-249
-225
-209
-203
-208
-223
-247
-277
-309
-339
-366
-386
-397
-400
-392
-376
-351
-317
-275
-225
-166
-97
-17
76
185
313
462
635
837
1069
1333
1629
1957
2311
2688
3080
3478
3874
4261
4631
4978
5297
5583
5833
6040
6199
6299
6333
6289
6159
5936
5620
5214
4731
4189
3614
3033
2475
1968
1533
1184
925
754
658
619
618
632
644
638
608
549
466
364
255
147
50
-30
-88
-124
-141
-142
-133
-121
-112
-111
-122
-147
-185
-235
-294
-357
-420
-477
-523
-557
-576
-580
-571
-554
-533
-511
-496
-489
-493
-508
-534
-566
-601
-635
-664
-684
-693
-691
-678
-657
-631
-604
-579
-560
-551
-551
-563
-584
-611
-643
-673
-698
-716
-723
-718
-702
-677
-647
-615
-586
-564
-551
-551
-561
-582
-610
-641
-670
-694
-709
-713
-704
-684
-656
-623
-589
-561
-541
-534
-540
-558
-587
-621
-656
-686
-706
-712
-705
-683
-650
-611
-571
-536
-510
-497
-497
-511
-535
-566
-598
-626
-647
-657
-655
-641
-618
-588
-557
-528
-505
-492
-490
-500
-519
-546
-576
-604
-626
-640
-641
-631
-608
-577
-539
-501
-466
-439
-422
-417
-423
-440
-464
-492
-519
-541
-555
-558
-550
-532
-505
-472
-438
-406
-381
-363
-357
-360
-374
-394
-419
-443
-462
-475
-477
-468
-448
-418
-382
-343
-305
-273
-250
-238
-238
-249
-268
-291
-314
-332
-340
-336
-318
-288
-247
-200
-151
-107
-71
-46
-35
-37
-50
-70
-91
-109
-118
-116
-99
-69
-28
22
74
125
169
202
223
230
226
212
195
178
166
163
171
193
225
267
314
362
407
444
472
487
492
486
473
456
439
426
421
424
439
463
495
532
571
606
635
653
660
655
640
617
590
564
543
531
530
541
561
589
619
647
669
681
680
666
640
606
567
528
492
464
446
439
442
454
470
489
505
514
513
502
478
444
402
355
308
266
231
207
194
193
200
214
229
240
243
236
216
185
143
94
44
-4
-44
-73
-88
-90
-79
-61
-38
-16
-1
4
-3
-23
-55
-95
-138
-181
-217
-242
-255
-255
-243
-221
-194
-166
-141
-125
-119
-124
-141
-167
-198
-232
-264
-290
-306
-311
-305
-288
-262
-232
-200
-172
-151
-141
-143
-156
-178
-208
-239
-268
-290
-302
-301
-288
-263
-232
-196
-163
-136
-119
-116
-125
-147
-179
-215
-251
-282
-305
-315
-311
-295
-269
-237
-203
-172
-149
-136
-137
-149
-173
-204
-238
-271
-298
-315
-319
-311
-290
-260
-224
-187
-154
-128
-115
-114
-127
-151
-182
-217
-250
-276
-292
-296
-287
-267
-239
-207
-176
-150
-133
-127
-132
-147
-170
-197
-222
-244
-258
-263
-258
-244
-223
-198
-173
-150
-133
-124
-124
-134
-151
-173
-197
-219
-236
-244
-242
-230
-208
-179
-148
-117
-91
-74
-68
-74
-90
-113
-141
-169
-192
-209
-215
-210
-196
-174
-147
-119
-93
-73
-61
-58
-66
-82
-105
-131
-158
-183
-200
-210
-208
-197
-177
-151
-122
-95
-73
-60
-58
-68
-88
-115
-147
-178
-204
-222
-229
-224
-208
-184
-156
-127
-102
-84
-77
-82
-98
-124
-156
-189
-221
-246
-261
-264
-256
-238
-212
-183
-155
-133
-118
-115
-122
-138
-162
-189
-216
-239
-254
-261
-258
-246
-227
-204
-181
-160
-145
-137
-139
-149
-167
-191
-217
-243
-266
-282
-289
-287
-275
-255
-230
-203
-177
-156
-143
-141
-149
-167
-192
-220
-247
-270
-284
-288
-279
-260
-233
-202
-171
-145
-127
-122
-128
-147
-174
-207
-240
-270
-291
-301
-298
-283
-257
-225
-190
-158
-132
-117
-115
-126
-148
-179
-215
-250
-280
-301
-309
-304
-286
-259
-225
-190
-160
-139
-131
-136
-154
-183
-218
-253
-285
-307
-317
-314
-299
-273
-241
-207
-177
-154
-141
-140
-152
-173
-202
-235
-266
-294
-312
-321
-318
-304
-281
-252
-221
-192
-169
-156
-153
-161
-179
-204
-233
-262
-286
-302
-307
-302
-286
-263
-235
-206
-181
-164
-157
-161
-176
-201
-231
-263
-292
-314
-325
-324
-310
-284
-251
-215
-179
-150
-131
-125
-131
-149
-176
-208
-240
-268
-288
-298
-295
-282
-259
-231
-200
-171
-148
-132
-127
-132
-146
-167
-192
-217
-237
-250
-252
-241
-218
-185
-144
-99
-56
-19
8
22
23
12
-8
-33
-58
-78
-88
-85
-69
-42
-6
35
73
106
127
135
128
109
82
50
19
-5
-18
-17
-1
28
67
112
158
199
232
252
259
253
235
210
180
152
129
115
111
118
135
159
187
215
239
254
260
255
239
216
188
158
132
112
101
100
109
126
148
171
192
207
214
210
197
175
146
114
82
53
29
12
4
2
6
13
21
26
27
21
7
-15
-43
-76
-110
-144
-173
-196
-211
-217
-215
-207
-195
-183
-174
-172
-178
-194
-220
-253
-291
-330
-365
-392
-409
-414
-406
-387
-359
-326
-293
-264
-242
-232
-233
-246
-270
-301
-334
-366
-392
-409
-414
-406
-387
-358
-324
-290
-260
-239
-231
-237
-258
-290
-331
-375
-415
-445
-460
-456
-430
-381
-311
-222
-119
-6
114
238
366
499
641
796
972
1176
1413
1687
2001
2352
2735
3142
3564
3987
4399
4789
5146
5461
5727
5939
6091
6178
6196
6140
6007
5795
5503
5137
4705
4220
3700
3167
2643
2150
1706
1327
1019
786
622
519
463
439
433
432
427
410
380
335
278
213
142
71
3
-59
-114
-159
-195
-221
-238
-249
-254
-258
-262
-270
-285
-307
-339
-378
-424
-473
-520
-563
-598
-621
-631
-629
-616
-595
-571
-549
-532
-524
-528
-543
-568
-600
-635
-669
-698
-717
-724
-718
-701
-675
-644
-612
-585
-565
-556
-558
-573
-597
-627
-660
-691
-715
-730
-733
-725
-706
-680
-650
-620
-594
-577
-571
-576
-591
-615
-643
-672
-696
-712
-717
-710
-692
-665
-632
-599
-568
-545
-532
-530
-540
-560
-586
-616
-643
-665
-677
-678
-667
-644
-613
-578
-542
-511
-490
-481
-486
-505
-534
-571
-609
-643
-669
-682
-681
-665
-637
-601
-561
-523
-492
-471
-464
-470
-487
-512
-542
-572
-598
-615
-622
-617
-602
-578
-548
-515
-484
-458
-440
-432
-435
-447
-468
-493
-519
-543
-560
-568
-564
-549
-524
-492
-456
-420
-390
-369
-358
-359
-371
-391
-415
-439
-458
-468
-467
-453
-427
-393
-353
-313
-277
-249
-233
-228
-235
-251
-271
-292
-309
-317
-313
-296
-266
-225
-178
-128
-81
-41
-12
4
7
-2
-18
-40
-60
-75
-81
-75
-56
-25
18
66
118
167
209
242
262
270
266
255
239
224
214
213
223
245
278
320
366
413
454
486
507
515
510
495
474
452
432
419
416
426
446
476
512
551
586
615
633
639
633
616
591
562
533
510
494
489
495
510
533
560
586
608
622
625
616
595
564
526
484
444
408
381
364
359
364
377
395
413
427
433
428
410
379
338
291
241
194
153
122
102
95
98
109
123
137
146
147
138
118
88
49
6
-37
-77
-110
-133
-144
-144
-134
-116
-96
-77
-63
-57
-62
-78
-104
-138
-174
-210
-241
-263
-273
-272
-260
-239
-212
-185
-161
-144
-136
-140
-154
-177
-206
-238
-268
-292
-308
-314
-308
-293
-270
-243
-216
-192
-176
-170
-175
-191
-217
-248
-282
-313
-337
-350
-351
-340
-317
-286
-252
-220
-194
-178
-174
-183
-203
-230
-261
-290
-313
-326
-327
-316
-295
-265
-232
-199
-171
-152
-143
-146
-160
-183
-212
-242
-269
-290
-301
-301
-290
-268
-239
-206
-175
-148
-131
-125
-131
-149
-177
-210
-243
-273
-295
-305
-303
-289
-264
-232
-198
-165
-138
-121
-115
-121
-137
-160
-188
-215
-237
-252
-258
-252
-237
-214
-187
-160
-137
-121
-116
-121
-136
-160
-188
-217
-242
-259
-265
-260
-244
-217
-185
-150
-117
-91
-73
-67
-73
-90
-114
-144
-174
-201
-221
-232
-232
-221
-201
-175
-145
-117
-95
-81
-77
-85
-103
-129
-159
-190
-216
-234
-241
-237
-223
-199
-171
-141
-114
-94
-85
-86
-99
-122
-151
-182
-212
-236
-252
-256
-249
-231
-206
-176
-148
-124
-108
-104
-112
-130
-158
-190
-222
-251
-272
-282
-280
-267
-245
-217
-188
-161
-141
-132
-134
-148
-172
-203
-237
-268
-294
-310
-314
-305
-284
-254
-220
-186
-156
-134
-125
-127
-142
-166
-197
-230
-260
-283
-296
-297
-286
-264
-235
-203
-171
-144
-126
-119
-125
-143
-170
-204
-240
-272
-298
-312
-315
-304
-282
-252
-219
-187
-161
-145
-141
-149
-168
-196
-228
-259
-286
-305
-313
-309
-294
-270
-241
-210
-181
-158
-145
-142
-150
-168
-193
-223
-252
-279
-298
-309
-309
-298
-280
-255
-228
-204
-185
-175
-176
-187
-207
-233
-261
-288
-308
-319
-320
-310
-290
-265
-237
-211
-191
-180
-180
-191
-211
-237
-266
-293
-314
-326
-326
-315
-292
-262
-228
-193
-164
-143
-134
-138
-155
-181
-215
-251
-284
-309
-323
-325
-314
-291
-261
-227
-194
-168
-152
-148
-158
-179
-209
-244
-279
-308
-328
-336
-330
-312
-283
-247
-210
-175
-149
-134
-131
-142
-165
-195
-229
-262
-289
-307
-313
-307
-290
-265
-234
-202
-174
-153
-142
-141
-151
-170
-196
-223
-249
-269
-279
-278
-265
-240
-206
-165
-123
-84
-51
-28
-16
-16
-24
-40
-58
-74
-84
-85
-76
-56
-27
8
45
79
106
123
127
119
99
71
40
9
-14
-27
-26
-10
19
59
105
152
195
230
252
260
255
239
216
189
163
143
131
129
137
153
176
202
228
250
265
272
269
257
236
211
183
157
135
121
115
119
132
151
174
197
216
228
230
222
204
177
145
111
79
52
32
22
19
25
35
46
56
62
60
49
29
1
-33
-71
-108
-142
-169
-187
-195
-194
-184
-170
-155
-142
-137
-141
-157
-183
-218
-259
-301
-340
-371
-390
-396
-388
-369
-341
-309
-277
-250
-232
-226
-231
-248
-273
-303
-334
-362
-382
-393
-392
-381
-361
-334
-305
-278
-256
-242
-238
-246
-263
-288
-320
-354
-387
-416
-438
-450
-450
-437
-409
-368
-313
-246
-167
-78
21
129
249
382
532
702
899
1126
1387
1684
2016
2380
2771
3181
3600
4018
4424
4809
5165
5484
5761
5990
6167
6286
6341
6325
6231
6055
5795
5450
5030
4545
4015
3463
2914
2393
1924
1526
1208
975
822
736
700
695
701
701
682
637
565
470
358
241
127
25
-59
-121
-162
-184
-190
-188
-182
-178
-179
-189
-209
-240
-281
-329
-382
-438
-492
-540
-581
-611
-629
-634
-629
-615
-596
-576
-560
-552
-553
-565
-588
-619
-653
-688
-717
-737
-746
-742
-727
-702
-671
-639
-611
-591
-581
-583
-596
-619
-649
-681
-711
-735
-750
-755
-748
-731
-706
-677
-648
-622
-604
-595
-598
-611
-633
-661
-690
-716
-736
-747
-746
-734
-712
-684
-652
-621
-596
-579
-574
-579
-596
-621
-650
-680
-706
-724
-731
-726
-709
-683
-650
-615
-582
-556
-541
-537
-545
-564
-590
-618
-646
-667
-680
-681
-670
-650
-621
-590
-559
-534
-517
-511
-517
-535
-562
-594
-627
-657
-679
-689
-687
-672
-645
-610
-571
-534
-502
-481
-473
-478
-496
-522
-554
-586
-613
-630
-634
-625
-604
-572
-535
-497
-463
-438
-423
-420
-429
-447
-471
-496
-518
-533
-538
-531
-512
-484
-448
-409
-371
-338
-315
-302
-301
-310
-328
-351
-374
-393
-404
-404
-391
-365
-329
-286
-240
-196
-157
-129
-112
-109
-116
-131
-151
-171
-185
-190
-183
-164
-131
-89
-40
11
59
100
130
149
155
151
141
128
116
110
114
128
154
190
232
278
324
363
395
415
423
420
408
390
371
355
344
343
353
373
403
439
477
514
545
566
575
572
558
535
506
478
453
436
430
436
454
480
513
546
577
599
610
608
592
565
529
488
447
411
384
368
364
371
387
407
427
442
448
441
422
390
349
301
251
205
166
138
122
118
124
137
153
168
177
178
167
145
113
73
28
-17
-57
-90
-112
-123
-122
-113
-97
-79
-63
-53
-51
-60
-79
-108
-142
-180
-216
-246
-268
-279
-278
-266
-245
-220
-194
-171
-156
-151
-157
-174
-200
-232
-266
-297
-321
-335
-338
-328
-309
-282
-253
-224
-201
-187
-184
-192
-211
-238
-269
-300
-326
-345
-354
-352
-339
-317
-289
-259
-231
-208
-194
-190
-196
-212
-236
-263
-292
-317
-335
-345
-343
-331
-309
-281
-251
-223
-200
-188
-188
-200
-224
-256
-292
-326
-355
-373
-377
-367
-343
-310
-271
-232
-198
-174
-164
-167
-184
-212
-246
-280
-310
-331
-339
-334
-316
-287
-252
-214
-180
-154
-138
-135
-145
-166
-194
-226
-257
-282
-298
-302
-295
-276
-248
-216
-182
-152
-130
-119
-119
-132
-155
-185
-218
-250
-274
-290
-293
-283
-262
-233
-199
-166
-138
-119
-111
-115
-130
-155
-184
-213
-238
-256
-263
-258
-243
-218
-188
-157
-129
-107
-96
-96
-107
-128
-156
-186
-215
-238
-252
-255
-247
-228
-202
-171
-141
-114
-95
-87
-91
-106
-130
-161
-195
-228
-254
-272
-277
-271
-253
-227
-196
-164
-136
-116
-107
-111
-128
-154
-186
-219
-250
-272
-284
-283
-269
-246
-215
-183
-154
-131
-119
-119
-131
-154
-184
-217
-249
-276
-293
-299
-293
-276
-249
-218
-186
-158
-137
-128
-131
-146
-172
-204
-239
-272
-297
-313
-315
-305
-284
-255
-223
-192
-168
-154
-151
-162
-182
-211
-242
-272
-296
-310
-313
-304
-284
-257
-226
-196
-171
-154
-149
-154
-170
-194
-222
-252
-278
-298
-308
-309
-299
-279
-253
-224
-194
-169
-151
-143
-146
-159
-182
-212
-245
-277
-303
-320
-326
-320
-301
-274
-240
-206
-176
-153
-142
-144
-157
-182
-213
-245
-275
-298
-310
-309
-296
-273
-244
-211
-182
-158
-145
-143
-153
-172
-199
-228
-256
-279
-293
-297
-289
-270
-244
-214
-183
-157
-138
-129
-132
-147
-171
-202
-236
-268
-293
-308
-311
-302
-281
-251
-217
-184
-156
-137
-130
-137
-156
-184
-218
-253
-284
-306
-318
-317
-304
-281
-251
-218
-187
-161
-145
-140
-146
-162
-186
-215
-244
-269
-288
-297
-294
-282
-260
-232
-202
-174
-151
-137
-133
-140
-156
-179
-206
-231
-251
-262
-262
-250
-226
-193
-154
-114
-75
-43
-20
-8
-7
-15
-29
-46
-62
-73
-75
-66
-47
-17
19
59
97
129
150
158
152
133
105
71
39
12
-2
-3
13
44
86
135
185
230
265
288
296
290
272
246
217
188
165
151
147
153
169
192
218
244
267
284
291
290
280
262
240
216
194
178
169
168
176
191
211
232
251
264
268
262
247
222
191
156
122
91
68
52
46
48
56
66
77
83
83
75
57
31
-1
-37
-73
-106
-133
-152
-162
-164
-159
-149
-139
-130
-127
-131
-144
-166
-196
-231
-268
-304
-335
-357
-369
-369
-358
-337
-311
-281
-253
-231
-218
-215
-223
-242
-268
-298
-328
-354
-372
-380
-376
-362
-339
-310
-280
-253
-232
-222
-223
-236
-259
-290
-326
-362
-394
-419
-434
-436
-426
-402
-365
-315
-254
-181
-98
-5
99
215
344
489
654
843
1061
1312
1597
1918
2274
2660
3069
3493
3921
4342
4744
5119
5456
5751
5997
6188
6321
6389
6387
6310
6151
5909
5584
5181
4712
4192
3645
3093
2563
2078
1657
1314
1054
873
763
708
690
690
691
680
649
595
518
424
319
212
111
21
-53
-110
-148
-171
-181
-181
-178
-174
-175
-183
-201
-230
-269
-318
-373
-430
-486
-535
-574
-600
-613
-613
-602
-583
-562
-544
-531
-528
-535
-552
-578
-610
-642
-671
-693
-706
-708
-699
-681
-658
-633
-609
-591
-582
-582
-591
-609
-633
-659
-684
-704
-717
-720
-714
-699
-676
-649
-621
-596
-577
-566
-565
-574
-592
-617
-644
-671
-694
-708
-712
-706
-688
-663
-632
-600
-572
-551
-539
-539
-550
-571
-599
-629
-657
-679
-693
-695
-685
-665
-636
-603
-569
-539
-516
-504
-505
-517
-539
-568
-600
-630
-655
-669
-671
-661
-640
-610
-576
-543
-515
-497
-490
-496
-514
-541
-573
-604
-631
-649
-654
-647
-628
-599
-563
-526
-492
-465
-448
-443
-450
-468
-493
-522
-550
-573
-588
-591
-581
-559
-526
-486
-445
-406
-375
-356
-350
-358
-379
-408
-441
-472
-495
-506
-503
-485
-454
-413
-368
-325
-287
-261
-249
-251
-266
-290
-318
-345
-366
-377
-375
-358
-327
-287
-239
-190
-145
-106
-78
-63
-60
-66
-80
-97
-113
-122
-122
-111
-87
-52
-8
41
91
138
177
206
222
226
219
206
189
174
164
164
176
201
237
281
331
380
425
461
486
499
499
488
470
450
430
416
411
417
434
461
496
534
572
604
627
638
636
622
598
569
539
514
498
494
503
525
555
589
623
649
664
664
648
617
574
524
473
426
388
363
352
355
370
393
421
446
466
475
471
454
423
383
335
287
241
203
176
162
159
168
183
200
215
223
220
205
178
140
94
45
-2
-43
-74
-94
-100
-95
-80
-60
-39
-21
-10
-9
-20
-43
-75
-113
-154
-193
-225
-247
-256
-253
-238
-215
-188
-161
-139
-126
-125
-137
-160
-192
-229
-266
-298
-320
-330
-327
-310
-282
-247
-209
-175
-149
-134
-132
-144
-167
-198
-233
-267
-295
-313
-319
-313
-296
-271
-241
-212
-187
-170
-163
-168
-183
-207
-235
-264
-290
-309
-319
-319
-308
-287
-261
-230
-201
-175
-157
-149
-151
-163
-184
-209
-237
-262
-282
-292
-292
-281
-261
-234
-203
-174
-150
-134
-130
-138
-158
-186
-220
-254
-285
-308
-319
-317
-303
-277
-243
-206
-171
-142
-124
-120
-128
-149
-178
-212
-243
-269
-283
-284
-270
-242
-205
-163
-121
-85
-59
-46
-48
-64
-90
-124
-158
-190
-214
-226
-227
-215
-194
-165
-133
-102
-77
-60
-52
-56
-70
-91
-118
-145
-170
-190
-200
-200
-190
-171
-145
-116
-89
-66
-52
-48
-55
-73
-98
-127
-155
-179
-194
-199
-192
-175
-150
-121
-92
-68
-53
-48
-54
-72
-98
-130
-163
-192
-215
-228
-229
-218
-195
-165
-131
-98
-70
-51
-44
-51
-70
-100
-135
-172
-205
-229
-242
-241
-226
-201
-168
-134
-102
-78
-66
-66
-79
-103
-134
-169
-202
-229
-247
-253
-248
-232
-207
-178
-149
-123
-105
-97
-101
-116
-140
-171
-204
-234
-258
-273
-274
-264
-242
-213
-179
-146
-119
-101
-96
-104
-125
-155
-190
-226
-256
-278
-288
-284
-267
-239
-205
-168
-135
-111
-97
-97
-110
-134
-166
-200
-232
-258
-274
-279
-271
-254
-229
-201
-174
-153
-139
-135
-142
-158
-181
-207
-234
-257
-274
-282
-279
-267
-247
-220
-192
-165
-143
-130
-127
-135
-154
-181
-212
-244
-271
-291
-300
-297
-282
-257
-225
-192
-160
-135
-121
-118
-127
-147
-176
-208
-239
-266
-285
-293
-290
-276
-254
-227
-199
-174
-156
-148
-150
-162
-182
-208
-236
-261
-282
-294
-296
-288
-270
-244
-214
-184
-157
-137
-128
-129
-142
-165
-195
-228
-259
-283
-297
-298
-286
-261
-228
-191
-155
-124
-103
-95
-100
-115
-139
-165
-188
-203
-207
-196
-170
-132
-85
-34
16
58
89
106
109
98
76
49
20
-5
-23
-32
-29
-16
6
34
64
94
120
141
155
161
160
154
144
133
124
119
120
128
145
169
198
230
261
288
306
314
309
293
266
233
197
163
136
119
114
121
139
164
194
222
245
258
259
248
226
196
161
125
95
73
63
66
80
105
136
168
196
216
223
215
193
158
113
64
16
-26
-58
-75
-78
-68
-49
-24
1
19
27
21
0
-35
-81
-133
-186
-235
-275
-301
-314
-312
-299
-278
-253
-230
-213
-204
-207
-220
-243
-270
-300
-326
-345
-355
-353
-339
-316
-287
-256
-227
-206
-196
-198
-212
-238
-271
-308
-342
-370
-387
-392
-382
-361
-331
-297
-264
-238
-224
-223
-238
-265
-302
-340
-374
-395
-396
-370
-314
-226
-108
37
205
391
589
796
1010
1231
1462
1706
1968
2253
2565
2905
3271
3660
4065
4476
4881
5266
5618
5921
6163
6331
6416
6408
6305
6104
5811
5433
4985
4483
3950
3408
2882
2392
1957
1588
1290
1062
896
781
701
643
593
543
486
422
354
286
223
170
128
99
79
63
46
24
-7
-50
-102
-161
-223
-282
-334
-374
-401
-414
-416
-410
-401
-393
-391
-398
-416
-445
-483
-527
-573
-616
-651
-675
-685
-681
-665
-639
-609
-579
-555
-540
-538
-549
-572
-603
-638
-671
-698
-715
-719
-711
-691
-662
-630
-598
-570
-551
-542
-544
-557
-578
-604
-632
-659
-679
-691
-694
-686
-669
-644
-616
-587
-563
-545
-538
-541
-555
-578
-607
-637
-665
-687
-698
-698
-686
-664
-634
-601
-568
-541
-522
-515
-520
-536
-560
-591
-622
-650
-670
-679
-675
-659
-632
-597
-560
-525
-498
-482
-480
-492
-516
-548
-583
-615
-639
-651
-648
-630
-600
-561
-521
-484
-455
-439
-438
-451
-477
-509
-545
-578
-604
-618
-620
-609
-587
-556
-520
-485
-453
-429
-414
-410
-416
-431
-451
-475
-497
-515
-525
-526
-517
-498
-471
-439
-405
-375
-350
-335
-329
-335
-349
-368
-390
-410
-422
-426
-417
-397
-367
-329
-287
-245
-209
-180
-162
-156
-160
-173
-190
-208
-222
-229
-225
-210
-183
-146
-103
-57
-14
24
52
69
74
70
58
44
32
26
30
46
74
113
161
213
264
311
349
375
389
392
384
370
353
338
329
328
337
357
386
422
461
500
534
560
575
579
572
557
535
512
492
478
473
479
496
523
556
592
626
655
674
682
677
661
635
603
570
539
515
500
496
503
519
541
565
586
599
603
593
571
538
496
450
404
363
332
313
306
311
325
344
363
377
382
375
354
321
277
228
176
129
90
62
47
46
55
72
92
109
120
121
109
86
51
9
-37
-83
-123
-155
-175
-182
-178
-163
-142
-118
-96
-80
-72
-75
-90
-114
-146
-181
-216
-245
-267
-277
-276
-263
-242
-215
-188
-163
-146
-139
-143
-158
-181
-210
-240
-267
-287
-298
-299
-289
-269
-244
-216
-189
-167
-153
-150
-157
-174
-199
-229
-260
-287
-307
-317
-314
-300
-275
-243
-208
-176
-150
-135
-133
-145
-168
-200
-236
-271
-299
-316
-320
-310
-286
-254
-216
-179
-147
-125
-117
-123
-142
-171
-207
-243
-276
-299
-310
-308
-292
-264
-229
-191
-155
-126
-108
-103
-110
-129
-157
-189
-220
-246
-263
-269
-261
-243
-215
-182
-149
-119
-98
-87
-89
-102
-126
-155
-186
-215
-237
-248
-248
-236
-214
-184
-150
-117
-90
-71
-63
-67
-83
-107
-138
-170
-199
-222
-235
-236
-225
-205
-177
-145
-114
-89
-72
-66
-71
-87
-111
-140
-168
-192
-209
-216
-211
-196
-172
-143
-112
-85
-64
-52
-52
-63
-84
-112
-143
-173
-198
-213
-217
-209
-190
-162
-130
-97
-69
-50
-42
-47
-65
-93
-128
-164
-196
-221
-235
-237
-226
-204
-174
-142
-111
-86
-71
-68
-78
-100
-130
-166
-202
-233
-255
-266
-263
-248
-222
-189
-154
-123
-100
-88
-90
-105
-132
-165
-201
-234
-259
-274
-275
-264
-241
-210
-176
-143
-116
-98
-91
-95
-110
-134
-162
-191
-217
-237
-248
-249
-241
-224
-200
-174
-148
-127
-113
-109
-115
-130
-154
-182
-212
-239
-258
-269
-268
-257
-236
-209
-180
-152
-131
-119
-118
-127
-147
-173
-202
-229
-251
-265
-267
-259
-241
-214
-184
-153
-126
-108
-99
-102
-117
-142
-173
-207
-240
-266
-284
-289
-283
-264
-237
-205
-172
-142
-120
-109
-110
-123
-146
-175
-206
-235
-256
-267
-266
-254
-231
-202
-171
-144
-123
-114
-117
-132
-158
-190
-225
-257
-282
-296
-298
-288
-267
-238
-204
-171
-141
-120
-109
-108
-119
-138
-164
-192
-219
-242
-256
-261
-255
-240
-217
-190
-163
-138
-121
-112
-114
-127
-148
-174
-202
-227
-246
-256
-254
-241
-219
-189
-157
-126
-100
-82
-75
-79
-92
-111
-133
-152
-164
-166
-155
-131
-95
-50
-1
48
90
123
142
147
138
118
90
58
29
6
-8
-10
0
21
50
85
120
152
178
195
203
200
189
173
155
138
127
124
131
148
173
204
238
270
295
311
314
304
281
249
212
175
144
122
115
122
144
178
220
263
302
332
347
347
331
301
260
215
171
134
107
94
96
111
137
168
199
225
240
241
226
196
153
102
49
-2
-44
-74
-89
-88
-75
-52
-26
-1
17
24
17
-3
-37
-80
-129
-177
-221
-257
-281
-292
-291
-279
-260
-238
-216
-200
-192
-194
-206
-228
-255
-286
-315
-339
-354
-358
-351
-334
-309
-280
-250
-225
-208
-201
-207
-224
-250
-281
-314
-343
-363
-373
-370
-355
-330
-300
-269
-244
-228
-226
-236
-258
-288
-317
-340
-346
-329
-284
-207
-97
42
208
395
599
814
1040
1275
1521
1781
2060
2360
2684
3035
3409
3803
4210
4620
5023
5405
5752
6051
6288
6450
6526
6508
6391
6175
5864
5468
5004
4490
3950
3409
2892
2418
2006
1664
1395
1194
1050
951
879
819
760
692
613
523
429
336
251
181
128
92
71
58
47
33
10
-24
-70
-125
-185
-246
-303
-350
-386
-409
-420
-422
-418
-412
-408
-410
-420
-439
-466
-500
-538
-577
-612
-641
-660
-667
-663
-648
-625
-597
-570
-547
-533
-528
-535
-552
-578
-608
-640
-668
-690
-702
-705
-697
-681
-659
-634
-610
-590
-577
-573
-578
-591
-611
-634
-658
-680
-695
-703
-700
-688
-668
-642
-613
-586
-565
-552
-550
-558
-575
-599
-626
-652
-671
-682
-681
-669
-647
-617
-584
-553
-527
-511
-507
-515
-534
-561
-593
-623
-649
-666
-672
-666
-649
-623
-591
-558
-528
-505
-492
-489
-498
-516
-542
-572
-602
-627
-644
-651
-646
-630
-604
-572
-538
-506
-481
-465
-462
-471
-491
-518
-549
-578
-601
-615
-615
-603
-579
-545
-507
-470
-437
-414
-404
-406
-421
-445
-475
-505
-530
-547
-551
-541
-519
-487
-448
-407
-370
-340
-321
-314
-320
-335
-356
-380
-402
-418
-425
-420
-404
-378
-344
-305
-266
-231
-202
-181
-171
-171
-180
-194
-210
-224
-232
-232
-221
-198
-165
-125
-80
-35
5
37
59
69
68
58
44
29
18
15
23
42
73
113
159
207
252
291
321
339
346
344
334
321
308
300
300
310
331
362
400
443
485
523
552
572
579
575
562
542
520
500
486
481
485
499
521
549
579
606
628
641
643
634
615
588
556
524
495
474
463
463
474
494
520
548
572
588
592
583
559
524
479
429
380
338
305
285
278
284
299
320
339
354
359
351
329
295
251
202
151
105
67
41
29
29
39
56
75
90
99
97
82
55
19
-25
-70
-114
-150
-175
-189
-189
-178
-158
-133
-108
-87
-74
-71
-78
-97
-124
-158
-193
-225
-252
-270
-278
-275
-263
-244
-220
-197
-178
-166
-164
-171
-188
-212
-241
-270
-296
-315
-325
-323
-310
-287
-257
-225
-194
-168
-152
-147
-154
-172
-199
-230
-260
-287
-304
-311
-306
-289
-264
-234
-202
-175
-155
-145
-146
-159
-181
-209
-240
-269
-293
-308
-313
-307
-290
-266
-236
-207
-180
-161
-151
-153
-166
-188
-216
-245
-272
-292
-302
-300
-285
-261
-229
-195
-162
-135
-117
-111
-116
-132
-156
-184
-212
-236
-251
-257
-251
-235
-210
-179
-148
-119
-97
-84
-83
-91
-110
-134
-162
-189
-211
-225
-230
-225
-210
-188
-162
-136
-112
-95
-85
-85
-94
-110
-132
-157
-180
-200
-212
-217
-211
-197
-175
-149
-121
-96
-78
-68
-68
-79
-100
-127
-158
-187
-210
-225
-228
-218
-198
-170
-138
-107
-81
-64
-59
-67
-86
-114
-146
-177
-204
-221
-225
-217
-197
-168
-133
-98
-68
-46
-36
-40
-58
-86
-122
-160
-197
-228
-248
-255
-248
-229
-201
-167
-132
-102
-80
-71
-75
-92
-119
-152
-186
-217
-240
-252
-251
-238
-215
-187
-157
-130
-110
-100
-101
-112
-133
-159
-187
-214
-236
-250
-255
-251
-239
-220
-196
-172
-150
-132
-122
-121
-129
-145
-168
-194
-221
-244
-261
-269
-267
-254
-233
-206
-177
-151
-132
-122
-123
-134
-155
-182
-211
-237
-256
-266
-264
-251
-229
-201
-170
-141
-119
-105
-103
-112
-131
-157
-188
-218
-245
-264
-273
-270
-258
-236
-209
-181
-154
-135
-124
-125
-137
-158
-185
-215
-243
-264
-276
-276
-265
-244
-217
-187
-159
-136
-123
-120
-128
-146
-171
-199
-226
-248
-262
-266
-259
-242
-218
-189
-159
-132
-112
-102
-104
-116
-139
-169
-203
-236
-264
-282
-289
-283
-265
-238
-205
-171
-141
-119
-109
-112
-128
-155
-189
-224
-257
-282
-295
-295
-282
-257
-224
-188
-153
-123
-104
-96
-102
-120
-147
-180
-214
-245
-268
-281
-282
-270
-247
-217
-183
-150
-123
-105
-100
-106
-124
-151
-182
-213
-239
-255
-259
-250
-227
-195
-156
-116
-78
-47
-26
-17
-18
-28
-43
-61
-76
-84
-84
-74
-53
-23
13
52
89
122
146
160
162
152
133
107
77
49
27
13
11
21
44
76
115
155
193
224
245
254
251
238
219
198
180
168
165
173
191
216
246
275
300
317
324
318
302
277
246
216
189
170
161
165
181
207
239
273
304
328
340
338
323
295
258
216
175
139
112
98
96
107
126
150
173
192
201
198
182
153
113
67
19
-27
-67
-96
-113
-118
-112
-98
-79
-59
-45
-38
-42
-58
-86
-123
-167
-213
-257
-294
-321
-334
-335
-324
-304
-279
-253
-230
-215
-209
-214
-229
-252
-280
-307
-331
-348
-355
-351
-336
-313
-284
-254
-228
-210
-201
-205
-221
-246
-277
-310
-341
-366
-380
-384
-376
-360
-338
-315
-293
-277
-266
-260
-258
-254
-242
-218
-176
-109
-16
107
259
439
645
875
1126
1397
1686
1993
2316
2656
3011
3380
3759
4144
4530
4908
5270
5607
5908
6161
6356
6480
6524
6476
6332
6089
5750
5324
4826
4277
3704
3135
2597
2115
1708
1388
1155
1003
918
878
862
850
824
773
693
586
462
331
206
98
15
-38
-64
-67
-55
-38
-24
-22
-36
-68
-116
-177
-245
-314
-378
-432
-472
-498
-509
-508
-499
-486
-473
-465
-465
-475
-494
-522
-557
-594
-630
-660
-682
-693
-691
-678
-657
-629
-601
-576
-559
-551
-555
-570
-594
-624
-656
-685
-707
-719
-720
-708
-687
-659
-628
-598
-574
-559
-554
-561
-578
-603
-634
-664
-692
-711
-721
-720
-707
-685
-656
-624
-593
-567
-551
-545
-552
-569
-595
-626
-657
-685
-704
-713
-709
-694
-668
-636
-602
-570
-544
-529
-526
-535
-555
-583
-616
-649
-676
-695
-702
-697
-679
-651
-616
-579
-545
-517
-500
-494
-501
-520
-546
-576
-606
-630
-646
-649
-639
-618
-588
-552
-516
-484
-460
-448
-449
-462
-485
-515
-547
-576
-597
-607
-604
-589
-562
-527
-488
-452
-421
-400
-390
-394
-408
-431
-457
-482
-502
-512
-511
-497
-473
-440
-403
-367
-334
-310
-296
-293
-301
-317
-338
-360
-379
-391
-393
-384
-363
-332
-294
-251
-209
-171
-141
-121
-114
-117
-129
-147
-166
-182
-190
-187
-172
-144
-106
-61
-12
34
74
104
123
129
126
115
100
87
78
78
90
113
147
189
237
285
330
367
393
408
410
402
386
367
349
336
333
340
359
389
426
467
507
542
569
584
588
580
563
540
516
495
480
475
480
497
523
556
591
624
650
667
671
661
640
609
573
535
501
475
460
457
465
482
504
525
541
549
543
524
493
451
403
355
310
273
248
237
237
249
267
287
304
314
313
299
272
234
188
137
87
43
6
-19
-31
-33
-25
-11
5
20
28
28
18
-2
-31
-66
-105
-142
-175
-199
-213
-216
-208
-190
-166
-141
-117
-99
-90
-91
-103
-123
-151
-181
-210
-234
-251
-257
-253
-240
-219
-195
-170
-149
-134
-128
-133
-147
-170
-199
-230
-260
-284
-300
-306
-301
-285
-262
-233
-203
-178
-159
-151
-154
-168
-190
-218
-246
-270
-286
-292
-286
-269
-243
-213
-182
-156
-138
-130
-134
-149
-174
-204
-235
-263
-284
-296
-296
-284
-261
-232
-199
-166
-139
-119
-111
-114
-129
-153
-182
-213
-241
-261
-271
-269
-255
-231
-199
-164
-129
-101
-82
-74
-79
-96
-123
-156
-190
-221
-246
-260
-263
-253
-233
-204
-172
-139
-112
-93
-86
-91
-108
-133
-164
-196
-222
-240
-245
-237
-216
-184
-146
-107
-74
-50
-40
-44
-64
-94
-132
-172
-207
-233
-246
-243
-227
-198
-161
-122
-86
-57
-40
-36
-45
-65
-94
-126
-157
-184
-201
-208
-203
-189
-166
-139
-112
-87
-69
-59
-58
-68
-85
-108
-134
-160
-181
-196
-203
-200
-189
-170
-147
-122
-98
-80
-70
-70
-79
-98
-123
-152
-180
-204
-219
-224
-218
-202
-179
-152
-125
-104
-90
-88
-97
-117
-145
-177
-210
-237
-257
-265
-261
-245
-220
-189
-156
-127
-104
-91
-91
-102
-125
-155
-188
-220
-246
-263
-268
-261
-242
-215
-185
-154
-130
-114
-110
-118
-137
-165
-197
-228
-255
-274
-282
-279
-264
-241
-213
-183
-155
-133
-119
-115
-121
-137
-160
-187
-216
-242
-263
-275
-277
-269
-251
-225
-195
-165
-139
-120
-113
-117
-134
-160
-192
-225
-255
-277
-287
-283
-267
-241
-208
-174
-144
-122
-112
-116
-132
-159
-192
-227
-259
-282
-295
-295
-281
-258
-227
-193
-161
-135
-118
-113
-119
-136
-161
-190
-219
-245
-264
-274
-274
-264
-245
-222
-196
-172
-153
-141
-138
-145
-161
-183
-209
-234
-255
-269
-273
-266
-248
-221
-190
-158
-130
-111
-104
-110
-129
-157
-192
-227
-258
-279
-288
-283
-265
-236
-202
-167
-136
-114
-104
-106
-120
-143
-172
-203
-231
-253
-265
-266
-256
-236
-208
-177
-144
-114
-91
-75
-70
-74
-87
-106
-127
-147
-161
-166
-159
-141
-111
-72
-27
19
61
95
118
127
123
108
84
56
29
8
-4
-6
5
25
54
86
119
147
167
178
178
170
155
137
119
107
103
109
127
155
192
232
273
308
335
349
349
334
308
273
235
199
169
150
145
155
177
210
247
285
318
340
349
343
323
291
250
207
166
132
108
98
101
116
140
169
199
223
239
242
232
208
174
131
85
41
3
-26
-42
-47
-40
-25
-6
12
25
30
22
3
-28
-68
-113
-159
-202
-238
-264
-279
-282
-276
-262
-245
-228
-214
-207
-209
-219
-237
-261
-287
-312
-333
-345
-348
-340
-322
-297
-268
-238
-213
-196
-189
-195
-213
-240
-274
-309
-340
-363
-374
-372
-356
-330
-297
-263
-234
-215
-212
-224
-251
-290
-334
-376
-406
-417
-402
-356
-278
-169
-31
129
306
495
692
894
1103
1320
1551
1800
2074
2378
2712
3078
3471
3884
4308
4730
5136
5512
5844
6117
6321
6445
6482
6426
6277
6037
5712
5312
4852
4349
3825
3300
2795
2330
1918
1570
1289
1072
911
797
716
655
604
555
503
448
391
334
282
236
197
164
135
106
73
35
-11
-63
-119
-175
-227
-271
-304
-325
-334
-334
-329
-323
-322
-328
-344
-371
-408
-452
-498
-544
-583
-614
-632
-638
-632
-615
-592
-565
-540
-520
-508
-506
-516
-535
-562
-593
-625
-652
-672
-682
-680
-666
-644
-615
-585
-558
-538
-528
-529
-542
-565
-593
-623
-650
-671
-682
-681
-670
-648
-621
-590
-561
-537
-520
-513
-517
-529
-549
-573
-598
-621
-638
-648
-649
-641
-625
-603
-579
-555
-536
-523
-519
-525
-539
-561
-586
-611
-631
-644
-646
-636
-614
-584
-549
-514
-484
-462
-453
-457
-474
-502
-536
-572
-604
-628
-639
-636
-620
-593
-557
-519
-482
-453
-433
-425
-430
-445
-469
-496
-524
-547
-562
-567
-561
-544
-518
-487
-454
-422
-397
-381
-375
-379
-394
-415
-440
-465
-485
-497
-499
-489
-468
-439
-405
-369
-337
-312
-296
-292
-299
-314
-336
-359
-380
-395
-401
-396
-380
-353
-319
-280
-241
-206
-177
-159
-151
-154
-165
-182
-201
-218
-229
-231
-222
-202
-172
-134
-91
-48
-9
24
49
63
69
66
59
50
44
43
51
70
99
137
181
229
275
316
347
367
375
370
357
340
323
310
307
316
338
372
415
462
509
550
581
599
604
597
580
557
534
514
502
500
510
531
561
596
633
667
695
714
720
715
699
674
644
612
582
559
545
541
548
564
586
609
630
643
647
637
614
579
535
487
439
397
365
345
338
343
356
374
391
403
405
395
372
336
292
242
191
145
107
79
65
62
70
84
102
117
126
126
115
92
59
18
-26
-70
-108
-138
-157
-163
-157
-142
-121
-98
-77
-63
-59
-66
-84
-112
-147
-184
-219
-249
-268
-275
-270
-253
-227
-197
-165
-138
-118
-110
-113
-127
-150
-178
-207
-233
-252
-261
-259
-246
-225
-199
-171
-145
-125
-115
-115
-126
-146
-174
-205
-235
-261
-279
-287
-284
-270
-248
-221
-192
-166
-146
-136
-136
-146
-166
-192
-219
-245
-266
-278
-280
-272
-254
-230
-202
-174
-150
-133
-125
-128
-140
-160
-185
-212
-237
-256
-265
-265
-253
-232
-203
-172
-141
-115
-97
-90
-94
-109
-132
-160
-188
-212
-229
-237
-233
-219
-197
-168
-138
-110
-89
-76
-74
-83
-102
-129
-159
-190
-217
-235
-243
-239
-223
-198
-168
-135
-106
-84
-72
-72
-85
-108
-139
-171
-202
-225
-238
-239
-227
-203
-172
-137
-103
-75
-56
-49
-55
-73
-101
-133
-165
-193
-212
-220
-215
-198
-171
-137
-103
-72
-49
-37
-37
-51
-74
-105
-138
-169
-194
-208
-211
-202
-182
-154
-122
-90
-62
-43
-35
-38
-54
-79
-110
-144
-175
-201
-216
-220
-212
-192
-166
-135
-104
-79
-62
-57
-63
-81
-107
-138
-170
-198
-219
-230
-230
-219
-198
-171
-142
-115
-93
-80
-78
-87
-106
-133
-163
-193
-218
-235
-241
-235
-219
-193
-162
-130
-102
-82
-74
-77
-93
-120
-154
-190
-224
-251
-267
-270
-259
-237
-206
-170
-136
-107
-89
-83
-90
-110
-139
-173
-206
-235
-254
-262
-258
-241
-216
-185
-153
-125
-105
-94
-95
-107
-129
-157
-187
-216
-240
-255
-261
-255
-240
-217
-190
-162
-138
-120
-112
-115
-129
-150
-178
-207
-233
-252
-262
-260
-246
-222
-192
-159
-128
-104
-90
-89
-101
-124
-155
-191
-227
-257
-279
-288
-285
-270
-244
-213
-180
-150
-126
-113
-110
-120
-139
-165
-195
-224
-247
-263
-267
-260
-243
-217
-187
-156
-128
-109
-99
-102
-116
-140
-170
-203
-233
-257
-272
-274
-264
-243
-214
-181
-148
-120
-100
-92
-96
-111
-133
-161
-188
-211
-225
-228
-218
-195
-162
-122
-80
-40
-6
18
31
31
21
3
-19
-39
-54
-59
-53
-35
-6
31
70
107
137
155
161
152
131
100
66
33
7
-8
-9
5
32
70
115
161
204
239
264
277
277
267
249
226
202
181
166
159
160
169
185
206
227
246
260
267
265
255
237
215
192
170
153
144
143
151
166
185
205
222
235
239
235
221
200
173
143
114
89
70
59
56
60
70
83
95
103
105
97
81
55
22
-16
-54
-91
-121
-143
-156
-160
-155
-146
-134
-124
-119
-122
-133
-154
-184
-219
-258
-296
-330
-356
-372
-378
-372
-356
-332
-304
-275
-249
-229
-218
-216
-225
-243
-266
-293
-319
-341
-356
-361
-357
-343
-322
-296
-269
-245
-227
-219
-221
-234
-256
-286
-319
-353
-383
-405
-415
-412
-394
-361
-315
-256
-188
-111
-28
63
161
269
391
531
695
888
1113
1373
1668
1997
2354
2733
3126
3524
3918
4300
4662
4998
5302
5570
5795
5973
6096
6157
6147
6059
5886
5627
5283
4862
4378
3849
3298
2753
2237
1773
1379
1066
835
683
598
564
562
573
582
576
548
496
421
331
232
133
42
-35
-95
-136
-160
-170
-170
-165
-160
-158
-163
-178
-204
-240
-286
-338
-394
-450
-501
-544
-576
-595
-601
-594
-579
-557
-535
-517
-506
-506
-518
-541
-572
-609
-646
-678
-702
-714
-713
-699
-674
-642
-608
-577
-552
-538
-536
-547
-569
-599
-632
-664
-690
-707
-713
-706
-689
-662
-631
-599
-570
-550
-539
-541
-553
-575
-603
-634
-662
-684
-697
-700
-692
-675
-651
-625
-600
-579
-567
-563
-569
-584
-604
-627
-648
-664
-673
-671
-659
-637
-608
-575
-542
-511
-488
-474
-472
-481
-499
-525
-554
-583
-607
-624
-629
-624
-607
-582
-550
-518
-489
-466
-453
-452
-462
-482
-508
-537
-564
-585
-598
-599
-589
-569
-541
-509
-478
-451
-431
-421
-423
-434
-453
-478
-503
-526
-542
-549
-544
-530
-506
-475
-442
-410
-384
-365
-358
-361
-374
-395
-420
-445
-465
-478
-479
-468
-446
-414
-375
-334
-295
-264
-243
-234
-238
-253
-276
-302
-327
-345
-352
-346
-326
-293
-251
-205
-159
-118
-86
-67
-61
-66
-80
-99
-117
-130
-133
-124
-102
-67
-23
27
78
125
164
192
208
211
204
191
174
160
153
155
168
194
230
274
323
371
415
450
475
487
488
479
462
442
423
408
402
406
420
445
477
514
551
584
609
624
628
619
601
576
548
521
501
489
488
498
518
545
575
602
624
636
636
623
599
566
528
489
453
423
403
394
395
404
418
434
448
455
453
439
414
378
334
286
237
192
155
130
116
115
123
137
153
165
170
164
146
115
74
28
-21
-66
-104
-130
-144
-145
-135
-118
-98
-80
-67
-63
-69
-86
-112
-145
-181
-215
-244
-265
-276
-276
-265
-247
-223
-198
-176
-160
-154
-158
-173
-196
-226
-259
-290
-315
-331
-336
-329
-312
-287
-257
-226
-200
-181
-173
-176
-190
-213
-243
-275
-305
-328
-342
-345
-337
-318
-291
-261
-231
-205
-187
-180
-184
-198
-222
-251
-282
-310
-331
-342
-341
-329
-306
-278
-246
-217
-194
-182
-181
-193
-216
-247
-281
-313
-339
-354
-355
-344
-320
-287
-250
-213
-182
-161
-152
-157
-175
-202
-235
-269
-299
-321
-332
-330
-315
-290
-258
-222
-189
-163
-146
-141
-149
-168
-194
-224
-254
-278
-294
-298
-291
-273
-247
-217
-187
-160
-141
-131
-132
-142
-161
-184
-209
-232
-250
-260
-261
-253
-236
-213
-186
-159
-134
-117
-108
-109
-120
-141
-168
-198
-227
-252
-268
-273
-267
-250
-225
-193
-161
-132
-111
-100
-100
-113
-134
-163
-193
-221
-241
-252
-250
-236
-212
-182
-149
-118
-95
-83
-84
-98
-123
-156
-192
-227
-254
-271
-275
-267
-247
-219
-187
-156
-130
-113
-108
-114
-132
-159
-191
-223
-253
-276
-289
-291
-282
-263
-237
-207
-178
-154
-138
-132
-139
-156
-181
-212
-244
-272
-292
-302
-299
-284
-260
-229
-196
-166
-143
-130
-130
-143
-166
-196
-230
-262
-288
-304
-308
-301
-282
-255
-225
-195
-169
-153
-147
-153
-170
-197
-228
-262
-292
-316
-330
-333
-325
-306
-280
-250
-219
-193
-174
-166
-169
-183
-207
-237
-269
-299
-322
-334
-334
-322
-299
-269
-236
-206
-183
-170
-171
-185
-210
-242
-276
-307
-331
-344
-345
-334
-313
-285
-255
-227
-204
-191
-187
-194
-209
-231
-257
-282
-303
-318
-325
-321
-308
-287
-261
-232
-205
-182
-168
-163
-170
-187
-212
-241
-271
-298
-317
-325
-323
-309
-286
-258
-228
-200
-180
-169
-170
-183
-205
-233
-265
-295
-318
-333
-336
-327
-307
-280
-247
-215
-187
-168
-160
-165
-182
-208
-241
-275
-307
-331
-344
-345
-332
-309
-277
-242
-207
-178
-158
-148
-150
-162
-182
-205
-228
-245
-254
-251
-236
-209
-172
-130
-85
-42
-6
21
35
38
30
14
-6
-26
-42
-50
-48
-36
-15
14
44
74
98
113
118
112
96
74
49
25
6
-4
-3
9
33
66
104
146
185
218
242
254
253
240
216
184
150
118
93
78
75
85
107
138
173
206
235
253
260
255
239
214
184
154
128
109
98
98
107
123
144
166
186
201
207
205
191
169
138
102
64
27
-5
-29
-45
-52
-50
-43
-33
-25
-22
-27
-41
-65
-97
-135
-175
-213
-245
-269
-283
-288
-283
-273
-261
-250
-244
-245
-255
-275
-301
-333
-366
-396
-419
-434
-437
-429
-410
-383
-351
-319
-292
-271
-262
-264
-278
-301
-331
-363
-393
-416
-431
-433
-423
-402
-373
-340
-307
-279
-262
-257
-268
-294
-334
-382
-433
-480
-516
-535
-531
-501
-442
-358
-250
-124
14
160
311
464
622
788
969
1173
1408
1679
1991
2345
2737
3161
3605
4056
4500
4922
5309
5649
5932
6151
6300
6376
6376
6299
6144
5911
5605
5231
4800
4323
3819
3305
2804
2334
1912
1551
1258
1033
871
763
695
653
625
597
563
518
461
394
319
242
164
90
21
-43
-100
-151
-196
-235
-266
-291
-310
-322
-330
-337
-345
-356
-375
-402
-437
-479
-525
-572
-615
-651
-675
-687
-686
-673
-651
-625
-599
-578
-565
-564
-574
-596
-627
-662
-699
-731
-756
-770
-772
-761
-740
-712
-680
-650
-626
-611
-607
-616
-636
-664
-698
-733
-763
-784
-794
-791
-775
-748
-713
-676
-641
-614
-598
-594
-604
-625
-654
-686
-718
-743
-758
-762
-753
-733
-705
-672
-640
-612
-592
-582
-584
-597
-619
-646
-674
-700
-719
-730
-729
-718
-697
-670
-640
-612
-588
-574
-569
-576
-592
-615
-642
-669
-690
-703
-706
-697
-677
-649
-616
-582
-552
-530
-519
-520
-533
-557
-588
-622
-653
-677
-690
-691
-678
-654
-621
-583
-546
-513
-490
-477
-477
-489
-508
-533
-558
-580
-594
-598
-592
-576
-552
-522
-490
-459
-433
-415
-406
-407
-416
-432
-452
-473
-490
-501
-503
-495
-476
-447
-412
-375
-338
-308
-286
-276
-277
-289
-309
-332
-353
-367
-371
-363
-341
-308
-265
-218
-171
-129
-96
-74
-64
-65
-75
-89
-105
-116
-120
-112
-93
-62
-20
28
78
127
170
202
222
230
226
213
196
179
167
163
171
191
222
262
307
352
392
425
446
455
453
441
423
403
385
372
368
374
391
417
449
484
519
548
569
580
579
568
548
522
495
470
451
441
440
450
468
491
515
538
553
559
553
536
507
470
429
387
350
321
302
295
300
314
333
354
371
381
379
365
337
298
251
201
151
108
74
52
42
44
55
69
84
94
95
85
63
31
-10
-55
-100
-140
-172
-193
-201
-197
-184
-164
-142
-121
-107
-102
-107
-124
-150
-184
-220
-256
-288
-311
-324
-325
-316
-297
-272
-245
-221
-202
-192
-193
-205
-227
-256
-289
-321
-348
-367
-375
-370
-355
-330
-299
-267
-239
-217
-207
-208
-221
-245
-275
-308
-339
-364
-380
-384
-376
-358
-332
-303
-274
-250
-234
-228
-233
-248
-270
-296
-322
-343
-357
-361
-354
-337
-312
-282
-251
-224
-204
-193
-194
-206
-228
-256
-288
-317
-342
-357
-361
-354
-335
-308
-276
-244
-215
-193
-182
-182
-192
-212
-239
-268
-295
-316
-329
-331
-321
-302
-275
-244
-213
-186
-168
-159
-163
-178
-202
-232
-263
-292
-313
-324
-322
-309
-285
-254
-220
-187
-161
-144
-138
-144
-160
-184
-211
-238
-259
-273
-276
-269
-251
-226
-197
-168
-142
-124
-116
-120
-134
-156
-184
-213
-239
-259
-268
-266
-252
-230
-201
-169
-140
-117
-104
-101
-111
-130
-156
-186
-216
-240
-256
-262
-256
-240
-216
-187
-158
-132
-113
-104
-106
-120
-143
-172
-204
-234
-258
-272
-275
-266
-246
-217
-184
-151
-123
-103
-95
-100
-117
-144
-178
-214
-246
-271
-285
-287
-275
-252
-221
-187
-155
-130
-115
-112
-123
-145
-175
-210
-245
-274
-294
-302
-297
-281
-256
-225
-193
-165
-145
-137
-141
-157
-183
-215
-250
-282
-306
-320
-322
-311
-290
-262
-230
-199
-174
-158
-153
-159
-176
-200
-229
-258
-284
-303
-314
-314
-304
-285
-260
-232
-205
-182
-167
-162
-167
-183
-208
-238
-270
-299
-322
-334
-334
-322
-298
-266
-230
-194
-165
-146
-140
-147
-167
-197
-232
-266
-296
-316
-324
-319
-302
-275
-244
-212
-185
-167
-161
-167
-184
-210
-241
-272
-299
-317
-325
-320
-305
-280
-250
-218
-190
-168
-155
-153
-162
-181
-206
-235
-263
-287
-303
-311
-307
-294
-272
-244
-214
-185
-161
-144
-137
-141
-154
-175
-202
-229
-254
-274
-284
-285
-275
-257
-233
-207
-183
-165
-155
-156
-168
-190
-218
-248
-276
-298
-311
-312
-301
-279
-249
-215
-181
-152
-131
-121
-122
-133
-152
-174
-196
-212
-219
-215
-197
-168
-129
-85
-40
1
34
57
68
67
57
42
23
7
-6
-11
-8
2
19
40
64
86
106
120
128
129
122
110
94
77
62
50
47
53
70
97
132
173
215
253
282
300
302
291
266
232
194
157
127
109
104
114
137
170
207
243
273
293
299
292
272
242
206
170
138
114
100
99
109
128
152
176
197
210
212
201
177
143
102
58
15
-22
-49
-64
-67
-60
-45
-26
-8
4
7
-2
-23
-56
-96
-141
-184
-223
-253
-272
-279
-275
-263
-247
-229
-216
-209
-212
-225
-248
-277
-312
-346
-377
-400
-413
-413
-402
-379
-349
-314
-280
-251
-232
-224
-230
-247
-275
-309
-345
-378
-403
-416
-417
-405
-381
-350
-317
-285
-260
-246
-245
-259
-286
-323
-365
-408
-443
-465
-468
-447
-400
-325
-225
-102
40
197
363
538
719
908
1110
1329
1573
1846
2153
2497
2876
3285
3716
4156
4594
5015
5404
5749
6039
6263
6415
6488
6477
6381
6199
5933
5589
5176
4708
4201
3676
3153
2653
2194
1792
1454
1185
981
834
734
667
620
581
543
500
450
394
334
271
210
150
94
41
-10
-59
-108
-154
-198
-238
-272
-298
-318
-330
-338
-344
-351
-362
-380
-406
-440
-481
-526
-570
-611
-643
-664
-673
-668
-653
-629
-602
-575
-554
-541
-540
-551
-573
-603
-639
-674
-705
-728
-739
-737
-722
-697
-664
-629
-596
-571
-556
-554
-565
-587
-618
-653
-687
-715
-734
-740
-733
-714
-686
-653
-619
-591
-571
-563
-567
-584
-610
-642
-674
-703
-724
-734
-731
-716
-691
-658
-621
-587
-558
-539
-532
-537
-553
-578
-609
-641
-669
-690
-701
-700
-687
-664
-634
-601
-569
-543
-526
-520
-526
-543
-567
-595
-623
-646
-660
-664
-655
-636
-609
-577
-544
-515
-494
-483
-484
-496
-517
-544
-573
-600
-620
-631
-631
-619
-596
-566
-531
-497
-468
-447
-437
-439
-453
-475
-503
-532
-557
-574
-579
-572
-551
-519
-479
-437
-396
-363
-340
-331
-334
-350
-375
-403
-430
-452
-463
-461
-446
-418
-381
-339
-296
-258
-230
-212
-208
-217
-235
-259
-284
-306
-319
-322
-311
-286
-250
-205
-156
-108
-65
-31
-7
4
5
-2
-14
-26
-33
-34
-24
-3
28
68
113
160
204
243
273
292
300
297
287
273
258
246
242
249
267
297
337
383
432
477
515
542
555
556
544
523
499
476
458
450
454
470
496
531
568
605
635
656
666
662
646
621
589
556
525
501
487
484
493
511
536
564
589
607
614
609
589
556
514
466
418
374
339
316
307
310
323
342
362
379
387
383
367
337
298
251
202
154
112
79
57
46
45
52
63
74
83
84
78
61
35
1
-38
-79
-118
-152
-176
-190
-192
-184
-167
-146
-124
-106
-96
-97
-110
-134
-168
-207
-246
-281
-307
-321
-320
-306
-280
-247
-212
-180
-157
-145
-147
-163
-191
-226
-263
-299
-327
-345
-350
-342
-323
-295
-263
-232
-206
-189
-183
-188
-205
-230
-261
-292
-320
-339
-349
-346
-331
-306
-274
-239
-207
-180
-164
-160
-168
-187
-214
-246
-277
-303
-320
-326
-320
-303
-276
-244
-211
-181
-160
-149
-150
-164
-187
-218
-252
-283
-308
-323
-326
-316
-295
-266
-233
-201
-173
-155
-148
-154
-172
-199
-233
-268
-300
-325
-339
-341
-330
-308
-277
-243
-208
-178
-156
-145
-147
-161
-184
-213
-244
-271
-291
-299
-295
-278
-250
-216
-179
-145
-119
-104
-103
-116
-140
-172
-207
-240
-266
-281
-282
-270
-246
-214
-178
-144
-116
-97
-91
-97
-115
-141
-172
-203
-230
-249
-257
-254
-241
-218
-188
-157
-126
-101
-84
-78
-82
-98
-123
-153
-186
-216
-240
-255
-258
-248
-227
-198
-165
-133
-106
-90
-85
-95
-116
-147
-183
-219
-250
-270
-278
-273
-254
-227
-194
-160
-132
-113
-106
-113
-131
-159
-193
-228
-259
-282
-294
-292
-278
-253
-221
-186
-152
-124
-106
-100
-107
-125
-152
-183
-215
-243
-261
-269
-265
-249
-224
-194
-163
-137
-119
-112
-118
-135
-162
-195
-229
-260
-283
-295
-295
-283
-260
-231
-200
-170
-147
-132
-129
-138
-157
-184
-216
-247
-275
-295
-305
-304
-291
-269
-241
-210
-180
-157
-143
-140
-148
-167
-193
-224
-255
-282
-300
-308
-304
-290
-266
-238
-208
-182
-163
-154
-157
-172
-196
-227
-261
-293
-318
-332
-335
-325
-304
-275
-241
-207
-178
-158
-149
-153
-168
-193
-224
-257
-287
-311
-325
-327
-319
-300
-273
-242
-211
-183
-163
-152
-153
-164
-185
-213
-242
-270
-292
-305
-305
-293
-271
-240
-205
-172
-145
-128
-124
-132
-153
-183
-217
-250
-277
-294
-299
-290
-270
-241
-206
-170
-139
-115
-101
-98
-106
-121
-142
-163
-182
-193
-193
-182
-159
-126
-85
-41
1
38
65
80
82
72
53
27
-1
-26
-44
-52
-49
-35
-11
19
52
84
110
129
138
137
127
110
91
73
59
54
59
76
104
139
180
220
256
283
297
297
283
257
222
182
144
113
92
84
91
111
141
178
215
250
276
291
292
280
257
225
189
153
122
100
88
88
98
117
141
165
185
196
196
182
157
120
77
32
-11
-46
-70
-82
-82
-71
-52
-31
-12
1
4
-5
-26
-57
-96
-139
-180
-217
-245
-263
-271
-268
-258
-244
-229
-218
-214
-218
-232
-255
-285
-319
-351
-378
-397
-403
-397
-378
-348
-313
-275
-241
-215
-201
-200
-212
-236
-268
-304
-337
-363
-378
-380
-368
-343
-311
-275
-242
-216
-204
-206
-225
-257
-299
-344
-384
-413
-422
-405
-360
-284
-180
-51
99
264
438
618
802
991
1189
1399
1629
1885
2170
2489
2841
3223
3627
4044
4462
4868
5248
5587
5873
6095
6244
6311
6292
6184
5986
5704
5344
4920
4445
3940
3425
2920
2445
2015
1644
1335
1091
905
770
673
604
550
503
457
409
358
307
257
211
168
128
91
53
12
-33
-83
-136
-190
-241
-287
-323
-347
-359
-361
-355
-348
-342
-344
-356
-380
-416
-461
-512
-564
-612
-650
-676
-688
-686
-670
-646
-616
-586
-561
-543
-537
-543
-559
-585
-617
-650
-680
-702
-715
-716
-705
-685
-658
-628
-600
-579
-566
-564
-574
-593
-620
-649
-678
-702
-717
-723
-716
-700
-675
-645
-614
-586
-564
-550
-547
-554
-570
-593
-619
-645
-667
-682
-687
-683
-668
-646
-619
-591
-566
-548
-538
-540
-552
-574
-601
-631
-658
-678
-689
-688
-675
-652
-622
-590
-559
-534
-518
-514
-521
-538
-562
-590
-616
-638
-651
-654
-646
-628
-602
-572
-540
-512
-490
-476
-474
-481
-499
-523
-550
-576
-598
-611
-614
-604
-584
-554
-519
-483
-450
-426
-412
-411
-422
-444
-473
-506
-536
-560
-574
-576
-566
-543
-512
-476
-439
-406
-381
-367
-364
-372
-389
-411
-434
-453
-465
-466
-455
-431
-397
-357
-314
-274
-241
-218
-208
-210
-222
-242
-264
-285
-299
-303
-295
-275
-243
-203
-159
-114
-73
-40
-17
-5
-3
-8
-19
-30
-40
-43
-37
-20
7
44
87
135
182
224
259
283
296
296
287
271
253
236
227
227
240
265
302
347
395
441
482
511
528
531
521
501
476
451
430
417
416
427
450
481
518
554
585
608
619
618
604
580
549
516
486
461
446
441
447
463
484
508
530
545
552
548
532
505
470
429
386
346
312
286
271
267
272
283
297
310
317
316
303
278
242
197
149
100
56
21
-2
-13
-11
1
19
38
53
62
60
46
22
-12
-51
-92
-130
-162
-184
-196
-197
-188
-172
-153
-134
-120
-112
-114
-126
-148
-178
-212
-247
-279
-304
-318
-321
-312
-293
-267
-238
-211
-189
-177
-175
-185
-205
-232
-262
-291
-315
-330
-335
-329
-314
-291
-264
-237
-214
-198
-191
-195
-209
-232
-260
-292
-321
-345
-359
-362
-353
-332
-301
-265
-229
-196
-172
-161
-163
-179
-207
-242
-279
-313
-338
-352
-351
-336
-308
-273
-236
-201
-173
-158
-156
-167
-191
-222
-257
-291
-318
-335
-340
-332
-313
-284
-251
-217
-187
-165
-154
-154
-166
-187
-215
-245
-273
-296
-309
-311
-303
-284
-257
-226
-195
-169
-150
-141
-143
-156
-178
-205
-234
-260
-279
-289
-288
-275
-254
-225
-194
-165
-141
-127
-125
-134
-155
-184
-218
-251
-279
-299
-306
-300
-282
-253
-217
-179
-143
-115
-98
-93
-101
-120
-147
-177
-206
-230
-244
-247
-238
-219
-193
-162
-132
-106
-88
-81
-86
-101
-124
-153
-183
-209
-229
-239
-238
-226
-204
-176
-146
-118
-96
-83
-81
-92
-112
-140
-172
-203
-229
-246
-253
-247
-230
-205
-175
-143
-115
-94
-84
-86
-99
-123
-154
-188
-222
-249
-267
-274
-267
-249
-222
-190
-157
-129
-110
-103
-109
-128
-156
-191
-226
-258
-281
-292
-290
-275
-250
-219
-185
-153
-129
-115
-113
-124
-145
-175
-208
-241
-268
-288
-296
-293
-278
-254
-224
-193
-165
-143
-132
-133
-145
-167
-196
-227
-257
-279
-292
-293
-282
-260
-232
-200
-170
-146
-132
-129
-138
-158
-185
-217
-249
-276
-296
-305
-302
-289
-266
-236
-204
-174
-148
-132
-126
-132
-149
-174
-205
-236
-265
-287
-299
-299
-288
-268
-240
-209
-180
-156
-141
-137
-145
-162
-188
-216
-244
-267
-281
-284
-275
-256
-229
-199
-170
-148
-135
-136
-149
-173
-206
-242
-276
-304
-321
-325
-315
-292
-259
-220
-180
-144
-115
-99
-95
-104
-124
-153
-186
-219
-246
-266
-274
-271
-256
-232
-203
-173
-146
-126
-115
-115
-126
-145
-169
-194
-217
-233
-240
-235
-220
-195
-163
-125
-87
-52
-23
-2
10
12
5
-8
-24
-39
-50
-54
-48
-33
-8
23
58
90
117
133
137
128
107
78
46
15
-8
-20
-17
2
33
75
122
168
208
237
252
253
241
218
189
159
132
112
102
103
115
136
162
191
217
239
253
258
253
240
219
195
171
149
134
125
126
135
150
170
190
208
221
225
220
206
184
157
127
98
73
52
39
33
32
36
42
47
49
47
38
22
-1
-30
-63
-97
-130
-159
-182
-197
-202
-200
-191
-177
-164
-153
-150
-156
-173
-200
-236
-277
-319
-357
-386
-403
-407
-397
-375
-345
-312
-280
-255
-239
-236
-246
-267
-297
-331
-365
-393
-413
-422
-419
-404
-380
-350
-317
-287
-263
-249
-246
-257
-279
-312
-351
-393
-432
-463
-483
-488
-476
-446
-399
-336
-261
-176
-83
15
119
230
351
487
643
825
1038
1286
1571
1894
2251
2637
3045
3465
3886
4299
4692
5057
5385
5669
5904
6084
6204
6259
6243
6152
5982
5732
5403
5003
4542
4038
3510
2983
2479
2021
1625
1302
1057
886
779
721
696
685
673
648
604
538
452
352
245
139
40
-45
-114
-165
-199
-218
-225
-225
-222
-221
-225
-237
-259
-292
-336
-388
-446
-505
-560
-608
-644
-667
-675
-671
-656
-636
-613
-593
-579
-575
-581
-598
-622
-653
-685
-715
-740
-757
-763
-759
-745
-724
-698
-671
-647
-630
-623
-626
-642
-666
-698
-731
-762
-786
-800
-800
-788
-765
-733
-698
-664
-636
-618
-612
-619
-637
-664
-695
-725
-751
-768
-775
-770
-754
-730
-700
-670
-643
-623
-613
-613
-624
-645
-671
-699
-724
-744
-754
-754
-743
-722
-693
-662
-631
-605
-586
-579
-583
-597
-621
-650
-680
-708
-729
-739
-738
-724
-699
-667
-630
-595
-564
-543
-533
-537
-552
-577
-608
-640
-668
-689
-699
-696
-682
-657
-625
-589
-555
-527
-507
-499
-502
-516
-538
-565
-593
-617
-635
-642
-639
-624
-601
-571
-538
-507
-482
-464
-457
-461
-474
-494
-517
-540
-557
-566
-564
-549
-523
-488
-447
-405
-367
-338
-320
-315
-322
-341
-366
-392
-416
-431
-434
-423
-398
-362
-317
-268
-220
-179
-148
-130
-124
-130
-144
-162
-178
-190
-191
-181
-159
-124
-81
-32
17
62
99
125
140
143
136
124
110
99
94
99
115
142
178
220
264
306
342
369
385
390
385
372
354
336
321
314
316
328
351
382
419
457
492
521
539
546
540
523
498
469
439
415
398
392
397
412
434
461
488
511
525
530
523
505
479
446
412
379
352
332
321
320
327
339
355
368
377
376
365
342
308
266
218
170
126
90
65
53
53
64
82
101
118
127
125
111
85
48
4
-43
-87
-125
-154
-171
-177
-173
-161
-145
-129
-117
-112
-115
-128
-151
-180
-214
-250
-282
-309
-326
-332
-326
-310
-286
-258
-230
-206
-190
-186
-194
-214
-244
-279
-316
-349
-373
-385
-384
-370
-344
-310
-275
-241
-215
-200
-198
-209
-233
-264
-299
-334
-362
-381
-388
-382
-365
-338
-307
-275
-247
-227
-217
-220
-233
-255
-283
-312
-338
-358
-370
-370
-361
-342
-317
-290
-263
-241
-227
-222
-227
-241
-263
-290
-317
-341
-358
-366
-363
-348
-325
-294
-262
-232
-208
-195
-194
-206
-229
-260
-295
-329
-356
-373
-377
-368
-347
-316
-281
-245
-215
-193
-183
-185
-198
-221
-249
-277
-302
-320
-327
-323
-308
-284
-254
-223
-195
-173
-160
-158
-168
-187
-212
-240
-268
-290
-304
-308
-302
-286
-262
-233
-203
-176
-156
-144
-143
-152
-170
-195
-222
-249
-271
-285
-290
-283
-266
-241
-211
-180
-153
-133
-123
-125
-138
-161
-191
-223
-253
-277
-291
-293
-282
-261
-232
-199
-167
-140
-121
-114
-120
-137
-163
-195
-227
-256
-277
-287
-286
-272
-249
-219
-187
-158
-135
-123
-122
-133
-154
-182
-213
-243
-267
-282
-286
-279
-261
-235
-205
-175
-149
-131
-124
-128
-144
-168
-200
-233
-264
-289
-305
-309
-301
-281
-254
-221
-189
-161
-143
-135
-141
-160
-188
-222
-257
-289
-312
-324
-323
-309
-285
-254
-221
-191
-168
-155
-154
-165
-186
-214
-245
-276
-301
-317
-324
-319
-303
-280
-251
-222
-195
-176
-166
-167
-179
-201
-229
-261
-292
-317
-334
-338
-331
-312
-284
-251
-219
-192
-173
-166
-173
-191
-220
-255
-290
-322
-344
-355
-352
-336
-309
-275
-239
-206
-180
-166
-164
-174
-196
-224
-256
-286
-310
-325
-329
-321
-303
-277
-248
-219
-194
-177
-170
-173
-187
-208
-235
-263
-289
-308
-318
-317
-305
-283
-254
-222
-191
-165
-147
-141
-147
-164
-189
-221
-253
-282
-304
-315
-315
-303
-281
-253
-221
-190
-165
-149
-144
-150
-167
-192
-222
-253
-280
-299
-308
-305
-291
-268
-238
-206
-177
-154
-141
-140
-150
-171
-198
-227
-254
-275
-285
-283
-269
-243
-209
-170
-130
-94
-65
-46
-37
-37
-46
-59
-73
-84
-90
-87
-75
-53
-23
13
49
82
107
122
125
114
92
63
31
1
-21
-31
-27
-8
24
66
113
160
200
231
248
252
243
224
199
171
147
128
119
119
130
150
175
203
230
252
267
273
269
257
238
215
192
172
157
151
153
164
180
200
219
235
244
244
235
216
191
161
130
101
76
59
50
49
55
66
79
91
98
98
88
69
39
2
-41
-84
-125
-160
-184
-196
-197
-187
-171
-151
-134
-124
-125
-140
-167
-206
-253
-303
-349
-387
-411
-419
-411
-388
-355
-315
-277
-244
-223
-216
-224
-246
-278
-315
-352
-383
-404
-411
-405
-386
-358
-325
-292
-263
-243
-232
-234
-247
-269
-298
-331
-364
-395
-422
-441
-454
-457
-451
-436
-412
-378
-335
-283
-221
-150
-68
27
135
260
404
573
768
994
1253
1545
1870
2226
2607
3008
3419
3834
4243
4638
5011
5354
5662
5927
6144
6305
6402
6427
6372
6230
5997
5674
5267
4788
4257
3695
3130
2590
2098
1674
1333
1078
904
802
753
738
738
735
716
673
604
512
405
291
178
75
-11
-78
-125
-153
-166
-168
-165
-161
-160
-168
-187
-217
-258
-309
-368
-429
-488
-540
-582
-610
-624
-623
-611
-591
-569
-548
-535
-533
-542
-563
-594
-631
-670
-705
-732
-748
-752
-743
-723
-696
-666
-637
-614
-600
-597
-607
-628
-657
-690
-723
-751
-771
-780
-775
-759
-733
-701
-667
-636
-613
-601
-601
-614
-637
-667
-700
-730
-754
-768
-771
-760
-739
-711
-678
-645
-617
-597
-588
-590
-603
-626
-655
-685
-714
-737
-751
-754
-744
-724
-695
-661
-626
-594
-570
-557
-557
-571
-595
-627
-662
-695
-721
-735
-736
-722
-696
-662
-623
-587
-557
-539
-535
-545
-568
-599
-635
-669
-697
-714
-718
-707
-683
-650
-611
-571
-536
-511
-498
-498
-513
-538
-571
-605
-637
-661
-672
-670
-652
-622
-583
-540
-499
-465
-442
-433
-439
-458
-486
-518
-550
-575
-589
-589
-574
-545
-506
-460
-413
-369
-333
-308
-297
-297
-309
-329
-352
-375
-393
-401
-399
-384
-358
-322
-280
-236
-194
-160
-135
-122
-121
-129
-145
-163
-179
-188
-188
-175
-151
-115
-71
-24
23
65
98
121
132
132
124
112
100
91
91
100
121
152
192
237
283
327
364
392
408
413
408
395
379
362
349
344
350
366
392
427
466
505
540
566
581
584
574
554
528
499
473
453
443
445
459
481
510
541
568
589
601
600
588
567
537
505
471
441
417
400
390
388
392
399
408
415
418
415
404
383
353
314
269
220
173
131
98
77
71
77
95
119
144
164
174
170
150
116
69
16
-37
-85
-123
-147
-156
-152
-136
-115
-92
-75
-65
-67
-81
-106
-141
-180
-220
-256
-284
-301
-305
-298
-281
-256
-229
-204
-185
-175
-176
-190
-214
-246
-281
-315
-344
-364
-373
-369
-354
-330
-302
-273
-249
-232
-225
-230
-245
-270
-299
-330
-357
-378
-389
-388
-376
-354
-326
-294
-264
-238
-221
-215
-219
-235
-258
-287
-317
-345
-366
-378
-378
-368
-347
-319
-288
-257
-231
-214
-208
-214
-232
-259
-291
-324
-352
-372
-381
-376
-359
-331
-297
-261
-229
-204
-191
-190
-202
-225
-254
-286
-315
-337
-349
-349
-337
-315
-286
-253
-223
-197
-181
-175
-181
-197
-221
-249
-278
-304
-322
-331
-330
-317
-295
-267
-236
-207
-183
-168
-163
-170
-187
-213
-243
-273
-300
-318
-326
-322
-306
-279
-247
-211
-178
-151
-134
-129
-137
-157
-185
-218
-251
-279
-298
-306
-300
-282
-254
-220
-184
-153
-129
-117
-118
-131
-155
-185
-218
-249
-272
-285
-285
-273
-251
-220
-187
-155
-129
-113
-110
-120
-142
-173
-209
-245
-276
-298
-308
-304
-287
-259
-224
-187
-154
-128
-114
-113
-125
-148
-179
-214
-248
-277
-297
-307
-306
-294
-274
-249
-222
-196
-175
-162
-159
-166
-182
-207
-237
-268
-297
-320
-333
-334
-323
-302
-272
-239
-206
-178
-159
-152
-156
-171
-193
-219
-244
-263
-273
-273
-261
-240
-213
-184
-157
-136
-125
-126
-138
-160
-189
-221
-251
-276
-293
-298
-292
-275
-251
-223
-194
-170
-154
-149
-155
-173
-200
-232
-265
-295
-318
-329
-329
-317
-295
-266
-234
-204
-180
-166
-164
-173
-194
-223
-256
-288
-317
-337
-346
-344
-331
-308
-279
-249
-221
-200
-188
-187
-198
-219
-248
-279
-308
-332
-345
-347
-336
-314
-283
-249
-215
-188
-171
-166
-176
-197
-228
-263
-299
-329
-351
-360
-357
-341
-316
-284
-251
-220
-196
-181
-179
-188
-208
-237
-270
-305
-336
-361
-375
-378
-368
-348
-319
-286
-252
-222
-198
-185
-183
-191
-207
-229
-252
-272
-286
-290
-283
-263
-233
-195
-152
-108
-68
-35
-12
-1
-1
-9
-24
-40
-54
-61
-59
-47
-24
6
39
71
97
113
116
106
86
58
27
-1
-22
-31
-27
-8
23
64
109
153
193
223
241
245
236
216
188
156
125
98
80
72
75
89
112
140
169
195
215
225
225
214
195
169
140
113
90
74
67
69
78
94
112
130
144
152
151
142
125
100
71
40
10
-16
-36
-48
-52
-49
-42
-32
-23
-19
-21
-32
-51
-79
-112
-149
-185
-216
-241
-257
-264
-262
-254
-242
-231
-223
-221
-227
-242
-265
-294
-326
-357
-385
-405
-417
-419
-411
-394
-371
-344
-318
-296
-281
-274
-276
-288
-307
-332
-359
-384
-404
-417
-420
-414
-398
-376
-349
-323
-300
-285
-281
-288
-308
-338
-375
-415
-453
-484
-502
-503
-486
-448
-391
-316
-227
-126
-17
97
216
340
472
618
782
972
1193
1450
1746
2080
2449
2845
3260
3680
4095
4492
4861
5194
5482
5722
5908
6037
6104
6103
6031
5882
5653
5344
4960
4511
4012
3483
2946
2426
1945
1524
1174
902
707
581
512
484
479
481
479
462
427
374
304
224
139
55
-23
-91
-147
-190
-220
-240
-251
-256
-257
-259
-263
-271
-287
-310
-341
-381
-425
-473
-521
-565
-601
-628
-643
-645
-637
-620
-599
-577
-559
-548
-548
-559
-580
-610
-644
-679
-710
-732
-744
-744
-732
-710
-682
-651
-623
-602
-590
-590
-601
-623
-652
-684
-715
-740
-756
-760
-751
-731
-703
-669
-636
-607
-587
-578
-581
-596
-620
-649
-679
-706
-724
-733
-729
-713
-688
-657
-623
-591
-565
-548
-543
-550
-568
-595
-626
-658
-686
-706
-715
-711
-694
-666
-632
-594
-560
-533
-518
-517
-529
-554
-586
-621
-653
-677
-688
-685
-668
-639
-602
-563
-526
-498
-482
-479
-491
-514
-545
-578
-610
-635
-650
-652
-642
-620
-590
-555
-521
-491
-469
-458
-460
-473
-496
-524
-555
-583
-604
-614
-611
-595
-567
-531
-490
-451
-416
-392
-381
-383
-397
-420
-448
-477
-499
-513
-514
-501
-476
-442
-401
-360
-322
-292
-273
-265
-269
-281
-300
-320
-339
-350
-353
-345
-326
-297
-261
-221
-181
-144
-114
-93
-81
-78
-84
-93
-105
-114
-117
-111
-95
-69
-33
9
55
101
142
175
198
211
214
208
197
186
177
174
181
199
226
263
306
351
395
433
463
481
488
484
470
450
429
409
396
391
398
415
442
476
513
549
579
600
609
606
591
567
539
509
484
466
459
465
481
507
538
570
597
616
621
613
590
555
512
465
420
382
355
341
341
352
371
392
411
423
422
408
379
339
289
236
184
139
103
80
69
71
81
96
112
123
127
121
103
74
37
-6
-49
-90
-123
-146
-158
-159
-150
-134
-115
-97
-85
-81
-86
-101
-125
-155
-188
-220
-248
-268
-279
-280
-272
-255
-234
-210
-187
-169
-158
-156
-163
-179
-201
-228
-255
-279
-297
-306
-305
-295
-276
-252
-225
-201
-182
-173
-173
-185
-205
-233
-263
-292
-315
-329
-332
-324
-305
-279
-248
-217
-191
-173
-165
-170
-185
-208
-237
-266
-292
-311
-320
-318
-305
-284
-256
-226
-198
-175
-161
-157
-164
-182
-209
-240
-273
-303
-326
-338
-339
-328
-305
-275
-240
-206
-177
-157
-149
-155
-172
-199
-231
-264
-292
-312
-320
-315
-298
-272
-240
-206
-176
-153
-141
-139
-150
-169
-195
-224
-250
-271
-283
-284
-275
-255
-229
-199
-170
-145
-128
-121
-126
-141
-163
-191
-220
-246
-265
-274
-273
-261
-239
-211
-180
-150
-125
-108
-101
-107
-122
-147
-177
-208
-236
-257
-268
-268
-255
-233
-203
-171
-141
-117
-102
-100
-109
-130
-158
-190
-220
-245
-260
-264
-255
-234
-204
-170
-136
-107
-87
-80
-86
-105
-134
-170
-206
-239
-264
-276
-276
-262
-237
-206
-173
-142
-119
-107
-107
-119
-142
-172
-204
-234
-258
-273
-277
-268
-250
-224
-195
-166
-141
-125
-120
-127
-145
-173
-207
-243
-277
-304
-320
-325
-316
-295
-265
-230
-196
-166
-145
-135
-139
-155
-180
-212
-246
-276
-299
-311
-311
-298
-275
-245
-213
-182
-158
-144
-142
-153
-174
-203
-236
-268
-294
-311
-316
-309
-291
-265
-234
-203
-177
-158
-150
-153
-167
-190
-219
-250
-278
-301
-314
-317
-309
-291
-265
-235
-206
-181
-165
-160
-167
-185
-213
-245
-277
-305
-325
-333
-327
-310
-282
-249
-214
-183
-160
-148
-149
-162
-185
-215
-248
-280
-305
-321
-326
-319
-302
-277
-248
-218
-193
-175
-167
-171
-187
-211
-241
-273
-301
-323
-333
-332
-318
-293
-261
-225
-192
-165
-147
-142
-150
-169
-197
-230
-262
-290
-310
-319
-315
-300
-275
-244
-211
-180
-157
-143
-142
-154
-177
-208
-245
-280
-311
-331
-339
-333
-313
-282
-244
-203
-166
-135
-115
-107
-111
-124
-143
-164
-180
-189
-187
-172
-144
-106
-62
-16
27
62
85
94
89
72
45
13
-18
-45
-63
-69
-63
-44
-14
21
60
96
126
148
159
159
150
134
114
94
77
67
66
75
93
118
148
179
206
227
237
237
225
203
174
143
113
89
76
75
86
108
138
172
204
230
244
246
233
207
172
131
91
55
30
16
16
27
47
72
96
114
124
122
106
80
43
0
-44
-86
-122
-149
-165
-169
-163
-148
-129
-108
-90
-80
-79
-91
-115
-150
-194
-243
-291
-333
-364
-382
-385
-374
-351
-321
-289
-261
-241
-234
-240
-259
-288
-323
-358
-388
-409
-418
-413
-396
-369
-337
-304
-275
-255
-246
-249
-264
-287
-315
-344
-370
-388
-398
-398
-388
-372
-351
-330
-310
-295
-285
-279
-276
-271
-260
-239
-203
-148
-71
30
155
304
475
668
881
1112
1361
1627
1909
2207
2522
2852
3196
3551
3914
4279
4640
4988
5313
5603
5845
6027
6134
6155
6082
5909
5638
5274
4832
4331
3793
3245
2714
2225
1797
1443
1169
973
844
766
723
694
665
622
559
477
379
273
169
77
4
-46
-72
-79
-71
-57
-45
-43
-55
-84
-130
-189
-256
-326
-392
-448
-491
-519
-530
-528
-515
-496
-477
-463
-457
-462
-480
-509
-547
-589
-630
-666
-691
-702
-699
-682
-654
-620
-585
-554
-532
-523
-529
-549
-581
-621
-664
-704
-735
-755
-759
-748
-724
-690
-651
-612
-580
-559
-551
-558
-579
-609
-644
-678
-706
-724
-729
-720
-698
-666
-630
-595
-565
-546
-539
-545
-563
-591
-624
-658
-687
-708
-718
-716
-702
-677
-646
-611
-576
-546
-525
-513
-513
-523
-543
-569
-598
-626
-649
-663
-666
-657
-638
-610
-576
-542
-513
-491
-481
-483
-498
-523
-555
-589
-619
-641
-652
-649
-633
-606
-571
-535
-500
-474
-459
-458
-470
-493
-525
-561
-594
-621
-637
-639
-627
-602
-566
-525
-484
-447
-419
-403
-400
-410
-431
-458
-486
-512
-531
-539
-535
-518
-491
-457
-419
-382
-350
-326
-313
-311
-320
-337
-359
-382
-403
-416
-419
-411
-390
-359
-321
-278
-236
-199
-171
-154
-150
-157
-172
-192
-211
-226
-232
-225
-206
-174
-133
-85
-35
11
49
76
92
95
87
73
57
43
35
37
51
77
114
158
206
254
296
329
350
358
354
340
319
297
277
264
261
270
290
321
360
402
444
481
508
525
530
524
508
487
464
444
430
425
432
449
475
508
542
575
600
615
617
606
584
552
515
478
444
418
402
397
403
418
436
455
470
477
473
457
430
393
350
305
263
227
200
185
180
185
197
211
224
231
228
214
189
152
108
60
12
-32
-67
-91
-102
-102
-93
-76
-57
-40
-29
-27
-34
-52
-80
-115
-153
-190
-222
-245
-258
-259
-249
-230
-205
-180
-159
-145
-143
-153
-175
-206
-242
-279
-311
-335
-346
-344
-329
-304
-272
-238
-207
-183
-169
-167
-178
-198
-226
-256
-285
-308
-323
-327
-319
-301
-274
-243
-211
-183
-163
-154
-156
-171
-197
-229
-264
-297
-324
-342
-348
-341
-324
-297
-266
-234
-206
-186
-177
-180
-196
-222
-255
-291
-324
-350
-364
-366
-353
-328
-294
-256
-219
-188
-169
-163
-171
-192
-223
-258
-293
-322
-342
-349
-344
-326
-299
-266
-232
-201
-178
-163
-160
-168
-184
-207
-232
-256
-275
-286
-287
-278
-259
-232
-203
-173
-147
-130
-123
-128
-144
-170
-201
-233
-262
-284
-295
-293
-278
-253
-220
-184
-149
-121
-102
-95
-101
-118
-144
-174
-205
-231
-250
-257
-252
-235
-210
-178
-144
-114
-90
-77
-76
-87
-108
-137
-170
-201
-227
-244
-249
-241
-222
-194
-162
-130
-104
-88
-84
-94
-117
-149
-187
-224
-256
-279
-287
-282
-262
-231
-193
-154
-118
-90
-74
-72
-84
-107
-139
-176
-211
-241
-261
-270
-266
-251
-226
-196
-165
-138
-119
-110
-112
-126
-150
-179
-211
-241
-265
-281
-285
-278
-261
-236
-208
-180
-156
-140
-133
-138
-153
-177
-206
-236
-263
-284
-294
-293
-280
-257
-227
-194
-163
-137
-121
-116
-123
-141
-167
-199
-231
-260
-282
-293
-293
-283
-263
-237
-209
-183
-163
-152
-152
-163
-184
-212
-242
-271
-295
-309
-312
-303
-283
-256
-224
-194
-168
-152
-147
-154
-171
-198
-228
-259
-286
-305
-314
-311
-297
-274
-245
-215
-187
-166
-153
-151
-161
-180
-206
-237
-268
-294
-312
-320
-317
-302
-277
-245
-211
-180
-155
-141
-140
-152
-175
-208
-245
-281
-311
-330
-335
-326
-303
-271
-233
-195
-163
-141
-133
-139
-159
-189
-225
-262
-294
-317
-327
-324
-307
-281
-247
-212
-180
-154
-139
-137
-146
-166
-193
-224
-254
-279
-296
-301
-295
-278
-251
-220
-187
-158
-136
-125
-126
-138
-161
-191
-223
-254
-279
-294
-299
-291
-273
-247
-217
-187
-163
-147
-142
-148
-166
-192
-224
-257
-287
-309
-320
-319
-305
-281
-249
-215
-182
-156
-140
-136
-145
-165
-192
-224
-253
-277
-291
-292
-279
-255
-221
-181
-140
-102
-71
-48
-37
-35
-43
-57
-73
-88
-98
-100
-91
-72
-42
-4
38
81
120
150
168
173
163
141
110
75
42
15
0
-1
14
43
83
129
176
218
250
269
274
265
244
217
188
161
141
132
134
148
170
198
228
256
276
287
287
275
254
227
197
169
146
133
130
139
159
185
215
244
266
278
277
264
238
204
165
126
93
69
57
57
67
85
106
126
141
146
140
122
93
56
14
-29
-69
-103
-128
-143
-148
-143
-131
-115
-98
-84
-76
-77
-88
-111
-144
-184
-229
-273
-312
-341
-359
-362
-351
-329
-300
-267
-236
-213
-199
-199
-211
-235
-265
-299
-331
-356
-371
-374
-366
-347
-321
-293
-266
-244
-231
-227
-234
-249
-272
-298
-324
-348
-368
-382
-388
-388
-381
-368
-350
-327
-298
-265
-225
-177
-118
-47
39
143
269
418
594
799
1033
1298
1593
1915
2261
2628
3010
3400
3794
4183
4562
4926
5266
5578
5853
6085
6264
6380
6423
6383
6252
6027
5709
5304
4826
4295
3736
3177
2647
2169
1763
1441
1205
1048
957
913
895
883
860
814
741
642
522
393
265
149
51
-23
-71
-96
-103
-98
-88
-79
-77
-86
-107
-142
-188
-244
-304
-366
-425
-476
-516
-543
-556
-556
-546
-528
-508
-490
-480
-479
-491
-515
-548
-588
-629
-666
-696
-712
-715
-704
-682
-651
-616
-584
-558
-542
-540
-550
-571
-600
-633
-664
-690
-706
-711
-704
-686
-661
-632
-604
-581
-567
-562
-568
-584
-607
-634
-662
-686
-703
-712
-710
-700
-682
-658
-633
-609
-589
-576
-571
-576
-589
-609
-633
-657
-678
-694
-700
-695
-680
-656
-625
-591
-559
-533
-516
-511
-519
-538
-566
-597
-629
-654
-670
-674
-664
-642
-611
-574
-538
-507
-487
-480
-487
-508
-539
-576
-613
-645
-667
-676
-670
-650
-618
-580
-540
-503
-474
-457
-452
-460
-479
-504
-532
-557
-576
-586
-584
-571
-548
-518
-484
-450
-419
-395
-381
-378
-385
-401
-425
-452
-479
-502
-516
-520
-511
-491
-459
-421
-380
-341
-309
-287
-277
-280
-295
-318
-344
-369
-388
-397
-393
-376
-348
-310
-267
-224
-185
-153
-133
-124
-125
-136
-152
-170
-185
-193
-191
-178
-152
-116
-71
-23
25
68
104
129
143
146
142
132
123
117
118
129
151
184
224
268
313
354
388
411
422
422
412
396
377
361
351
350
361
383
415
455
499
541
578
606
621
623
613
592
565
537
512
494
487
493
510
537
571
606
637
661
672
671
656
630
595
556
519
486
461
447
443
449
461
477
492
502
506
500
483
457
423
383
342
303
269
244
228
223
226
235
247
257
262
258
244
219
185
143
99
54
15
-17
-38
-50
-51
-44
-33
-19
-7
1
1
-7
-25
-50
-82
-118
-154
-186
-211
-227
-231
-225
-208
-185
-159
-134
-115
-105
-107
-121
-146
-178
-214
-248
-276
-294
-300
-294
-276
-250
-220
-191
-167
-152
-147
-155
-173
-200
-232
-264
-293
-315
-326
-326
-315
-294
-265
-233
-202
-176
-158
-150
-154
-168
-192
-222
-253
-282
-304
-317
-319
-309
-289
-262
-231
-202
-178
-163
-159
-168
-187
-213
-244
-274
-298
-314
-318
-310
-292
-266
-237
-208
-184
-168
-163
-168
-184
-207
-234
-261
-284
-300
-304
-298
-280
-253
-219
-184
-150
-124
-108
-104
-113
-133
-163
-197
-230
-259
-278
-285
-279
-260
-232
-199
-165
-135
-113
-102
-103
-116
-138
-166
-195
-220
-238
-246
-243
-228
-203
-172
-138
-107
-81
-65
-61
-69
-88
-116
-147
-179
-206
-224
-232
-227
-211
-187
-159
-130
-106
-89
-83
-86
-100
-121
-145
-170
-191
-206
-212
-210
-198
-179
-155
-129
-104
-83
-69
-63
-66
-79
-99
-125
-154
-182
-206
-223
-229
-224
-209
-185
-155
-124
-96
-75
-64
-65
-78
-101
-131
-164
-194
-218
-232
-233
-223
-202
-173
-141
-111
-86
-70
-66
-73
-92
-119
-150
-180
-206
-223
-230
-226
-211
-188
-161
-134
-111
-97
-92
-97
-113
-136
-164
-192
-216
-233
-241
-238
-225
-204
-177
-149
-123
-104
-93
-93
-104
-126
-155
-187
-219
-247
-266
-274
-269
-252
-226
-194
-161
-130
-108
-96
-97
-111
-135
-166
-200
-232
-259
-275
-281
-274
-256
-231
-200
-170
-143
-123
-112
-113
-125
-146
-174
-204
-233
-257
-273
-277
-271
-254
-229
-200
-170
-144
-127
-120
-126
-143
-169
-200
-232
-260
-280
-289
-285
-269
-244
-212
-178
-147
-123
-108
-105
-114
-134
-161
-191
-221
-247
-263
-270
-264
-248
-223
-193
-162
-134
-115
-106
-111
-127
-154
-188
-225
-259
-285
-301
-303
-291
-268
-236
-199
-162
-130
-108
-99
-102
-119
-146
-181
-218
-251
-277
-292
-293
-280
-253
-218
-177
-137
-104
-81
-73
-80
-101
-133
-171
-210
-244
-268
-278
-274
-256
-228
-194
-159
-128
-106
-96
-98
-112
-134
-162
-190
-215
-232
-240
-236
-222
-199
-170
-140
-111
-88
-73
-68
-73
-86
-106
-128
-150
-167
-176
-175
-162
-138
-103
-61
-15
30
70
101
121
128
123
107
83
57
31
11
-1
-2
8
27
53
82
111
134
149
155
151
140
124
106
92
85
89
104
131
168
212
259
303
341
367
379
376
359
330
293
252
215
184
164
158
167
187
218
254
291
323
346
357
354
338
310
274
235
196
164
141
131
133
148
171
200
229
253
268
271
260
235
197
152
102
54
12
-20
-39
-46
-40
-25
-6
14
30
37
33
19
-7
-41
-79
-118
-154
-182
-200
-208
-206
-196
-182
-168
-157
-152
-157
-171
-195
-225
-258
-291
-318
-336
-343
-338
-321
-294
-261
-227
-196
-171
-157
-154
-164
-184
-212
-245
-278
-306
-326
-336
-332
-317
-291
-258
-224
-192
-169
-158
-163
-183
-217
-260
-305
-343
-368
-370
-345
-289
-202
-86
55
214
385
565
748
935
1128
1330
1547
1786
2054
2353
2686
3052
3446
3860
4284
4704
5105
5474
5797
6061
6254
6370
6401
6346
6203
5977
5673
5302
4874
4407
3916
3420
2936
2481
2069
1709
1407
1165
978
839
740
669
618
576
537
496
453
407
359
311
262
215
169
122
74
24
-28
-82
-135
-184
-228
-264
-289
-303
-308
-307
-303
-301
-304
-316
-340
-373
-415
-460
-506
-546
-576
-593
-596
-586
-565
-538
-509
-483
-465
-458
-463
-480
-507
-541
-577
-611
-640
-660
-669
-667
-654
-634
-609
-582
-557
-538
-526
-524
-531
-546
-566
-589
-610
-627
-635
-633
-622
-601
-575
-546
-520
-499
-488
-487
-499
-520
-548
-578
-606
-627
-638
-637
-623
-599
-568
-535
-503
-478
-463
-461
-470
-490
-519
-552
-584
-612
-631
-639
-635
-618
-590
-556
-519
-483
-455
-437
-432
-441
-462
-492
-527
-562
-592
-611
-618
-612
-593
-564
-530
-496
-467
-446
-437
-441
-456
-480
-508
-537
-562
-579
-585
-580
-562
-535
-500
-462
-425
-392
-367
-353
-351
-361
-380
-407
-436
-464
-485
-498
-498
-486
-462
-430
-394
-358
-327
-306
-296
-299
-313
-336
-363
-390
-411
-422
-422
-408
-382
-347
-305
-261
-220
-186
-161
-147
-145
-153
-168
-187
-207
-224
-234
-235
-226
-207
-180
-146
-110
-74
-42
-16
2
12
16
15
12
11
16
28
50
81
121
166
213
259
298
327
345
350
343
327
306
284
266
256
257
273
301
341
389
440
490
533
565
583
587
578
558
534
508
488
477
479
493
520
556
597
638
673
699
712
711
698
674
643
610
579
553
537
530
534
546
564
584
603
616
621
616
600
574
540
501
460
423
392
369
356
352
356
364
373
379
379
372
356
333
303
270
236
203
175
152
135
124
117
114
112
111
108
102
91
75
53
27
-4
-36
-68
-96
-117
-130
-133
-126
-112
-92
-71
-54
-43
-43
-54
-75
-105
-141
-177
-210
-236
-253
-259
-254
-241
-222
-201
-182
-168
-161
-162
-172
-189
-211
-234
-255
-272
-281
-281
-272
-256
-234
-209
-185
-164
-150
-143
-145
-155
-170
-190
-211
-231
-247
-258
-262
-259
-249
-233
-214
-193
-173
-158
-150
-150
-160
-180
-207
-238
-269
-296
-315
-322
-316
-297
-267
-231
-193
-159
-133
-120
-120
-133
-158
-189
-223
-255
-280
-295
-298
-289
-269
-241
-208
-175
-144
-120
-106
-103
-111
-129
-155
-184
-211
-233
-245
-244
-230
-203
-169
-130
-94
-66
-51
-51
-66
-95
-133
-174
-213
-243
-260
-262
-249
-224
-190
-152
-116
-86
-66
-59
-63
-79
-103
-132
-161
-187
-206
-214
-212
-200
-179
-152
-124
-98
-80
-70
-73
-86
-108
-136
-165
-190
-208
-216
-211
-196
-171
-140
-108
-80
-58
-47
-47
-58
-77
-102
-130
-156
-177
-191
-194
-189
-174
-153
-128
-102
-80
-63
-55
-57
-68
-89
-115
-145
-173
-196
-211
-215
-208
-189
-162
-130
-97
-68
-47
-36
-37
-51
-75
-105
-139
-172
-198
-214
-219
-211
-192
-165
-134
-102
-76
-59
-52
-58
-74
-99
-128
-157
-181
-197
-202
-196
-181
-157
-130
-104
-82
-68
-63
-69
-84
-107
-135
-163
-189
-208
-218
-219
-210
-192
-168
-142
-117
-96
-84
-82
-90
-109
-135
-166
-198
-226
-247
-258
-258
-246
-225
-196
-164
-133
-105
-85
-74
-75
-86
-105
-131
-159
-186
-207
-221
-225
-218
-203
-180
-155
-130
-111
-100
-99
-110
-132
-161
-194
-226
-253
-270
-275
-265
-243
-210
-169
-128
-90
-61
-44
-43
-56
-83
-119
-160
-198
-229
-247
-251
-239
-213
-177
-137
-98
-66
-47
-42
-53
-78
-112
-150
-186
-215
-233
-236
-225
-201
-169
-133
-98
-69
-51
-45
-53
-72
-101
-134
-168
-197
-217
-227
-225
-211
-186
-156
-122
-91
-67
-53
-51
-63
-86
-119
-158
-198
-233
-259
-273
-273
-258
-231
-195
-154
-115
-81
-58
-47
-50
-67
-93
-126
-160
-191
-214
-226
-225
-213
-190
-161
-129
-99
-76
-61
-56
-62
-76
-95
-115
-131
-139
-137
-122
-95
-57
-11
38
85
125
156
173
177
167
147
119
88
58
34
18
11
14
26
45
67
90
110
126
136
140
138
133
126
122
122
128
143
165
194
228
262
294
319
335
338
330
310
282
248
214
184
161
148
147
157
177
203
231
258
279
293
296
289
272
248
220
191
165
145
133
131
138
152
171
192
210
223
227
221
204
177
143
104
65
29
-1
-21
-30
-29
-20
-4
13
29
40
42
34
15
-12
-47
-85
-123
-158
-186
-207
-220
-224
-221
-212
-202
-191
-183
-180
-184
-195
-213
-237
-263
-289
-311
-324
-327
-317
-295
-262
-224
-186
-153
-131
-123
-132
-156
-192
-235
-277
-312
-335
-341
-331
-306
-271
-230
-192
-160
-141
-136
-144
-165
-193
-221
-245
-256
-249
-218
-162
-78
33
168
325
498
683
876
1076
1280
1490
1708
1938
2185
2453
2747
3067
3413
3778
4156
4536
4903
5243
5541
5781
5950
6038
6035
5941
5756
5486
5141
4734
4284
3808
3327
2860
2423
2030
1688
1404
1175
996
861
759
678
611
549
487
425
362
301
246
198
161
133
113
97
80
59
30
-8
-55
-108
-163
-217
-263
-300
-325
-338
-342
-340
-336
-335
-339
-352
-373
-402
-437
-472
-506
-534
-554
-562
-559
-546
-525
-499
-472
-448
-431
-424
-429
-445
-470
-502
-536
-569
-594
-610
-614
-607
-589
-565
-539
-515
-497
-488
-490
-503
-525
-553
-583
-610
-631
-642
-642
-629
-607
-576
-542
-508
-478
-457
-446
-448
-462
-486
-517
-550
-581
-605
-618
-619
-607
-584
-552
-516
-481
-452
-434
-429
-438
-461
-495
-535
-576
-612
-639
-652
-650
-633
-603
-563
-518
-475
-438
-412
-399
-402
-418
-445
-479
-513
-544
-565
-574
-570
-552
-524
-491
-456
-426
-405
-397
-401
-418
-444
-476
-508
-536
-556
-564
-559
-542
-515
-481
-443
-407
-375
-352
-339
-338
-347
-366
-391
-417
-442
-460
-469
-467
-454
-432
-403
-371
-343
-321
-310
-312
-326
-350
-380
-412
-440
-459
-465
-456
-432
-395
-348
-294
-240
-190
-148
-119
-103
-102
-113
-134
-161
-189
-214
-231
-237
-229
-208
-175
-133
-86
-39
4
37
59
67
62
48
27
6
-11
-19
-14
4
36
80
131
186
239
286
322
344
353
350
337
319
300
284
277
281
296
323
358
399
440
477
507
526
534
531
519
502
484
468
457
455
461
477
499
527
555
583
605
620
625
621
607
584
556
524
494
469
451
443
446
457
475
496
514
526
528
517
493
458
416
370
326
289
262
247
245
253
268
287
305
318
323
318
302
276
241
200
157
116
78
49
28
16
13
16
24
32
36
35
25
6
-22
-57
-97
-137
-173
-202
-220
-226
-221
-205
-183
-157
-132
-113
-103
-104
-118
-142
-174
-210
-245
-275
-295
-304
-300
-283
-257
-226
-192
-161
-137
-123
-119
-127
-144
-167
-194
-220
-242
-257
-263
-260
-249
-231
-209
-187
-169
-158
-155
-164
-181
-207
-237
-268
-296
-315
-325
-322
-308
-284
-253
-221
-191
-168
-154
-150
-158
-175
-199
-226
-252
-274
-290
-298
-297
-288
-271
-248
-223
-198
-176
-159
-151
-151
-161
-180
-206
-235
-264
-289
-304
-309
-301
-281
-252
-217
-183
-156
-139
-135
-146
-170
-202
-238
-271
-296
-308
-305
-287
-258
-221
-182
-148
-122
-109
-109
-123
-146
-176
-207
-236
-258
-270
-271
-262
-244
-221
-195
-171
-152
-141
-140
-149
-168
-194
-224
-254
-280
-299
-309
-306
-293
-270
-240
-208
-177
-151
-134
-127
-131
-145
-166
-191
-216
-237
-252
-259
-257
-247
-231
-210
-189
-171
-158
-153
-158
-172
-194
-221
-252
-281
-305
-320
-325
-318
-300
-273
-241
-208
-177
-152
-135
-128
-129
-139
-154
-170
-186
-199
-206
-206
-200
-189
-175
-159
-144
-134
-130
-134
-147
-169
-197
-230
-263
-294
-317
-331
-333
-322
-301
-272
-238
-206
-178
-159
-152
-156
-171
-193
-220
-245
-266
-278
-280
-271
-251
-223
-191
-159
-131
-111
-101
-104
-120
-147
-182
-221
-259
-292
-315
-326
-323
-307
-280
-247
-213
-183
-162
-154
-160
-180
-212
-250
-289
-324
-349
-360
-356
-337
-307
-269
-230
-195
-170
-157
-159
-174
-199
-230
-263
-291
-311
-321
-319
-305
-282
-254
-223
-194
-170
-154
-149
-154
-170
-194
-225
-258
-289
-314
-331
-336
-328
-309
-280
-246
-212
-182
-163
-156
-163
-184
-215
-252
-289
-320
-343
-353
-349
-334
-309
-280
-250
-225
-207
-200
-203
-216
-236
-261
-287
-310
-326
-332
-329
-314
-291
-261
-229
-198
-174
-159
-155
-164
-184
-213
-245
-277
-304
-322
-329
-325
-312
-291
-269
-249
-234
-228
-231
-242
-261
-284
-307
-328
-344
-354
-355
-348
-333
-312
-287
-259
-232
-206
-185
-170
-163
-166
-177
-195
-218
-243
-266
-282
-288
-284
-268
-243
-211
-178
-147
-125
-114
-116
-131
-157
-188
-220
-247
-264
-268
-256
-230
-191
-144
-94
-46
-6
22
36
35
21
-4
-34
-66
-94
-113
-119
-113
-93
-62
-23
20
60
94
116
126
121
104
78
48
17
-7
-20
-20
-4
25
64
109
154
191
217
226
218
194
156
111
64
22
-9
-25
-24
-6
27
69
115
159
195
218
227
220
199
167
129
89
52
24
8
5
14
34
62
92
119
139
148
143
125
94
54
9
-37
-78
-111
-132
-140
-135
-121
-100
-77
-56
-42
-38
-46
-66
-97
-136
-179
-220
-256
-281
-294
-294
-281
-259
-233
-206
-185
-173
-173
-186
-211
-245
-283
-321
-353
-375
-386
-383
-367
-342
-310
-276
-245
-222
-208
-208
-219
-242
-273
-309
-343
-371
-390
-397
-391
-373
-346
-316
-286
-261
-245
-240
-246
-262
-282
-304
-320
-324
-312
-280
-226
-149
-51
65
197
339
488
644
804
969
1142
1327
1528
1752
2002
2281
2590
2924
3279
3646
4013
4367
4695
4984
5223
5401
5510
5544
5500
5378
5179
4907
4571
4180
3750
3297
2837
2389
1970
1594
1270
1004
794
636
522
439
379
330
285
241
195
149
106
67
34
8
-13
-33
-53
-78
-109
-146
-189
-234
-277
-314
-341
-357
-362
-358
-349
-340
-336
-340
-355
-383
-421
-467
-515
-562
-602
-633
-653
-659
-654
-638
-614
-587
-559
-534
-515
-504
-503
-511
-529
-553
-581
-609
-633
-650
-656
-652
-637
-612
-583
-552
-525
-505
-497
-501
-518
-544
-576
-609
-638
-660
-671
-670
-657
-636
-608
-579
-553
-533
-523
-525
-537
-559
-587
-618
-647
-670
-683
-685
-674
-652
-620
-583
-544
-510
-484
-469
-467
-477
-499
-528
-560
-590
-614
-628
-631
-622
-602
-576
-547
-519
-498
-485
-482
-490
-508
-532
-559
-585
-608
-623
-629
-625
-612
-591
-565
-536
-507
-481
-461
-449
-445
-450
-462
-480
-500
-520
-535
-543
-543
-533
-514
-489
-461
-434
-412
-398
-394
-401
-418
-441
-467
-492
-510
-518
-515
-499
-473
-438
-399
-361
-328
-304
-292
-293
-306
-328
-356
-385
-410
-426
-429
-418
-393
-356
-312
-265
-220
-183
-157
-146
-147
-160
-181
-205
-227
-242
-247
-240
-221
-192
-156
-117
-80
-48
-24
-9
-4
-9
-19
-33
-46
-55
-56
-48
-28
3
44
91
141
191
235
271
295
308
308
300
285
268
254
246
248
260
282
314
353
394
433
468
493
508
512
505
489
469
446
426
412
407
412
427
451
482
515
548
577
596
605
603
588
564
533
499
465
436
414
402
401
409
426
447
469
487
499
500
489
466
434
396
355
318
289
270
264
270
285
305
324
337
339
326
299
257
206
149
93
43
4
-21
-31
-28
-14
5
24
39
46
41
26
1
-32
-68
-104
-135
-158
-171
-173
-164
-148
-128
-106
-88
-76
-74
-82
-100
-127
-160
-195
-229
-257
-276
-285
-282
-268
-245
-216
-186
-160
-140
-131
-134
-149
-176
-209
-246
-282
-310
-328
-332
-322
-299
-267
-229
-192
-161
-141
-134
-141
-161
-192
-228
-264
-295
-318
-328
-326
-311
-287
-257
-225
-195
-172
-158
-155
-162
-180
-204
-233
-262
-289
-309
-320
-321
-312
-293
-267
-237
-206
-177
-156
-143
-141
-150
-169
-194
-222
-249
-271
-285
-288
-280
-261
-234
-202
-170
-141
-120
-110
-111
-124
-146
-174
-203
-229
-248
-257
-255
-242
