424
385
359
346
342
346
351
353
349
335
312
279
239
195
150
109
74
47
29
19
17
20
27
34
38
39
32
17
-6
-36
-72
-111
-148
-181
-205
-219
-221
-213
-196
-175
-154
-139
-131
-134
-148
-171
-201
-234
-266
-291
-309
-318
-317
-309
-296
-281
-267
-257
-252
-255
-263
-278
-298
-320
-341
-360
-373
-377
-372
-356
-330
-296
-257
-219
-185
-161
-150
-153
-170
-200
-238
-278
-316
-345
-362
-367
-358
-339
-314
-287
-264
-248
-242
-247
-262
-284
-310
-336
-358
-373
-380
-378
-367
-349
-327
-304
-283
-266
-256
-254
-260
-274
-295
-320
-346
-370
-388
-398
-399
-389
-372
-348
-322
-297
-277
-266
-265
-274
-292
-316
-342
-367
-385
-395
-394
-383
-363
-338
-309
-283
-262
-249
-247
-256
-274
-300
-329
-359
-384
-401
-406
-400
-382
-355
-322
-289
-260
-240
-231
-233
-247
-269
-295
-321
-341
-353
-355
-347
-331
-309
-284
-261
-241
-225
-215
-211
-211
-216
-224
-235
-249
-265
-281
-297
-312
-322
-327
-324
-314
-297
-275
-250
-227
-209
-199
-198
-207
-224
-248
-273
-295
-312
-319
-316
-303
-281
-255
-229
-206
-190
-184
-189
-205
-227
-253
-279
-299
-312
-314
-305
-287
-262
-236
-211
-192
-182
-183
-194
-213
-238
-264
-288
-306
-315
-316
-309
-296
-279
-263
-249
-242
-242
-249
-262
-279
-295
-308
-316
-317
-310
-298
-281
-262
-244
-231
-222
-218
-218
-221
-225
-230
-235
-241
-249
-259
-273
-290
-309
-328
-343
-350
-349
-336
-315
-288
-260
-236
-221
-221
-237
-267
-309
-357
-405
-446
-475
-488
-483
-462
-427
-383
-335
-287
-243
-207
-180
-161
-150
-145
-142
-140
-135
-126
-112
-93
-70
-47
-27
-12
-6
-11
-26
-50
-80
-112
-139
-158
-166
-160
-143
-117
-86
-56
-32
-16
-11
-17
-29
-45
-59
-66
-62
-45
-15
26
76
131
184
232
271
300
315
319
311
295
274
250
227
208
195
190
194
205
223
246
270
290
304
308
300
279
245
200
146
88
29
-27
-76
-116
-146
-166
-175
-177
-172
-164
-157
-154
-158
-171
-195
-230
-274
-325
-376
-424
-463
-489
-498
-491
-469
-437
-401
-368
-344
-335
-341
-364
-398
-439
-477
-506
-520
-515
-491
-451
-401
-348
-300
-265
-247
-248
-269
-304
-348
-395
-437
-469
-488
-494
-488
-473
-454
-435
-420
-411
-410
-415
-425
-438
-450
-460
-467
-469
-467
-462
-455
-446
-437
-429
-422
-416
-411
-408
-407
-410
-416
-426
-440
-456
-473
-488
-498
-500
-492
-476
-451
-420
-388
-360
-340
-333
-341
-364
-400
-446
-496
-544
-586
-616
-632
-631
-615
-584
-542
-491
-434
-373
-308
-238
-160
-68
42
178
347
555
806
1103
1445
1825
2233
2657
3077
3474
3829
4122
4338
4463
4493
4427
4271
4036
3737
3393
3024
2647
2282
1940
1632
1363
1133
938
774
632
505
386
272
160
53
-46
-134
-206
-258
-290
-303
-299
-285
-266
-249
-237
-234
-241
-258
-281
-307
-333
-353
-367
-374
-373
-368
-361
-355
-354
-359
-372
-392
-417
-443
-468
-486
-495
-494
-484
-466
-443
-420
-401
-390
-387
-395
-411
-433
-456
-479
-496
-508
-511
-508
-499
-484
-467
-449
-430
-412
-395
-382
-372
-366
-365
-369
-379
-392
-407
-422
-434
-441
-442
-436
-422
-403
-382
-360
-340
-326
-319
-320
-329
-343
-361
-379
-395
-406
-409
-404
-392
-374
-353
-332
-316
-307
-306
-313
-327
-344
-361
-373
-376
-369
-351
-323
-288
-251
-215
-186
-165
-155
-157
-169
-189
-215
-243
-271
-294
-311
-320
-320
-310
-292
-267
-238
-209
-183
-163
-151
-149
-157
-171
-190
-209
-225
-233
-232
-221
-201
-174
-144
-115
-91
-75
-69
-73
-87
-107
-132
-156
-177
-190
-194
-187
-169
-141
-104
-63
-21
18
50
74
87
89
82
68
52
38
29
28
36
54
79
107
136
161
179
189
192
187
178
168
160
155
155
160
169
181
194
208
222
236
250
264
279
294
308
321
330
337
341
344
349
357
371
392
419
450
482
510
532
543
542
531
512
489
469
456
454
465
489
521
558
595
625
645
653
649
633
611
585
559
537
522
516
517
526
541
559
579
600
618
633
642
645
642
631
615
593
568
544
522
505
497
498
508
525
545
565
580
584
576
553
516
471
421
373
334
309
300
307
327
353
378
393
393
372
330
270
196
117
41
-25
-74
-104
-114
-106
-85
-59
-32
-10
1
0
-14
-41
-79
-123
-171
-218
-260
-296
-322
-336
-340
-335
-322
-306
-289
-277
-271
-274
-285
-304
-328
-354
-377
-396
-406
-408
-402
-388
-370
-352
-335
-323
-318
-320
-329
-345
-367
-391
-417
-441
-463
-478
-488
-489
-483
-469
-448
-423
-397
-372
-352
-339
-336
-343
-359
-383
-410
-438
-462
-480
-490
-489
-480
-464
-443
-422
-404
-391
-385
-387
-396
-412
-432
-454
-475
-493
-508
-517
-520
-518
-512
-501
-489
-475
-464
-454
-449
-449
-455
-465
-479
-494
-510
-524
-533
-537
-536
-528
-517
-504
-491
-482
-479
-483
-494
-510
-529
-549
-566
-577
-579
-572
-557
-535
-511
-486
-464
-448
-438
-434
-436
-441
-445
-449
-449
-445
-439
-430
-422
-415
-411
-412
-417
-426
-437
-449
-460
-470
-477
-481
-482
-479
-473
-464
-451
-436
-419
-400
-382
-366
-353
-347
-347
-355
-370
-391
-414
-437
-455
-466
-465
-453
-430
-399
-362
-325
-294
-273
-265
-271
-291
-321
-357
-392
-422
-440
-443
-433
-408
-375
-338
-302
-272
-254
-250
-259
-279
-308
-341
-374
-400
-419
-426
-422
-408
-385
-357
-328
-300
-278
-265
-261
-267
-283
-305
-330
-354
-374
-386
-388
-380
-363
-340
-315
-293
-277
-270
-273
-287
-309
-335
-362
-384
-398
-403
-398
-383
-362
-338
-315
-296
-284
-280
-285
-298
-316
-337
-358
-377
-393
-404
-411
-412
-410
-403
-394
-383
-371
-358
-346
-336
-330
-329
-333
-342
-356
-374
-392
-408
-420
-424
-419
-405
-383
-356
-327
-300
-280
-270
-272
-285
-309
-340
-374
-406
-431
-445
-448
-437
-414
-382
-345
-307
-272
-244
-225
-217
-219
-229
-243
-260
-273
-281
-279
-268
-246
-216
-182
-147
-115
-92
-79
-80
-93
-118
-149
-182
-211
-231
-237
-229
-206
-169
-123
-74
-27
11
38
51
50
38
19
0
-14
-18
-7
19
60
111
169
226
276
315
337
342
331
305
268
227
186
151
124
109
107
116
133
156
179
197
206
202
181
143
90
23
-52
-128
-200
-261
-307
-336
-347
-343
-329
-311
-294
-284
-284
-296
-319
-350
-384
-417
-445
-465
-474
-472
-463
-447
-430
-413
-400
-392
-390
-395
-404
-417
-432
-448
-463
-476
-486
-492
-493
-488
-479
-465
-448
-431
-416
-406
-404
-409
-424
-446
-473
-500
-523
-540
-547
-545
-533
-516
-495
-477
-464
-457
-460
-469
-484
-501
-517
-530
-538
-541
-540
-536
-530
-524
-517
-511
-505
-499
-492
-487
-482
-481
-484
-492
-505
-522
-540
-556
-567
-570
-565
-551
-531
-508
-487
-474
-471
-484
-511
-552
-603
-657
-708
-749
-773
-774
-751
-703
-632
-543
-439
-325
-205
-79
56
203
372
571
806
1085
1409
1774
2173
2591
3010
3409
3767
4062
4278
4401
4424
4346
4172
3912
3582
3200
2788
2369
1962
1587
1258
983
764
599
478
389
318
250
174
84
-21
-138
-259
-373
-468
-536
-570
-569
-536
-480
-412
-344
-287
-250
-238
-252
-289
-344
-406
-468
-521
-559
-578
-578
-559
-526
-484
-440
-401
-371
-353
-349
-358
-378
-405
-434
-463
-485
-500
-506
-503
-493
-479
-464
-451
-444
-442
-446
-456
-470
-485
-499
-510
-515
-513
-505
-489
-469
-445
-420
-397
-378
-366
-362
-367
-379
-397
-418
-439
-455
-464
-462
-451
-430
-401
-368
-336
-309
-289
-280
-282
-295
-316
-342
-370
-395
-414
-426
-429
-424
-411
-394
-374
-354
-336
-323
-315
-313
-315
-321
-329
-336
-340
-340
-335
-325
-309
-290
-270
-249
-231
-217
-208
-205
-207
-216
-228
-242
-257
-270
-279
-282
-278
-267
-249
-226
-200
-174
-151
-133
-122
-119
-124
-133
-146
-158
-168
-171
-167
-155
-135
-109
-79
-48
-18
7
25
35
37
30
16
-1
-20
-37
-48
-51
-44
-27
-1
31
65
96
121
136
138
129
111
87
61
40
28
26
38
61
93
131
171
208
240
265
282
291
296
296
295
293
293
295
300
308
319
333
351
373
398
425
452
477
498
513
521
522
518
511
503
500
503
515
537
566
599
633
663
684
694
691
676
652
625
600
582
575
582
604
637
678
722
763
797
819
829
825
810
786
759
732
709
693
687
690
701
720
744
769
792
810
820
822
814
797
775
747
720
694
673
659
652
651
654
657
659
655
644
624
596
561
521
481
442
407
378
356
341
333
331
334
338
344
347
345
336
317
287
244
191
129
63
-2
-59
-104
-133
-142
-134
-111
-79
-43
-11
10
17
8
-15
-49
-88
-126
-157
-177
-183
-176
-158
-134
-110
-89
-79
-80
-94
-120
-155
-194
-233
-268
-293
-309
-312
-305
-290
-270
-249
-230
-215
-208
-208
-216
-230
-248
-270
-292
-312
-328
-341
-349
-351
-349
-343
-333
-322
-309
-297
-286
-278
-273
-272
-275
-283
-293
-305
-318
-330
-341
-349
-353
-353
-349
-342
-334
-326
-319
-315
-316
-321
-329
-340
-351
-361
-366
-365
-357
-343
-325
-305
-286
-272
-266
-270
-283
-303
-329
-355
-376
-391
-394
-386
-367
-340
-308
-278
-253
-237
-232
-240
-259
-286
-317
-349
-377
-397
-409
-411
-402
-386
-364
-339
-315
-293
-276
-267
-265
-272
-285
-304
-326
-348
-368
-381
-387
-383
-370
-349
-323
-294
-268
-247
-234
-233
-242
-260
-284
-309
-331
-347
-352
-347
-331
-307
-280
-255
-235
-225
-226
-240
-264
-295
-327
-356
-377
-387
-384
-369
-344
-312
-279
-249
-226
-212
-209
-216
-233
-254
-278
-300
-317
-327
-329
-323
-310
-292
-272
-253
-236
-225
-219
-221
-228
-241
-257
-274
-290
-302
-309
-310
-304
-291
-273
-252
-230
-210
-194
-186
-186
-196
-215
-240
-269
-298
-323
-341
-349
-346
-332
-311
-284
-257
-234
-218
-213
-219
-236
-262
-292
-322
-347
-365
-372
-367
-351
-327
-296
-264
-235
-211
-197
-194
-203
-221
-246
-274
-301
-321
-332
-330
-316
-291
-258
-222
-189
-163
-150
-151
-166
-194
-231
-271
-309
-340
-360
-368
-364
-351
-331
-308
-285
-266
-251
-242
-239
-239
-243
-249
-255
-261
-267
-270
-270
-265
-254
-236
-212
-182
-149
-116
-86
-62
-48
-44
-50
-66
-88
-111
-132
-147
-153
-149
-136
-116
-91
-66
-43
-26
-15
-12
-15
-23
-31
-38
-39
-32
-15
14
52
98
148
197
241
275
297
305
300
285
262
238
216
200
193
196
206
222
241
258
271
278
278
270
254
231
204
172
137
101
64
28
-6
-38
-65
-89
-109
-126
-141
-155
-169
-186
-205
-228
-253
-279
-307
-333
-356
-375
-390
-399
-402
-402
-398
-392
-388
-386
-389
-396
-407
-421
-435
-447
-453
-453
-444
-428
-407
-382
-358
-337
-324
-319
-322
-334
-353
-375
-400
-424
-447
-466
-480
-490
-494
-492
-486
-475
-462
-449
-438
-432
-431
-438
-451
-470
-491
-512
-529
-539
-539
-530
-513
-489
-461
-435
-411
-394
-383
-379
-382
-389
-397
-406
-413
-417
-417
-413
-405
-395
-384
-374
-366
-362
-363
-371
-385
-405
-430
-459
-489
-519
-547
-571
-591
-605
-614
-617
-612
-598
-575
-541
-495
-437
-367
-285
-190
-82
42
186
355
554
790
1067
1386
1743
2131
2535
2939
3321
3659
3933
4125
4225
4228
4135
3954
3700
3389
3039
2671
2301
1943
1610
1308
1042
812
618
455
319
203
103
13
-69
-147
-219
-286
-344
-394
-433
-461
-479
-489
-494
-495
-494
-493
-489
-482
-470
-451
-424
-390
-354
-318
-289
-271
-269
-282
-309
-347
-389
-430
-463
-482
-487
-476
-452
-419
-383
-348
-321
-303
-296
-300
-315
-336
-360
-385
-405
-418
-421
-413
-394
-365
-328
-290
-253
-225
-208
-205
-218
-245
-280
-320
-357
-385
-401
-400
-384
-355
-316
-274
-235
-204
-186
-182
-192
-215
-247
-283
-318
-346
-363
-366
-355
-329
-292
-247
-201
-159
-126
-107
-104
-117
-144
-181
-223
-261
-291
-308
-308
-292
-262
-222
-178
-137
-105
-86
-84
-97
-123
-158
-196
-230
-254
-264
-258
-236
-200
-155
-107
-61
-23
2
12
8
-10
-37
-69
-101
-129
-148
-156
-152
-135
-108
-74
-36
1
33
57
70
71
59
37
7
-27
-60
-89
-108
-116
-111
-93
-64
-26
16
58
96
127
148
159
158
150
135
119
104
94
93
102
122
152
189
229
269
305
331
346
349
340
322
298
273
253
241
240
252
276
309
348
389
427
457
478
487
486
477
464
451
443
443
455
478
512
554
600
646
685
715
732
736
727
709
684
657
633
616
607
610
623
647
678
714
752
788
818
840
851
850
839
817
788
756
726
702
689
689
704
731
769
811
852
887
908
914
903
877
839
795
752
715
689
678
680
696
720
748
774
794
803
800
783
756
721
681
641
605
576
555
544
541
544
550
555
557
552
540
518
487
448
405
360
318
281
254
238
232
234
241
249
253
248
230
200
158
108
53
0
-46
-81
-104
-114
-112
-103
-90
-76
-66
-60
-61
-67
-77
-91
-106
-122
-138
-153
-166
-176
-184
-188
-186
-180
-169
-155
-139
-125
-115
-112
-115
-126
-143
-163
-183
-200
-212
-215
-211
-199
-182
-162
-144
-130
-123
-125
-135
-152
-176
-203
-230
-254
-273
-285
-289
-285
-274
-259
-241
-223
-207
-194
-186
-182
-184
-189
-198
-210
-223
-236
-248
-256
-260
-259
-251
-238
-220
-201
-183
-170
-163
-165
-177
-197
-224
-253
-281
-304
-319
-324
-319
-306
-288
-267
-249
-235
-228
-230
-240
-257
-279
-302
-323
-338
-345
-342
-329
-305
-274
-239
-205
-177
-159
-155
-166
-192
-228
-272
-315
-351
-374
-382
-371
-344
-304
-258
-212
-174
-148
-138
-144
-163
-192
-224
-254
-276
-288
-287
-272
-247
-215
-179
-145
-116
-96
-88
-93
-108
-134
-165
-198
-229
-252
-264
-263
-250
-226
-194
-159
-126
-101
-87
-86
-99
-122
-151
-181
-208
-226
-232
-225
-206
-179
-146
-113
-84
-63
-52
-53
-65
-86
-113
-143
-172
-197
-215
-223
-221
-210
-189
-163
-133
-104
-79
-61
-52
-55
-68
-89
-116
-144
-170
-188
-197
-195
-183
-161
-135
-107
-84
-67
-60
-63
-77
-97
-122
-147
-169
-184
-190
-188
-177
-160
-140
-120
-103
-92
-87
-91
-103
-123
-147
-175
-203
-227
-246
-257
-258
-248
-227
-198
-162
-123
-85
-52
-27
-14
-14
-28
-55
-89
-129
-167
-200
-222
-231
-226
-207
-177
-141
-105
-74
-54
-46
-53
-73
-104
-139
-174
-205
-226
-235
-230
-213
-186
-153
-117
-82
-52
-29
-16
-10
-13
-21
-31
-41
-47
-48
-41
-28
-8
15
39
60
74
79
75
60
38
12
-13
-33
-44
-43
-29
-3
34
77
122
165
203
233
252
262
263
257
247
236
226
221
221
229
245
269
299
334
371
406
437
461
475
479
471
454
431
405
380
362
352
352
363
384
411
440
466
485
493
486
464
426
376
317
254
191
136
90
57
39
33
37
48
59
67
66
54
31
-4
-48
-95
-142
-183
-214
-232
-238
-231
-216
-196
-175
-158
-147
-144
-150
-164
-182
-203
-222
-238
-247
-250
-246
-237
-225
-212
-202
-196
-197
-206
-221
-243
-267
-292
-313
-329
-336
-334
-324
-306
-283
-260
-238
-223
-217
-221
-234
-256
-284
-314
-343
-367
-383
-389
-383
-368
-344
-316
-288
-262
-245
-237
-242
-258
-285
-318
-354
-387
-413
-428
-429
-417
-393
-360
-323
-287
-259
-240
-236
-245
-269
-304
-346
-393
-439
-482
-518
-544
-559
-562
-551
-525
-485
-431
-366
-290
-206
-115
-19
83
193
318
465
641
857
1118
1428
1785
2181
2602
3028
3438
3808
4115
4342
4475
4510
4447
4295
4065
3776
3445
3092
2733
2385
2058
1761
1498
1269
1071
901
750
614
485
361
240
124
16
-77
-150
-200
-224
-225
-208
-179
-148
-123
-111
-118
-143
-182
-231
-281
-326
-360
-379
-382
-371
-352
-329
-308
-292
-286
-288
-298
-313
-331
-347
-358
-364
-362
-354
-341
-325
-308
-292
-281
-276
-278
-288
-304
-325
-348
-370
-387
-397
-399
-391
-375
-354
-329
-306
-287
-274
-270
-273
-284
-301
-319
-338
-354
-364
-369
-365
-355
-338
-315
-290
-263
-238
-217
-203
-197
-201
-215
-236
-262
-291
-316
-334
-342
-337
-321
-295
-262
-228
-196
-172
-158
-156
-165
-182
-202
-222
-237
-243
-239
-225
-203
-175
-147
-122
-104
-94
-95
-104
-120
-140
-160
-177
-189
-193
-190
-179
-163
-143
-121
-100
-82
-68
-59
-55
-57
-63
-73
-85
-97
-109
-119
-124
-124
-118
-107
-90
-68
-44
-20
2
19
30
34
30
21
9
-3
-12
-14
-8
7
30
60
91
120
142
154
153
139
114
82
46
11
-16
-33
-35
-24
1
37
80
125
167
204
231
247
252
248
237
224
212
206
209
222
245
279
319
362
403
440
467
484
489
484
470
453
435
420
413
415
428
450
481
518
558
596
631
659
679
691
695
694
688
681
675
673
675
683
696
713
733
752
770
783
791
792
786
776
761
746
733
724
721
724
735
752
774
797
819
838
850
855
852
841
824
802
778
755
735
721
713
713
719
730
744
758
769
774
770
755
731
696
654
608
562
520
486
461
447
442
444
449
453
451
440
420
389
349
303
255
208
167
135
113
103
103
113
129
148
166
178
181
172
148
108
56
-6
-73
-138
-194
-235
-258
-260
-244
-213
-175
-137
-107
-93
-96
-118
-155
-201
-249
-289
-316
-325
-314
-286
-245
-199
-155
-120
-98
-92
-102
-124
-153
-186
-215
-239
-254
-260
-258
-250
-239
-226
-215
-206
-200
-199
-202
-210
-222
-237
-255
-273
-290
-303
-310
-308
-298
-281
-258
-232
-208
-190
-179
-180
-192
-214
-243
-275
-307
-335
-355
-367
-369
-364
-352
-336
-320
-306
-296
-293
-296
-305
-320
-339
-358
-376
-390
-396
-394
-383
-365
-341
-314
-290
-270
-258
-257
-268
-288
-315
-347
-379
-406
-425
-431
-425
-406
-376
-338
-299
-263
-234
-218
-215
-228
-253
-288
-326
-364
-395
-416
-425
-420
-405
-382
-356
-330
-308
-294
-287
-288
-296
-308
-322
-337
-350
-360
-366
-365
-359
-346
-327
-304
-277
-250
-226
-208
-199
-201
-216
-240
-272
-307
-339
-365
-379
-380
-366
-341
-308
-271
-236
-208
-190
-185
-191
-209
-233
-262
-290
-315
-333
-342
-340
-329
-311
-287
-261
-236
-216
-205
-205
-216
-237
-266
-298
-331
-358
-376
-383
-378
-362
-338
-310
-284
-263
-250
-247
-253
-266
-284
-304
-321
-334
-341
-343
-339
-331
-319
-305
-290
-274
-259
-245
-235
-229
-230
-239
-255
-278
-305
-333
-359
-380
-392
-394
-386
-372
-354
-337
-325
-320
-325
-337
-355
-376
-394
-405
-406
-395
-374
-344
-309
-274
-242
-219
-207
-206
-217
-238
-264
-294
-322
-346
-362
-368
-365
-352
-332
-307
-279
-253
-230
-214
-206
-207
-216
-232
-253
-276
-298
-316
-327
-330
-324
-309
-288
-263
-236
-211
-191
-177
-169
-168
-172
-178
-183
-184
-179
-167
-148
-123
-97
-71
-51
-39
-36
-43
-58
-80
-103
-123
-138
-143
-138
-122
-97
-65
-31
4
35
62
83
98
107
112
114
115
116
119
125
137
154
177
207
242
281
320
356
386
405
412
405
385
353
315
275
240
214
203
206
224
253
289
325
354
371
370
351
313
260
196
127
58
-4
-57
-97
-124
-141
-150
-153
-155
-158
-165
-175
-189
-206
-225
-243
-260
-274
-286
-294
-299
-301
-301
-298
-294
-290
-286
-284
-285
-292
-304
-323
-346
-372
-398
-419
-434
-438
-432
-416
-392
-365
-339
-320
-311
-315
-331
-359
-394
-431
-466
-495
-514
-522
-520
-511
-496
-480
-466
-454
-447
-445
-445
-448
-452
-456
-460
-463
-464
-463
-462
-458
-454
-448
-443
-439
-438
-442
-451
-467
-487
-512
-536
-558
-574
-580
-575
-559
-533
-500
-464
-429
-402
-385
-382
-394
-420
-458
-506
-558
-610
-657
-693
-714
-718
-703
-669
-618
-553
-476
-392
-300
-202
-95
26
167
335
538
784
1075
1412
1790
2200
2628
3056
3463
3827
4127
4345
4468
4487
4401
4216
3945
3605
3219
2810
2401
2014
1664
1361
1111
911
754
628
522
424
325
219
105
-14
-131
-238
-327
-392
-429
-437
-422
-389
-348
-309
-279
-267
-274
-299
-341
-391
-442
-487
-519
-535
-534
-519
-493
-464
-436
-417
-408
-413
-429
-455
-485
-515
-540
-557
-562
-555
-538
-511
-478
-443
-408
-379
-357
-346
-345
-356
-376
-403
-433
-461
-485
-500
-505
-498
-481
-458
-432
-409
-391
-383
-386
-400
-422
-448
-475
-498
-511
-514
-504
-482
-450
-412
-372
-334
-303
-283
-275
-280
-297
-322
-352
-382
-408
-425
-432
-427
-413
-391
-364
-338
-316
-300
-293
-295
-304
-319
-336
-354
-368
-378
-381
-377
-366
-349
-328
-304
-281
-259
-242
-232
-229
-235
-249
-269
-290
-310
-325
-329
-322
-302
-270
-230
-186
-144
-109
-85
-76
-81
-99
-127
-159
-190
-216
-233
-239
-233
-218
-195
-167
-137
-107
-81
-59
-41
-30
-24
-24
-29
-39
-51
-65
-77
-87
-91
-90
-84
-72
-59
-45
-34
-28
-28
-33
-41
-50
-55
-55
-46
-27
1
37
78
120
159
192
218
233
238
235
224
208
190
174
161
154
156
168
188
216
250
287
322
353
377
390
394
388
375
358
342
331
328
337
358
391
433
481
530
575
611
635
645
641
625
600
572
545
524
514
517
532
558
592
629
663
691
709
717
714
702
686
669
655
647
649
658
676
697
719
739
753
758
753
739
718
693
668
645
627
617
614
620
632
647
662
675
683
683
675
658
634
605
571
535
498
463
431
402
377
356
340
327
317
310
303
296
285
269
246
217
180
138
94
50
12
-19
-39
-48
-45
-35
-21
-8
-3
-9
-29
-63
-109
-163
-218
-268
-307
-332
-339
-330
-307
-275
-241
-209
-185
-171
-170
-181
-202
-229
-259
-288
-313
-331
-342
-345
-341
-331
-317
-302
-288
-278
-275
-279
-290
-310
-336
-365
-394
-421
-441
-452
-453
-445
-429
-407
-383
-360
-341
-329
-324
-327
-339
-355
-376
-398
-418
-435
-447
-453
-453
-448
-439
-429
-419
-413
-411
-414
-422
-433
-445
-456
-462
-462
-455
-440
-420
-396
-371
-349
-332
-323
-321
-328
-341
-359
-381
-403
-424
-442
-456
-465
-468
-465
-456
-443
-425
-406
-389
-375
-368
-370
-380
-399
-425
-453
-480
-501
-512
-512
-499
-475
-444
-411
-382
-361
-352
-356
-372
-398
-427
-455
-475
-485
-481
-464
-436
-402
-366
-334
-311
-300
-303
-319
-347
-382
-420
-456
-485
-504
-511
-504
-484
-453
-415
-373
-334
-300
-277
-267
-271
-288
-317
-352
-389
-423
-449
-464
-465
-454
-432
-403
-373
-345
-325
-313
-313
-322
-337
-355
-372
-383
-386
-380
-365
-342
-317
-291
-271
-258
-254
-261
-278
-303
-332
-362
-390
-413
-429
-435
-432
-419
-400
-375
-347
-319
-294
-275
-265
-265
-275
-295
-322
-353
-384
-409
-426
-430
-421
-399
-366
-327
-288
-253
-227
-215
-217
-233
-259
-291
-324
-354
-375
-387
-389
-380
-365
-346
-326
-310
-297
-291
-292
-298
-309
-324
-341
-358
-374
-386
-394
-396
-392
-382
-367
-349
-330
-312
-300
-294
-297
-308
-326
-348
-372
-395
-413
-424
-428
-424
-414
-398
-380
-360
-341
-324
-312
-304
-302
-306
-317
-335
-357
-381
-404
-422
-433
-433
-422
-401
-374
-343
-316
-296
-287
-291
-306
-329
-354
-375
-385
-379
-356
-317
-267
-210
-156
-112
-82
-71
-77
-97
-126
-158
-185
-203
-209
-201
-182
-156
-126
-99
-76
-61
-55
-55
-59
-66
-71
-72
-70
-62
-49
-33
-15
5
26
48
73
99
128
157
187
214
236
251
257
253
241
223
204
187
176
174
182
199
222
247
269
283
286
275
251
214
168
116
62
11
-35
-73
-103
-124
-139
-148
-155
-162
-170
-182
-199
-220
-244
-269
-294
-314
-330
-339
-342
-341
-338
-336
-339
-348
-364
-388
-417
-449
-479
-506
-525
-535
-537
-530
-518
-501
-484
-467
-452
-440
-433
-430
-432
-438
-449
-465
-486
-509
-534
-558
-579
-594
-603
-604
-598
-585
-570
-552
-537
-525
-518
-517
-520
-525
-531
-534
-534
-529
-520
-507
-492
-478
-466
-459
-457
-459
-467
-478
-492
-507
-521
-534
-546
-556
-564
-570
-573
-572
-568
-561
-551
-540
-530
-522
-519
-521
-530
-546
-568
-593
-620
-644
-665
-678
-682
-676
-659
-629
-589
-538
-477
-409
-331
-244
-145
-30
108
276
481
728
1022
1362
1743
2153
2577
2996
3389
3734
4013
4210
4316
4328
4249
4086
3852
3563
3233
2879
2515
2156
1812
1493
1204
950
730
545
392
265
158
67
-14
-89
-160
-227
-289
-344
-388
-421
-441
-447
-442
-429
-410
-391
-375
-363
-357
-358
-364
-376
-391
-409
-429
-450
-472
-494
-516
-534
-547
-554
-551
-537
-514
-482
-446
-409
-377
-354
-344
-348
-365
-393
-429
-466
-501
-529
-547
-555
-552
-541
-524
-503
-482
-461
-443
-428
-419
-414
-416
-424
-439
-458
-480
-504
-525
-541
-548
-546
-533
-510
-481
-448
-416
-389
-370
-361
-362
-372
-388
-407
-425
-437
-443
-439
-426
-404
-377
-347
-318
-293
-274
-265
-265
-274
-290
-312
-335
-358
-376
-388
-392
-388
-375
-354
-329
-301
-273
-249
-230
-219
-217
-222
-234
-249
-265
-278
-284
-283
-274
-257
-234
-209
-185
-165
-151
-146
-149
-159
-174
-191
-207
-222
-232
-237
-237
-233
-225
-215
-202
-187
-171
-155
-138
-123
-109
-99
-92
-88
-86
-86
-84
-80
-72
-59
-40
-17
8
32
53
69
78
79
73
62
49
38
31
33
43
63
90
121
152
179
197
205
201
187
165
140
118
102
97
106
127
159
199
242
284
321
350
369
380
383
380
375
369
365
365
369
379
396
419
448
481
516
551
582
606
620
624
617
601
581
559
542
533
536
552
579
616
656
696
730
755
768
769
759
740
718
696
677
665
661
667
680
700
724
749
773
791
803
807
802
789
769
744
718
692
669
652
642
639
642
651
662
674
683
687
685
675
657
632
602
571
540
513
492
478
470
466
463
458
446
423
390
345
291
234
179
131
97
79
78
93
119
148
173
187
186
165
125
69
3
-67
-134
-192
-236
-265
-278
-278
-268
-252
-234
-217
-204
-196
-195
-201
-212
-228
-248
-269
-290
-309
-323
-332
-333
-327
-315
-298
-279
-261
-248
-243
-246
-259
-281
-309
-340
-370
-395
-411
-418
-415
-402
-384
-363
-343
-329
-322
-324
-335
-353
-376
-399
-419
-433
-437
-432
-418
-397
-373
-348
-327
-312
-307
-310
-323
-342
-367
-392
-416
-436
-449
-455
-453
-444
-430
-412
-394
-379
-368
-363
-367
-379
-399
-425
-455
-484
-511
-530
-539
-537
-523
-500
-470
-438
-407
-383
-369
-365
-373
-389
-412
-437
-459
-474
-481
-477
-463
-440
-412
-382
-353
-329
-311
-302
-301
-310
-326
-348
-374
-402
-428
-451
-469
-480
-484
-481
-472
-460
-445
-430
-418
-408
-403
-401
-403
-405
-407
-407
-403
-395
-382
-365
-346
-327
-308
-293
-282
-276
-277
-284
-295
-310
-327
-344
-358
-367
-371
-369
-360
-346
-329
-312
-297
-287
-283
-286
-296
-311
-330
-347
-362
-371
-372
-365
-349
-327
-299
-270
-242
-218
-200
-190
-187
-192
-202
-217
-234
-250
-263
-272
-275
-273
-266
-255
-242
-230
-221
-215
-215
-220
-229
-241
-255
-267
-277
-282
-281
-273
-259
-239
-215
-190
-166
-147
-136
-134
-143
-163
-192
-228
-266
-302
-332
-352
-358
-351
-329
-297
-258
-217
-179
-149
-130
-125
-133
-154
-184
-218
-252
-281
-301
-308
-303
-286
-259
-228
-196
-171
-155
-153
-164
-189
-222
-260
-296
-324
-341
-342
-328
-300
-262
-222
-183
-154
-137
-134
-147
-171
-202
-236
-267
-290
-301
-301
-290
-271
-248
-226
-208
-197
-195
-200
-212
-226
-240
-250
-253
-247
-232
-207
-174
-136
-96
-57
-21
8
28
39
41
34
20
1
-18
-36
-50
-59
-61
-56
-45
-29
-10
9
28
45
58
68
74
77
78
77
76
77
80
88
102
121
146
177
212
250
287
322
351
373
386
391
388
378
364
347
332
319
310
306
307
312
320
329
338
345
349
349
345
338
327
314
298
281
262
242
220
195
168
138
104
66
26
-16
-58
-99
-137
-168
-192
-207
-212
-210
-200
-185
-169
-154
-144
-141
-146
-158
-178
-202
-226
-248
-265
-273
-273
-265
-249
-230
-209
-191
-179
-174
-179
-192
-214
-241
-272
-302
-328
-346
-355
-352
-337
-311
-277
-240
-204
-174
-155
-150
-163
-190
-231
-278
-327
-371
-403
-419
-419
-403
-375
-340
-305
-275
-255
-248
-252
-267
-287
-309
-329
-342
-348
-345
-336
-322
-307
-293
-282
-276
-275
-278
-283
-290
-296
-301
-304
-306
-306
-306
-309
-315
-327
-344
-367
-395
-425
-452
-473
-482
-475
-449
-404
-338
-255
-157
-44
83
225
388
576
798
1057
1358
1700
2077
2478
2888
3288
3657
3977
4230
4402
4485
4478
4381
4202
3951
3642
3291
2914
2527
2145
1783
1451
1158
908
701
533
398
289
198
117
42
-30
-99
-164
-222
-270
-306
-330
-342
-344
-339
-329
-317
-303
-288
-272
-254
-236
-219
-204
-195
-195
-206
-228
-261
-300
-342
-380
-410
-428
-431
-419
-395
-361
-324
-288
-260
-242
-237
-246
-267
-297
-333
-370
-403
-429
-445
-447
-434
-409
-373
-329
-284
-242
-210
-190
-187
-199
-224
-257
-294
-327
-349
-357
-350
-327
-293
-252
-213
-182
-163
-161
-176
-205
-245
-289
-330
-362
-379
-379
-362
-330
-286
-237
-188
-147
-118
-103
-104
-119
-145
-177
-211
-240
-259
-267
-262
-245
-218
-184
-148
-115
-88
-70
-64
-68
-82
-104
-131
-159
-184
-204
-216
-219
-212
-196
-173
-146
-117
-89
-64
-46
-36
-34
-41
-55
-74
-95
-116
-134
-145
-148
-142
-127
-105
-78
-51
-25
-5
7
12
7
-3
-17
-32
-44
-50
-48
-39
-22
0
26
53
77
98
112
120
122
120
113
106
100
98
100
108
121
139
159
180
198
212
221
223
221
216
210
208
211
222
240
264
293
324
355
383
407
426
440
451
459
464
468
470
469
465
459
451
442
436
435
440
452
472
497
525
553
577
595
607
613
616
618
624
636
655
682
715
749
781
807
824
830
826
811
791
768
745
727
715
711
714
723
737
755
773
791
807
820
828
833
832
827
818
805
789
773
759
748
741
739
741
746
754
760
765
764
758
745
726
702
675
648
623
602
585
574
567
563
560
556
548
535
515
488
455
418
378
337
299
267
240
222
210
205
205
206
206
201
189
168
138
100
55
7
-42
-85
-121
-145
-155
-151
-135
-108
-76
-44
-16
2
8
-1
-24
-58
-98
-139
-176
-204
-221
-225
-217
-202
-184
-167
-156
-153
-160
-174
-194
-214
-232
-245
-250
-249
-243
-234
-224
-215
-210
-208
-209
-211
-213
-214
-215
-215
-216
-220
-226
-237
-250
-265
-278
-288
-293
-291
-283
-271
-258
-247
-240
-240
-248
-264
-284
-307
-328
-344
-351
-348
-334
-312
-284
-255
-228
-209
-202
-207
-225
-254
-291
-329
-365
-393
-410
-412
-400
-377
-345
-311
-279
-253
-237
-232
-237
-251
-268
-285
-298
-305
-303
-294
-279
-262
-246
-235
-231
-235
-247
-265
-287
-311
-332
-351
-364
-372
-375
-372
-364
-351
-335
-315
-292
-268
-245
-223
-207
-198
-198
-207
-224
-246
-269
-288
-299
-299
-287
-264
-234
-201
-171
-150
-141
-146
-164
-191
-224
-256
-283
-299
-304
-297
-280
-257
-233
-210
-193
-182
-178
-181
-187
-196
-204
-210
-214
-214
-211
-205
-197
-188
-177
-166
-154
-142
-131
-122
-116
-114
-118
-126
-139
-155
-173
-188
-200
-205
-203
-193
-177
-157
-139
-124
-119
-125
-144
-173
-210
-249
-285
-312
-324
-321
-300
-265
-220
-172
-127
-92
-71
-66
-76
-100
-132
-166
-197
-221
-235
-237
-229
-214
-195
-175
-159
-149
-145
-148
-157
-168
-181
-192
-201
-205
-205
-200
-191
-180
-167
-155
-143
-134
-128
-126
-128
-134
-143
-156
-170
-184
-196
-205
-210
-211
-207
-199
-191
-182
-174
-170
-169
-172
-179
-187
-195
-202
-206
-207
-202
-193
-180
-164
-145
-125
-106
-90
-77
-69
-67
-71
-81
-94
-108
-122
-130
-132
-123
-104
-75
-38
4
46
83
111
125
126
112
86
52
15
-20
-47
-64
-69
-59
-38
-7
30
67
103
132
154
168
174
175
174
173
175
185
202
229
264
306
351
395
434
465
484
490
481
460
430
395
360
328
305
292
290
299
315
335
355
370
376
372
356
328
292
250
205
161
121
88
63
45
34
29
27
26
23
17
7
-9
-30
-54
-81
-108
-134
-158
-177
-191
-199
-202
-200
-195
-188
-180
-173
-168
-167
-169
-174
-183
-195
-207
-220
-231
-240
-247
-251
-254
-255
-256
-259
-263
-271
-283
-298
-315
-333
-348
-360
-366
-364
-353
-334
-307
-277
-246
-219
-200
-193
-200
-220
-252
-292
-335
-376
-410
-432
-439
-432
-413
-383
-349
-316
-289
-271
-265
-272
-289
-315
-345
-375
-401
-418
-424
-419
-401
-374
-339
-302
-265
-235
-213
-204
-209
-228
-259
-299
-344
-391
-432
-465
-485
-489
-475
-444
-397
-337
-268
-191
-108
-22
72
176
298
446
628
851
1121
1437
1796
2186
2594
2998
3377
3709
3974
4156
4244
4235
4131
3943
3684
3373
3028
2669
2314
1978
1670
1398
1163
965
798
655
529
410
293
174
51
-73
-192
-300
-391
-457
-497
-508
-494
-462
-419
-376
-339
-315
-308
-316
-337
-365
-392
-413
-423
-419
-402
-375
-342
-310
-283
-267
-263
-272
-292
-320
-352
-382
-407
-422
-426
-417
-396
-364
-325
-284
-244
-211
-188
-180
-187
-210
-245
-290
-337
-380
-412
-429
-427
-407
-370
-321
-268
-219
-181
-160
-158
-177
-213
-261
-313
-362
-400
-424
-430
-417
-389
-351
-307
-265
-229
-204
-191
-192
-203
-223
-247
-270
-290
-303
-307
-301
-286
-264
-237
-209
-183
-162
-149
-145
-150
-164
-184
-206
-226
-241
-248
-244
-230
-207
-177
-145
-115
-91
-76
-72
-77
-90
-109
-129
-148
-161
-167
-164
-154
-137
-115
-91
-68
-47
-31
-22
-19
-23
-34
-50
-69
-88
-105
-117
-121
-115
-99
-73
-39
0
41
79
111
134
145
145
134
116
93
71
54
46
49
65
92
127
166
205
236
257
263
255
232
200
164
129
102
88
90
109
144
191
245
299
349
391
420
438
444
440
430
417
406
398
398
405
421
445
476
513
551
588
621
648
665
672
668
655
636
613
593
580
577
588
612
649
693
741
785
819
840
846
836
815
787
760
740
733
743
769
809
859
910
955
989
1006
1004
985
952
910
867
828
798
781
777
786
805
831
860
889
915
935
949
956
956
949
936
918
897
874
852
832
817
808
805
809
817
827
835
838
834
821
798
767
729
688
647
609
576
550
529
514
503
494
484
471
455
433
407
376
343
309
277
249
227
212
206
207
214
223
232
236
234
224
205
179
147
113
78
46
18
-4
-21
-33
-41
-47
-51
-54
-58
-63
-69
-77
-87
-99
-111
-122
-132
-138
-138
-131
-117
-96
-71
-45
-23
-7
-3
-10
-30
-60
-97
-137
-175
-204
-224
-230
-224
-207
-183
-155
-128
-106
-92
-87
-93
-107
-128
-152
-177
-198
-213
-221
-220
-210
-193
-170
-145
-122
-102
-87
-81
-83
-92
-109
-132
-156
-181
-204
-221
-232
-234
-226
-210
-186
-158
-128
-102
-83
-74
-79
-97
-127
-165
-206
-244
-273
-289
-289
-274
-247
-212
-177
-148
-128
-122
-130
-149
-175
-204
-228
-245
-250
-244
-229
-208
-184
-162
-145
-135
-132
-136
-145
-157
-170
-183
-194
-203
-209
-213
-213
-209
-203
-193
-180
-166
-154
-145
-141
-145
-157
-177
-203
-231
-257
-278
-290
-290
-277
-254
-223
-188
-155
-128
-111
-107
-115
-134
-161
-189
-215
-233
-241
-237
-220
-193
-158
-122
-87
-58
-40
-32
-37
-53
-77
-107
-138
-168
-193
-212
-222
-223
-215
-201
-181
-160
-140
-122
-110
-105
-108
-117
-132
-150
-168
-182
-192
-195
-190
-179
-163
-145
-128
-115
-107
-106
-112
-123
-137
-152
-165
-173
-177
-175
-169
-159
-147
-137
-128
-124
-123
-127
-135
-146
-157
-167
-175
-181
-183
-181
-177
-172
-165
-159
-153
-148
-144
-140
-137
-135
-133
-132
-132
-134
-136
-140
-143
-145
-145
-143
-138
-132
-125
-119
-116
-118
-125
-136
-151
-166
-180
-189
-190
-184
-169
-147
-121
-96
-73
-58
-53
-59
-75
-99
-128
-158
-183
-201
-209
-204
-188
-162
-129
-94
-61
-35
-18
-12
-16
-30
-48
-67
-82
-88
-83
-66
-38
-2
39
79
113
139
153
155
146
129
107
84
65
51
46
50
63
84
111
142
175
207
235
259
276
287
292
292
289
286
284
286
293
306
325
348
372
395
413
426
431
428
418
404
387
371
356
347
343
344
350
358
366
372
372
364
347
320
283
237
185
129
74
22
-22
-57
-81
-95
-99
-98
-95
-93
-94
-101
-115
-133
-155
-178
-198
-212
-220
-221
-216
-206
-193
-181
-172
-167
-166
-170
-177
-187
-198
-208
-218
-227
-235
-243
-251
-258
-264
-268
-270
-268
-264
-257
-250
-245
-244
-248
-259
-276
-297
-322
-345
-365
-377
-379
-372
-354
-329
-298
-266
-238
-217
-206
-206
-218
-241
-271
-306
-340
-370
-390
-398
-392
-374
-344
-308
-272
-240
-218
-210
-219
-242
-277
-320
-363
-401
-427
-439
-436
-420
-394
-364
-337
-319
-313
-321
-343
-374
-408
-437
-453
-450
-425
-374
-299
-201
-86
43
185
336
501
684
891
1128
1401
1713
2062
2440
2835
3231
3608
3944
4219
4416
4521
4528
4437
4254
3990
3662
3291
2896
2499
2119
1771
1466
1210
1004
843
719
623
542
466
388
301
205
103
-1
-99
-185
-252
-295
-314
-309
-286
-250
-208
-167
-134
-113
-107
-115
-138
-172
-212
-256
-298
-335
-365
-386
-396
-395
-386
-370
-349
-326
-304
-284
-269
-259
-257
-261
-272
-287
-306
-325
-343
-357
-364
-364
-356
-340
-318
-293
-268
-248
-234
-231
-238
-256
-281
-311
-341
-366
-383
-390
-386
-372
-353
-330
-308
-291
-281
-279
-283
-290
-298
-303
-301
-291
-273
-247
-218
-189
-164
-148
-142
-147
-162
-185
-211
-237
-258
-273
-280
-279
-272
-260
-247
-235
-226
-220
-217
-214
-211
-206
-197
-185
-170
-154
-139
-127
-119
-116
-116
-119
-122
-124
-123
-119
-112
-105
-100
-98
-100
-107
-118
-131
-142
-150
-150
-143
-128
-105
-77
-46
-17
8
27
38
42
38
30
17
4
-8
-17
-20
-19
-11
2
19
40
60
78
92
100
103
101
94
85
76
69
66
67
74
87
104
125
149
174
198
222
241
255
263
263
255
240
221
201
185
176
178
194
222
259
301
343
377
400
409
404
388
368
350
341
346
368
406
457
515
572
622
657
675
675
659
630
596
563
537
523
523
539
568
609
658
709
759
803
837
860
869
865
850
825
795
764
737
719
713
722
745
781
825
873
919
956
980
988
979
956
922
884
847
817
800
797
807
829
859
890
917
935
941
934
913
882
843
802
764
732
708
696
693
698
709
722
731
735
728
710
679
636
585
528
469
414
365
327
300
284
278
280
285
290
291
286
273
252
221
184
141
97
53
13
-21
-45
-60
-64
-60
-50
-38
-28
-24
-29
-43
-67
-98
-132
-166
-195
-217
-229
-232
-227
-218
-206
-195
-187
-183
-183
-187
-194
-201
-208
-214
-219
-224
-227
-229
-231
-232
-233
-234
-235
-237
-241
-246
-254
-265
-278
-292
-305
-317
-326
-332
-335
-334
-330
-324
-317
-307
-297
-286
-276
-268
-263
-261
-265
-275
-288
-305
-321
-335
-344
-346
-340
-328
-311
-293
-277
-264
-258
-257
-263
-273
-284
-295
-302
-306
-305
-301
-295
-289
-285
-284
-287
-296
-308
-322
-338
-352
-364
-372
-374
-369
-359
-344
-326
-307
-289
-274
-264
-262
-266
-277
-294
-316
-340
-363
-383
-398
-405
-403
-393
-373
-348
-318
-288
-261
-240
-227
-226
-234
-250
-273
-297
-320
-337
-347
-349
-343
-332
-319
-307
-297
-293
-295
-302
-312
-323
-333
-339
-339
-333
-322
-305
-284
-262
-240
-220
-204
-194
-190
-193
-204
-221
-242
-267
-292
-313
-328
-335
-333
-322
-303
-278
-251
-225
-204
-189
-183
-186
-195
-210
-228
-245
-259
-267
-269
-264
-253
-237
-219
-201
-185
-173
-167
-168
-174
-186
-202
-220
-238
-255
-267
-274
-275
-270
-260
-245
-228
-211
-196
-185
-181
-183
-192
-207
-227
-249
-270
-288
-300
-305
-302
-293
-277
-258
-239
-221
-209
-203
-205
-215
-231
-251
-272
-292
-307
-315
-315
-307
-292
-272
-250
-229
-213
-205
-205
-214
-231
-254
-278
-301
-318
-327
-325
-313
-293
-267
-240
-215
-197
-190
-193
-208
-231
-261
-291
-318
-337
-346
-342
-327
-302
-270
-237
-207
-184
-173
-173
-185
-208
-238
-271
-302
-328
-343
-346
-336
-314
-282
-243
-203
-164
-130
-106
-92
-89
-95
-109
-126
-144
-158
-166
-166
-156
-140
-118
-94
-73
-57
-49
-52
-65
-86
-112
-139
-161
-175
-177
-165
-139
-101
-54
-3
47
91
125
149
161
163
158
150
143
141
145
159
181
210
242
275
304
327
340
343
335
320
298
274
252
234
223
220
225
235
247
259
266
266
256
234
200
157
105
49
-9
-64
-116
-159
-193
-217
-229
-231
-222
-206
-183
-159
-136
-119
-110
-113
-129
-158
-199
-247
-298
-346
-387
-415
-429
-428
-412
-386
-354
-322
-294
-275
-268
-274
-290
-314
-340
-365
-385
-395
-394
-382
-362
-337
-311
-288
-273
-268
-273
-289
-313
-343
-374
-404
-428
-445
-452
-450
-438
-420
-398
-374
-352
-336
-326
-327
-336
-355
-379
-406
-432
-452
-463
-462
-450
-427
-396
-362
-331
-306
-293
-293
-307
-333
-368
-405
-439
-465
-480
-480
-468
-445
-416
-387
-365
-355
-360
-383
-422
-473
-530
-582
-622
-640
-629
-586
-510
-405
-277
-133
20
176
333
494
666
856
1075
1333
1635
1981
2365
2774
3189
3587
3944
4237
4447
4560
4569
4475
4285
4011
3671
3286
2876
2464
2069
1707
1392
1129
922
766
654
573
512
455
393
317
223
115
-1
-118
-223
-307
-364
-391
-389
-364
-324
-279
-240
-213
-204
-213
-238
-275
-317
-359
-395
-422
-438
-444
-441
-431
-417
-403
-389
-379
-372
-370
-373
-382
-395
-413
-434
-456
-476
-490
-496
-493
-480
-458
-429
-397
-368
-344
-330
-327
-336
-354
-379
-407
-432
-453
-464
-466
-459
-443
-422
-399
-377
-358
-345
-340
-341
-350
-365
-382
-400
-415
-424
-427
-420
-404
-380
-351
-319
-288
-262
-245
-239
-243
-257
-279
-305
-330
-350
-363
-365
-357
-339
-314
-285
-256
-231
-213
-204
-206
-216
-234
-256
-278
-297
-308
-309
-299
-277
-246
-208
-168
-131
-103
-89
-90
-107
-140
-182
-229
-272
-306
-325
-325
-307
-273
-228
-178
-130
-91
-66
-55
-59
-74
-98
-123
-146
-162
-168
-163
-146
-121
-90
-56
-23
7
31
47
54
51
41
25
6
-13
-28
-36
-35
-24
-2
27
60
94
123
143
152
148
132
108
78
49
25
11
10
24
52
91
138
189
239
285
323
351
369
376
375
366
352
336
322
312
309
316
334
363
401
445
489
530
562
581
587
578
558
531
504
481
468
467
479
504
537
574
610
641
664
678
683
680
673
665
659
658
664
678
700
728
761
794
826
851
868
874
867
850
822
788
751
718
691
674
670
679
700
729
762
796
825
847
858
856
844
823
795
764
734
709
689
678
674
678
685
695
702
704
698
683
658
624
581
534
484
435
389
350
319
297
284
277
275
274
273
266
252
230
199
160
115
69
23
-18
-52
-77
-92
-98
-97
-90
-81
-73
-70
-73
-83
-102
-128
-160
-195
-231
-265
-292
-312
-322
-321
-312
-295
-274
-253
-235
-224
-222
-230
-248
-273
-302
-331
-355
-371
-375
-368
-348
-320
-287
-256
-232
-221
-226
-249
-288
-340
-398
-454
-502
-535
-548
-540
-513
-472
-423
-374
-333
-305
-293
-298
-316
-344
-374
-401
-420
-427
-421
-405
-381
-354
-328
-308
-298
-298
-309
-330
-359
-392
-426
-458
-484
-502
-510
-508
-496
-476
-451
-423
-396
-375
-361
-357
-364
-380
-403
-430
-457
-479
-493
-496
-488
-469
-441
-408
-375
-345
-324
-314
-317
-332
-360
-395
-435
-475
-510
-535
-549
-549
-537
-514
-483
-451
-421
-397
-384
-383
-395
-417
-447
-481
-513
-539
-555
-560
-552
-533
-505
-471
-437
-405
-380
-364
-359
-365
-381
-404
-431
-458
-482
-499
-507
-504
-492
-471
-444
-417
-391
-372
-360
-359
-367
-384
-406
-430
-451
-466
-471
-465
-448
-421
-387
-350
-314
-285
-265
-257
-264
-283
-312
-349
-389
-426
-457
-478
-486
-482
-465
-439
-406
-371
-337
-309
-288
-278
-278
-288
-305
-328
-352
-374
-392
-402
-403
-394
-378
-356
-331
-308
-291
-282
-284
-297
-319
-347
-378
-405
-423
-429
-421
-399
-366
-326
-285
-249
-225
-215
-223
-247
-282
-325
-369
-407
-435
-447
-445
-428
-400
-366
-332
-303
-284
-277
-282
-298
-322
-350
-376
-398
-413
-418
-413
-400
-381
-360
-340
-323
-311
-307
-309
-317
-329
-345
-360
-375
-387
-395
-399
-397
-389
-375
-357
-336
-314
-294
-279
-270
-272
-283
-304
-332
-363
-394
-419
-434
-437
-426
-403
-370
-332
-294
-258
-229
-209
-197
-192
-192
-193
-192
-188
-178
-163
-144
-121
-97
-75
-58
-46
-42
-46
-57
-76
-98
-122
-145
-163
-174
-176
-169
-152
-128
-99
-68
-37
-9
15
33
47
58
66
75
86
99
117
138
162
187
213
237
258
275
286
291
289
281
268
252
234
218
205
195
191
191
196
202
209
213
213
206
190
165
131
88
39
-14
-68
-120
-165
-201
-226
-239
-241
-235
-226
-216
-212
-216
-231
-257
-292
-334
-379
-421
-456
-480
-491
-488
-471
-443
-408
-371
-335
-306
-288
-282
-289
-309
-340
-377
-416
-452
-480
-497
-500
-490
-468
-438
-406
-377
-357
-349
-355
-376
-408
-447
-488
-525
-553
-568
-569
-558
-535
-506
-474
-446
-425
-414
-414
-425
-444
-468
-494
-518
-535
-544
-543
-534
-517
-497
-477
-459
-447
-443
-447
-457
-471
-487
-501
-511
-514
-511
-502
-490
-475
-462
-453
-448
-450
-459
-474
-496
-523
-554
-588
-623
-654
-679
-691
-688
-664
-618
-550
-460
-352
-231
-100
38
182
335
504
696
921
1185
1493
1843
2230
2640
3056
3457
3820
4122
4346
4478
4510
4440
4275
4025
3706
3339
2943
2540
2152
1794
1480
1217
1005
842
718
622
539
458
370
268
153
29
-95
-211
-308
-380
-421
-433
-420
-388
-348
-309
-280
-266
-270
-290
-324
-364
-406
-443
-472
-488
-493
-487
-473
-454
-435
-419
-410
-407
-414
-427
-447
-471
-495
-517
-533
-542
-542
-533
-517
-495
-471
-448
-430
-419
-417
-424
-438
-458
-479
-499
-514
-522
-522
-515
-500
-480
-458
-436
-416
-400
-390
-388
-392
-402
-417
-434
-452
-468
-480
-485
-483
-472
-455
-432
-407
-382
-359
-343
-334
-334
-340
-353
-370
-387
-403
-415
-421
-420
-412
-398
-379
-357
-335
-314
-298
-288
-284
-286
-293
-303
-313
-321
-324
-322
-313
-300
-284
-270
-260
-257
-263
-276
-296
-320
-343
-363
-375
-378
-371
-355
-332
-304
-273
-244
-218
-196
-179
-168
-163
-163
-169
-178
-191
-204
-217
-226
-231
-229
-221
-208
-190
-170
-152
-137
-129
-128
-133
-143
-156
-167
-175
-175
-167
-150
-124
-92
-57
-21
13
41
62
75
79
76
68
58
48
41
39
44
55
73
95
118
141
159
172
178
178
173
166
160
157
158
166
181
201
224
249
273
296
315
330
342
352
359
365
370
375
380
386
392
401
413
429
449
474
503
535
567
595
618
634
641
641
634
625
616
612
616
629
650
678
710
741
768
786
796
796
787
773
757
740
727
720
717
721
728
740
753
767
781
794
804
810
812
807
795
776
751
721
690
661
639
624
620
625
637
653
667
675
673
658
629
587
536
480
425
374
332
301
282
274
273
276
278
276
266
245
214
174
127
78
31
-9
-39
-57
-63
-57
-45
-31
-19
-15
-21
-39
-68
-106
-150
-194
-235
-268
-292
-305
-308
-301
-288
-271
-253
-236
-223
-216
-217
-226
-244
-270
-302
-339
-376
-409
-436
-452
-455
-444
-421
-389
-350
-312
-277
-252
-238
-237
-248
-268
-294
-320
-341
-354
-355
-345
-326
-300
-272
-247
-232
-231
-244
-272
-311
-357
-403
-442
-470
-481
-473
-449
-410
-364
-315
-272
-239
-219
-216
-227
-251
-284
-321
-358
-390
-415
-431
-437
-435
-425
-410
-392
-375
-360
-350
-346
-349
-358
-373
-391
-410
-428
-442
-450
-450
-443
-429
-409
-386
-363
-342
-326
-316
-315
-322
-337
-357
-380
-403
-422
-436
-441
-437
-424
-402
-376
-348
-322
-301
-289
-288
-297
-316
-341
-368
-394
-414
-425
-425
-416
-398
-376
-354
-336
-325
-323
-331
-346
-366
-386
-402
-412
-413
-403
-385
-361
-333
-305
-280
-261
-251
-249
-256
-271
-292
-315
-339
-359
-375
-383
-384
-376
-361
-340
-318
-297
-279
-269
-266
-271
-284
-302
-322
-342
-358
-369
-373
-371
-362
-349
-334
-317
-301
-287
-276
-268
-265
-266
-269
-275
-282
-289
-294
-295
-292
-282
-267
-248
-226
-204
-186
-175
-173
-181
-200
-227
-260
-294
-326
-352
-368
-373
-368
-353
-331
-306
-281
-260
-247
-243
-249
-264
-286
-313
-339
-361
-375
-378
-367
-344
-310
-269
-226
-186
-156
-139
-137
-151
-179
-217
-259
-301
-336
-360
-373
-373
-362
-342
-318
-294
-271
-253
-240
-232
-229
-228
-228
-228
-226
-221
-213
-204
-193
-184
-177
-173
-174
-180
-192
-209
-232
-257
-285
-313
-339
-360
-374
-379
-375
-360
-336
-304
-267
-231
-201
-180
-173
-182
-206
-242
-285
-328
-362
-382
-381
-360
-318
-261
-195
-131
-75
-34
-14
-14
-31
-62
-97
-130
-155
-165
-161
-141
-109
-71
-31
4
31
46
49
40
20
-5
-34
-61
-82
-96
-99
-91
-71
-41
-2
41
85
127
163
190
208
217
220
218
215
215
220
230
245
265
286
306
322
331
333
329
318
304
287
269
254
240
229
221
216
212
211
209
207
201
190
172
145
108
61
6
-53
-113
-168
-212
-242
-254
-250
-231
-202
-170
-140
-120
-115
-126
-154
-195
-245
-298
-347
-386
-412
-422
-417
-399
-372
-342
-313
-290
-278
-277
-287
-307
-334
-364
-392
-416
-431
-437
-433
-420
-401
-378
-354
-335
-321
-316
-320
-333
-354
-380
-410
-439
-464
-483
-492
-492
-483
-466
-443
-418
-394
-375
-361
-356
-359
-370
-387
-407
-427
-444
-456
-460
-457
-445
-427
-405
-381
-359
-342
-332
-331
-340
-358
-382
-411
-439
-463
-480
-486
-481
-466
-443
-417
-394
-379
-377
-391
-422
-467
-519
-571
-614
-637
-634
-602
-539
-448
-334
-204
-64
83
235
396
573
775
1010
1287
1608
1972
2370
2786
3201
3591
3932
4204
4390
4477
4462
4348
4143
3862
3523
3145
2751
2358
1985
1645
1346
1094
890
728
602
502
418
338
256
166
67
-39
-147
-250
-342
-414
-463
-486
-485
-462
-426
-381
-337
-299
-272
-260
-262
-277
-302
-332
-363
-390
-410
-419
-418
-406
-385
-360
-333
-307
-288
-276
-274
-282
-299
-323
-352
-382
-409
-432
-448
-455
-454
-446
-432
-415
-396
-380
-367
-360
-359
-364
-375
-390
-406
-421
-433
-439
-439
-430
-414
-394
-371
-349
-332
-321
-319
-326
-340
-360
-381
-400
-413
-418
-415
-403
-385
-364
-343
-325
-312
-306
-307
-312
-320
-330
-338
-343
-344
-341
-333
-320
-305
-287
-269
-249
-231
-216
-203
-196
-195
-200
-211
-228
-248
-269
-285
-295
-294
-280
-254
-216
-171
-123
-79
-44
-24
-23
-40
-75
-123
-176
-229
-272
-299
-308
-297
-268
-225
-175
-125
-81
-49
-31
-28
-36
-54
-75
-95
-110
-117
-115
-104
-87
-66
-44
-24
-7
5
12
14
13
9
5
2
2
5
12
24
40
60
82
105
126
144
158
165
167
163
154
142
130
120
114
115
122
137
158
183
211
238
263
283
297
306
309
307
304
300
298
299
306
318
336
358
385
413
442
469
493
512
526
535
540
542
545
549
555
566
581
599
621
643
664
682
696
705
709
710
710
710
711
716
723
733
745
757
769
779
787
792
796
798
798
797
795
792
787
781
776
771
769
771
779
792
811
833
856
876
891
897
894
881
859
832
802
774
750
733
723
721
724
728
731
726
712
686
648
599
542
481
422
369
327
297
281
278
284
297
310
320
324
318
301
275
239
196
149
100
52
8
-30
-60
-79
-89
-90
-82
-71
-58
-48
-45
-51
-66
-90
-120
-151
-180
-204
-218
-223
-219
-209
-196
-185
-178
-178
-186
-201
-221
-244
-268
-290
-308
-321
-329
-332
-330
-322
-310
-296
-280
-264
-251
-242
-240
-246
-261
-284
-313
-342
-369
-389
-398
-395
-379
-351
-318
-282
-251
-230
-223
-230
-253
-287
-326
-365
-397
-418
-423
-413
-389
-355
-318
-284
-259
-247
-250
-269
-300
-340
-382
-420
-449
-464
-465
-450
-421
-383
-341
-301
-267
-244
-236
-243
-264
-296
-336
-377
-416
-448
-471
-483
-485
-479
-467
-452
-437
-423
-413
-407
-405
-405
-406
-409
-411
-413
-413
-411
-407
-400
-390
-378
-362
-345
-329
-315
-306
-302
-306
-317
-334
-354
-375
-394
-407
-414
-414
-408
-397
-384
-372
-362
-356
-355
-358
-364
-372
-379
-386
-390
-391
-390
-385
-379
-370
-359
-347
-333
-319
-305
-292
-282
-275
-271
-268
-267
-264
-259
-250
-237
-221
-204
-188
-177
-173
-178
-192
-213
-241
-271
-300
-325
-342
-351
-352
-346
-333
-317
-299
-281
-264
-249
-237
-228
-224
-224
-228
-236
-247
-260
-272
-283
-289
-289
-283
-272
-256
-240
-225
-215
-212
-218
-231
-250
-271
-291
-306
-311
-306
-291
-266
-236
-204
-176
-156
-147
-151
-169
-198
-235
-276
-316
-351
-378
-392
-392
-378
-353
-317
-277
-235
-196
-166
-148
-144
-155
-179
-212
-252
-291
-324
-347
-356
-350
-330
-298
-259
-219
-183
-155
-139
-137
-147
-169
-199
-233
-266
-296
-318
-330
-332
-323
-307
-284
-260
-238
-221
-212
-213
-225
-245
-272
-300
-327
-348
-358
-357
-342
-316
-280
-238
-195
-156
-123
-102
-92
-95
-109
-130
-154
-177
-193
-199
-192
-172
-140
-100
-56
-15
18
39
45
35
13
-19
-55
-88
-114
-128
-128
-115
-90
-56
-18
21
57
88
113
131
144
153
161
169
178
189
203
219
237
257
278
298
317
331
340
342
335
318
292
260
226
193
167
150
145
154
173
199
226
249
260
256
235
196
142
79
12
-52
-109
-153
-183
-198
-201
-195
-185
-173
-165
-163
-169
-183
-205
-231
-260
-289
-314
-332
-343
-345
-338
-324
-305
-284
-266
-254
-249
-253
-265
-285
-309
-335
-359
-377
-388
-390
-384
-370
-351
-330
-310
-295
-288
-292
-306
-331
-365
-403
-442
-475
-499
-508
-502
-480
-447
-406
-364
-329
-306
-300
-311
-338
-377
-420
-461
-492
-509
-507
-489
-457
-416
-371
-330
-297
-277
-272
-280
-299
-327
-358
-388
-415
-436
-449
-454
-451
-443
-430
-415
-399
-385
-374
-369
-370
-379
-397
-424
-457
-495
-533
-568
-594
-605
-598
-568
-516
-443
-352
-248
-137
-21
96
218
348
495
670
882
1141
1450
1808
2206
2628
3055
3460
3817
4104
4299
4390
4372
4248
4031
3737
3388
3009
2622
2248
1904
1600
1341
1127
953
810
688
576
466
350
227
96
-39
-171
-292
-395
-474
-524
-545
-539
-510
-466
-413
-361
-316
-282
-263
-258
-266
-282
-304
-325
-343
-354
-356
-350
-336
-316
-294
-274
-259
-251
-252
-263
-281
-306
-334
-360
-382
-396
-400
-393
-376
-351
-321
-291
-266
-248
-240
-243
-258
-280
-307
-334
-357
-371
-375
-367
-349
-322
-291
-260
-233
-214
-204
-203
-212
-228
-248
-269
-286
-298
-302
-297
-283
-262
-236
-208
-182
-160
-146
-142
-150
-167
-193
-224
-255
-281
-297
-299
-286
-258
-217
-170
-122
-80
-51
-38
-44
-67
-102
-144
-184
-216
-235
-236
-219
-186
-143
-96
-51
-15
6
12
0
-28
-66
-109
-151
-187
-211
-220
-213
-192
-158
-116
-71
-29
6
30
41
39
25
3
-24
-53
-78
-97
-109
-112
-106
-91
-70
-43
-13
17
47
72
92
106
111
110
103
93
84
78
78
85
100
121
145
170
192
208
217
217
210
199
186
177
172
176
189
210
240
274
310
343
372
391
399
396
381
357
328
299
274
259
257
271
301
345
398
454
509
557
593
617
627
627
620
609
600
594
594
601
614
630
648
666
682
695
704
711
714
717
719
721
725
730
737
746
757
770
785
803
823
843
862
878
890
896
896
888
874
857
840
825
817
817
827
846
871
898
923
941
948
944
927
900
867
833
803
781
769
770
780
798
820
840
855
862
858
844
820
789
751
711
671
633
599
569
543
521
504
488
473
459
443
424
403
378
350
318
284
248
212
176
142
112
88
70
60
57
61
69
78
85
87
79
61
33
-4
-45
-86
-121
-145
-156
-153
-138
-115
-89
-66
-49
-44
-51
-69
-96
-128
-159
-187
-207
-219
-221
-215
-203
-187
-170
-154
-141
-133
-131
-135
-146
-163
-185
-210
-234
-256
-271
-278
-275
-262
-241
-215
-187
-163
-146
-141
-147
-164
-190
-219
-248
-271
-284
-284
-272
-250
-222
-193
-168
-153
-150
-160
-182
-212
-246
-278
-302
-316
-316
-305
-283
-256
-229
-206
-191
-186
-192
-206
-228
-253
-278
-299
-315
-326
-329
-326
-317
-304
-286
-264
-240
-215
-192
-173
-161
-160
-170
-192
-224
-264
-307
-347
-379
-398
-403
-393
-371
-340
-306
-275
-252
-239
-239
-250
-269
-292
-314
-330
-337
-333
-317
-293
-262
-228
-196
-168
-149
-138
-137
-144
-159
-179
-201
-223
-243
-259
-269
-274
-273
-267
-257
-245
-232
-221
-212
-208
-210
-216
-227
-242
-257
-270
-278
-278
-270
-252
-226
-194
-160
-128
-101
-84
-80
-88
-109
-139
-175
-212
-246
-270
-283
-282
-267
-242
-208
-172
-138
-112
-98
-98
-111
-136
-169
-205
-238
-264
-278
-280
-270
-249
-220
-189
-159
-134
-118
-110
-112
-123
-139
-159
-180
-199
-213
-222
-225
-222
-213
-200
-185
-170
-158
-150
-148
-152
-162
-176
-193
-210
-224
-232
-232
-222
-203
-178
-148
-118
-92
-75
-68
-73
-91
-118
-150
-184
-214
-236
-247
-246
-233
-212
-185
-155
-129
-108
-95
-92
-98
-113
-135
-161
-188
-213
-235
-249
-255
-251
-238
-217
-189
-159
-131
-107
-92
-87
-92
-106
-126
-146
-164
-174
-173
-160
-135
-102
-64
-26
8
35
51
57
53
42
26
9
-6
-15
-18
-13
-2
14
34
55
75
92
104
111
112
108
102
96
91
89
93
103
120
141
164
189
211
230
242
248
249
246
242
241
247
260
284
316
356
400
444
482
511
527
528
515
490
458
422
388
360
342
334
336
346
362
380
394
402
399
385
357
318
269
213
154
95
41
-6
-42
-67
-81
-86
-82
-75
-66
-60
-60
-66
-80
-101
-127
-155
-183
-208
-227
-237
-238
-231
-216
-196
-174
-154
-138
-130
-131
-142
-162
-188
-218
-246
-268
-281
-282
-271
-248
-217
-181
-146
-117
-99
-93
-102
-124
-157
-196
-238
-276
-306
-325
-329
-320
-298
-267
-231
-194
-161
-136
-121
-119
-129
-149
-177
-207
-236
-259
-274
-277
-269
-250
-223
-193
-163
-138
-122
-118
-126
-146
-175
-210
-247
-281
-307
-324
-328
-322
-305
-282
-257
-233
-215
-207
-211
-226
-251
-282
-315
-342
-357
-354
-330
-283
-213
-124
-18
101
230
367
515
678
861
1073
1319
1604
1927
2285
2667
3060
3446
3805
4119
4369
4543
4630
4626
4532
4353
4099
3784
3424
3037
2643
2261
1907
1593
1330
1119
958
841
755
688
626
557
475
376
263
142
22
-87
-176
-238
-271
-275
-256
-222
-181
-141
-111
-94
-92
-105
-130
-161
-195
-227
-252
-271
-281
-283
-279
-270
-260
-249
-238
-230
-224
-220
-219
-220
-223
-227
-231
-235
-237
-237
-234
-229
-222
-215
-210
-209
-213
-224
-241
-264
-289
-313
-332
-343
-343
-330
-306
-272
-233
-193
-157
-130
-113
-110
-119
-137
-162
-190
-216
-237
-251
-257
-253
-243
-226
-206
-184
-163
-144
-130
-120
-117
-120
-129
-141
-157
-174
-190
-202
-208
-207
-199
-183
-160
-133
-104
-76
-52
-33
-22
-19
-22
-31
-43
-57
-68
-76
-78
-75
-68
-57
-45
-35
-28
-27
-31
-40
-54
-70
-86
-99
-106
-108
-102
-89
-69
-45
-19
7
30
47
56
57
51
38
22
5
-7
-12
-7
11
40
78
119
160
193
213
218
206
178
137
91
45
6
-21
-31
-24
-1
36
82
132
180
222
256
278
289
290
283
270
256
244
237
239
250
271
300
335
371
405
431
447
450
440
419
390
360
332
314
308
317
343
382
431
485
539
587
625
650
661
660
648
630
610
593
582
580
588
608
637
673
714
756
795
829
855
872
879
876
865
849
831
814
802
797
801
813
832
856
880
902
917
923
919
906
887
865
846
833
829
836
852
876
904
932
954
968
972
965
948
924
897
870
846
827
815
808
805
804
803
799
790
776
757
733
704
672
638
601
564
526
488
451
417
388
364
346
335
330
330
331
330
325
313
293
263
226
185
141
100
65
37
19
8
4
3
2
-1
-9
-22
-40
-62
-87
-111
-133
-150
-162
-168
-168
-164
-158
-151
-144
-139
-139
-143
-153
-167
-187
-211
-236
-261
-283
-299
-308
-308
-299
-283
-263
-240
-220
-204
-196
-197
-207
-224
-245
-267
-285
-298
-302
-297
-284
-265
-243
-221
-204
-193
-190
-196
-210
-229
-252
-275
-295
-309
-317
-317
-310
-296
-279
-260
-242
-229
-222
-223
-232
-250
-274
-302
-330
-356
-376
-387
-389
-381
-364
-340
-313
-287
-266
-251
-245
-249
-260
-278
-297
-316
-330
-337
-335
-325
-308
-287
-265
-248
-236
-234
-241
-257
-280
-306
-332
-353
-366
-370
-363
-347
-324
-295
-265
-237
-213
-197
-190
-192
-202
-221
-245
-273
-302
-329
-352
-370
-379
-379
-369
-352
-328
-301
-274
-252
-236
-229
-233
-246
-265
-288
-310
-327
-336
-334
-323
-303
-277
-252
-229
-213
-207
-209
-220
-235
-252
-266
-273
-271
-259
-237
-209
-176
-144
-115
-95
-86
-88
-101
-125
-157
-193
-229
-263
-290
-308
-314
-309
-292
-266
-233
-196
-161
-130
-107
-94
-93
-103
-123
-150
-180
-209
-233
-249
-256
-252
-239
-219
-196
-172
-153
-141
-138
-144
-160
-182
-209
-235
-258
-273
-278
-270
-251
-222
-186
-146
-110
-81
-64
-62
-76
-104
-142
-186
-229
-265
-290
-300
-294
-275
-246
-212
-178
-150
-132
-125
-129
-144
-165
-190
-214
-235
-249
-255
-254
-245
-230
-212
-194
-178
-166
-161
-165
-177
-197
-223
-251
-278
-300
-314
-318
-312
-297
-275
-249
-223
-201
-185
-177
-177
-184
-195
-207
-218
-224
-224
-216
-201
-180
-155
-129
-103
-82
-68
-61
-62
-70
-84
-101
-116
-129
-135
-133
-123
-105
-83
-57
-33
-11
5
15
19
18
13
7
1
-2
0
9
24
46
76
110
148
188
226
259
285
301
308
305
293
275
254
234
218
211
213
226
248
277
310
342
371
392
403
403
391
370
341
307
272
239
209
185
167
153
141
131
118
102
79
51
16
-23
-64
-104
-142
-173
-197
-211
-217
-215
-207
-195
-183
-174
-170
-173
-183
-202
-226
-254
-283
-309
-329
-342
-345
-339
-326
-308
-288
-271
-260
-255
-260
-273
-292
-315
-339
-361
-378
-389
-393
-389
-378
-363
-345
-327
-311
-299
-294
-297
-308
-326
-350
-377
-403
-425
-439
-443
-435
-416
-387
-352
-316
-284
-261
-249
-250
-263
-285
-313
-341
-366
-383
-391
-389
-380
-366
-351
-337
-326
-321
-322
-327
-336
-345
-355
-362
-367
-369
-370
-369
-367
-366
-367
-372
-381
-395
-414
-437
-463
-487
-504
-510
-500
-469
-415
-336
-234
-109
35
197
376
574
794
1040
1316
1625
1966
2336
2725
3120
3503
3857
4160
4395
4547
4609
4575
4449
4238
3955
3616
3240
2846
2451
2074
1728
1423
1165
957
793
668
572
493
422
349
271
184
92
-1
-89
-165
-223
-262
-282
-285
-275
-260
-243
-230
-223
-223
-229
-240
-253
-266
-278
-291
-303
-317
-334
-353
-374
-396
-414
-428
-435
-434
-424
-408
-388
-368
-352
-343
-343
-352
-368
-388
-409
-426
-435
-435
-424
-406
-382
-356
-332
-315
-307
-309
-319
-335
-354
-371
-384
-389
-386
-375
-357
-335
-312
-291
-274
-262
-257
-259
-266
-277
-291
-306
-321
-334
-345
-352
-353
-350
-341
-327
-310
-291
-273
-258
-248
-245
-248
-256
-269
-282
-294
-300
-299
-291
-276
-255
-230
-205
-183
-166
-157
-156
-163
-177
-196
-217
-237
-252
-261
-262
-253
-236
-211
-182
-151
-123
-101
-88
-84
-90
-103
-122
-142
-159
-170
-173
-168
-154
-136
-116
-98
-86
-80
-83
-93
-108
-125
-140
-152
-156
-153
-142
-124
-101
-75
-48
-22
1
19
33
43
48
49
48
44
39
34
29
27
27
30
36
44
55
67
80
92
103
112
120
128
137
148
162
180
201
224
248
270
288
302
309
311
309
304
299
296
297
304
315
331
351
373
397
423
449
476
504
532
559
584
605
620
629
633
631
626
621
619
621
629
643
663
687
711
733
751
763
767
764
757
746
735
727
724
728
741
763
792
827
863
898
927
946
954
949
933
907
875
843
813
792
781
781
792
811
837
863
887
906
916
916
906
887
861
830
798
766
737
714
696
684
677
672
667
659
644
622
590
550
503
452
402
355
316
287
268
260
259
261
264
261
250
229
197
156
109
58
9
-34
-70
-95
-110
-115
-112
-105
-95
-85
-77
-72
-71
-74
-79
-88
-98
-110
-123
-137
-151
-166
-180
-194
-207
-217
-226
-232
-237
-240
-242
-244
-247
-250
-254
-259
-263
-267
-270
-272
-273
-273
-272
-271
-270
-271
-273
-277
-284
-292
-300
-308
-313
-314
-310
-301
-286
-266
-244
-222
-203
-189
-183
-186
-197
-216
-240
-266
-292
-314
-330
-339
-340
-333
-322
-307
-293
-281
-273
-271
-275
-285
-300
-317
-335
-351
-363
-371
-373
-369
-361
-349
-335
-320
-306
-295
-287
-285
-288
-296
-310
-329
-349
-370
-387
-400
-405
-402
-391
-373
-351
-329
-310
-299
-297
-305
-323
-348
-377
-404
-425
-436
-436
-423
-401
-373
-344
-317
-298
-289
-292
-305
-328
-355
-383
-406
-422
-429
-425
-412
-391
-367
-342
-319
-302
-292
-290
-296
-309
-327
-348
-371
-391
-407
-416
-418
-410
-395
-374
-349
-325
-305
-293
-291
-299
-317
-341
-366
-388
-401
-402
-390
-365
-331
-292
-254
-222
-201
-192
-196
-212
-235
-263
-290
-315
-333
-343
-346
-340
-329
-312
-292
-271
-250
-232
-218
-210
-209
-216
-231
-252
-278
-305
-328
-344
-349
-340
-319
-287
-247
-204
-164
-133
-115
-113
-126
-154
-192
-236
-279
-316
-345
-361
-364
-355
-336
-311
-283
-254
-228
-207
-192
-183
-182
-186
-196
-209
-224
-239
-251
-259
-261
-259
-252
-243
-234
-228
-228
-235
-249
-268
-289
-308
-321
-325
-319
-302
-279
-252
-225
-203
-189
-186
-194
-210
-233
-258
-282
-301
-313
-316
-311
-298
-280
-258
-237
-218
-205
-201
-205
-220
-243
-272
-305
-335
-360
-375
-377
-365
-340
-304
-262
-218
-177
-141
-113
-95
-84
-79
-78
-78
-78
-75
-70
-63
-54
-44
-33
-21
-11
-1
7
12
13
8
-2
-18
-36
-55
-71
-81
-81
-70
-48
-16
21
61
97
126
145
154
155
149
141
135
136
146
166
196
233
275
317
355
386
406
415
412
398
375
347
317
289
265
248
240
241
251
266
284
301
311
311
298
269
226
170
105
36
-30
-88
-132
-161
-172
-168
-152
-130
-109
-95
-92
-105
-134
-176
-228
-283
-336
-378
-407
-419
-413
-393
-363
-327
-293
-264
-245
-238
-243
-258
-282
-311
-341
-369
-395
-414
-428
-434
-434
-427
-414
-396
-375
-353
-334
-321
-316
-320
-334
-357
-385
-413
-437
-450
-448
-429
-393
-343
-286
-228
-179
-145
-132
-142
-175
-225
-286
-350
-408
-452
-478
-484
-470
-441
-401
-359
-320
-291
-274
-271
-281
-302
-329
-360
-388
-410
-423
-424
-415
-394
-365
-330
-295
-263
-241
-234
-244
-273
-320
-381
-448
-513
-565
-594
-594
-558
-488
-385
-257
-109
48
209
371
537
712
904
1125
1384
1686
2032
2418
2831
3252
3660
4028
4336
4561
4689
4711
4628
4445
4174
3835
3449
3039
2627
2234
1878
1570
1316
1117
965
852
765
688
611
524
423
307
182
56
-61
-161
-236
-282
-298
-290
-263
-226
-186
-152
-130
-121
-127
-146
-176
-211
-247
-280
-307
-323
-329
-324
-309
-287
-261
-238
-219
-210
-213
-228
-255
-289
-328
-364
-394
-412
-417
-407
-384
-352
-315
-278
-248
-228
-220
-226
-246
-275
-311
-348
-382
-408
-422
-422
-409
-383
-349
-310
-272
-239
-215
-203
-203
-214
-232
-255
-276
-293
-301
-299
-288
-269
-246
-224
-205
-194
-192
-200
-218
-241
-268
-294
-314
-327
-330
-323
-305
-279
-247
-213
-179
-149
-124
-108
-100
-101
-111
-129
-151
-176
-201
-221
-234
-238
-231
-214
-189
-158
-127
-99
-78
-67
-66
-75
-91
-110
-127
-138
-141
-132
-114
-88
-58
-29
-5
10
15
7
-11
-37
-69
-101
-131
-154
-167
-170
-162
-144
-118
-86
-52
-20
9
30
44
49
47
38
25
11
-3
-14
-21
-24
-22
-16
-5
9
25
42
60
77
92
104
114
121
125
128
132
139
150
166
189
216
248
280
310
334
351
359
359
350
338
323
312
308
312
328
354
388
427
469
508
539
561
573
574
567
555
542
535
535
545
567
599
637
679
720
755
780
794
796
788
772
751
730
711
698
693
699
714
739
772
810
851
889
922
946
957
955
939
913
879
843
810
786
774
775
788
812
841
871
897
914
922
920
910
894
875
857
840
826
814
803
793
780
765
748
728
707
686
663
640
616
591
563
533
501
470
442
418
401
391
387
386
384
378
362
333
292
238
175
109
46
-9
-49
-74
-81
-75
-59
-38
-19
-5
-1
-6
-21
-44
-72
-102
-131
-158
-179
-196
-205
-209
-205
-196
-183
-168
-155
-146
-146
-156
-180
-215
-259
-308
-355
-394
-420
-429
-421
-398
-365
-328
-294
-270
-260
-266
-286
-318
-355
-391
-420
-438
-441
-431
-409
-378
-343
-310
-282
-263
-254
-256
-269
-289
-314
-341
-366
-387
-402
-409
-409
-402
-390
-373
-355
-336
-320
-308
-301
-300
-303
-312
-324
-339
-354
-369
-380
-388
-390
-388
-382
-372
-362
-354
-349
-349
-356
-368
-384
-403
-422
-437
-445
-446
-439
-424
-406
-385
-367
-355
-350
-355
-369
-388
-410
-431
-447
-455
-454
-444
-428
-409
-390
-376
-368
-367
-373
-384
-396
-406
-411
-411
-404
-393
-381
-370
-364
-365
-374
-389
-409
-430
-451
-467
-478
-484
-484
-480
-474
-467
-460
-452
-442
-429
-412
-391
-367
-341
-316
-296
-283
-280
-287
-306
-335
-369
-405
-438
-464
-480
-484
-475
-455
-427
-395
-363
-335
-316
-306
-308
-320
-340
-365
-390
-412
-427
-432
-428
-413
-391
-364
-336
-311
-293
-284
-285
-296
-315
-339
-366
-389
-407
-415
-414
-402
-382
-357
-329
-304
-284
-271
-268
-273
-285
-303
-322
-341
-358
-371
-380
-385
-386
-384
-380
-374
-367
-359
-349
-340
-331
-324
-319
-319
-322
-330
-340
-352
-362
-370
-375
-375
-371
-364
-356
-349
-345
-345
-348
-355
-364
-374
-381
-385
-384
-377
-364
-347
-327
-305
-284
-267
-256
-252
-256
-268
-285
-308
-332
-354
-373
-386
-391
-388
-378
-363
-345
-328
-315
-307
-305
-310
-321
-336
-353
-370
-384
-393
-396
-392
-381
-364
-342
-317
-291
-267
-247
-231
-221
-216
-216
-218
-219
-218
-211
-198
-177
-150
-121
-91
-66
-49
-42
-48
-64
-89
-119
-149
-174
-190
-195
-187
-169
-142
-110
-77
-47
-24
-9
-2
-1
-6
-14
-21
-26
-26
-21
-10
7
30
58
91
127
165
204
241
275
303
324
335
337
331
317
299
281
266
256
255
262
277
295
314
327
331
322
298
259
209
150
90
34
-13
-47
-66
-71
-65
-51
-36
-25
-21
-28
-47
-76
-114
-156
-197
-235
-265
-285
-295
-296
-289
-278
-266
-257
-254
-258
-271
-290
-315
-343
-371
-395
-412
-422
-424
-418
-404
-386
-366
-345
-327
-313
-305
-302
-306
-316
-332
-351
-373
-394
-412
-426
-431
-429
-418
-400
-379
-359
-343
-336
-339
-354
-378
-407
-437
-461
-474
-473
-456
-427
-390
-350
-316
-294
-288
-300
-330
-373
-424
-476
-522
-558
-579
-583
-570
-543
-504
-459
-413
-371
-337
-316
-308
-316
-336
-367
-404
-443
-479
-509
-530
-543
-548
-547
-543
-536
-528
-516
-497
-470
-430
-376
-305
-219
-117
-1
131
281
454
656
894
1175
1501
1871
2276
2702
3130
3538
3901
4198
4410
4525
4540
4455
4279
4027
3716
3365
2992
2615
2249
1904
1589
1308
1065
857
681
534
409
301
207
123
46
-23
-85
-139
-184
-221
-251
-276
-296
-315
-333
-351
-368
-382
-393
-400
-401
-397
-388
-377
-365
-356
-351
-350
-355
-364
-375
-387
-398
-405
-409
-407
-401
-390
-375
-359
-343
-330
-321
-319
-325
-339
-361
-389
-421
-451
-477
-495
-501
-494
-475
-445
-409
-371
-336
-309
-294
-293
-304
-327
-356
-388
-417
-438
-449
-449
-437
-415
-388
-358
-330
-308
-294
-289
-294
-307
-326
-349
-371
-390
-402
-404
-395
-373
-339
-296
-249
-201
-161
-132
-120
-129
-159
-207
-269
-336
-400
-453
-487
-497
-482
-444
-388
-321
-254
-194
-148
-121
-114
-126
-153
-188
-226
-259
-284
-296
-295
-283
-261
-234
-207
-182
-164
-153
-151
-156
-167
-179
-191
-199
-200
-195
-183
-164
-140
-115
-90
-69
-52
-42
-38
-42
-52
-66
-84
-103
-120
-135
-146
-150
-149
-141
-129
-114
-97
-80
-66
-54
-46
-39
-33
-26
-14
3
25
53
86
120
154
184
208
225
232
232
225
213
198
184
173
166
166
174
188
210
239
271
305
338
369
393
411
419
419
410
396
379
364
354
352
361
382
414
454
499
544
584
615
634
639
633
618
599
579
565
561
567
585
612
647
684
719
750
772
786
791
789
782
775
770
768
771
779
792
806
821
834
844
849
849
845
837
827
817
808
802
798
797
799
804
812
821
831
840
849
854
854
848
835
812
782
746
705
664
626
595
572
559
555
557
560
560
553
535
505
463
411
355
299
248
205
174
155
146
146
150
155
156
152
140
118
88
51
8
-37
-83
-126
-163
-191
-210
-219
-218
-210
-196
-180
-166
-156
-153
-157
-169
-186
-208
-230
-249
-265
-274
-276
-273
-266
-257
-249
-243
-242
-246
-254
-267
-282
-298
-313
-325
-334
-338
-337
-334
-327
-319
-311
-304
-298
-294
-293
-295
-300
-308
-319
-333
-349
-367
-385
-400
-411
-415
-411
-399
-378
-351
-321
-292
-268
-254
-252
-262
-284
-313
-346
-376
-400
-414
-414
-403
-382
-357
-331
-312
-302
-305
-321
-348
-382
-417
-448
-470
-478
-473
-454
-425
-389
-352
-318
-294
-281
-281
-294
-318
-350
-385
-419
-448
-468
-476
-472
-454
-426
-390
-351
-314
-282
-261
-253
-260
-281
-313
-351
-390
-425
-450
-461
-457
-438
-406
-366
-324
-286
-256
-239
-237
-250
-276
-311
-351
-389
-421
-442
-449
-442
-422
-392
-357
-322
-293
-273
-265
-270
-287
-312
-341
-369
-391
-404
-404
-393
-371
-343
-312
-283
-259
-244
-238
-242
-251
-264
-277
-287
-292
-291
-285
-275
-265
-255
-249
-245
-245
-248
-252
-256
-260
-263
-266
-270
-276
-285
-295
-306
-314
-318
-316
-307
-291
-271
-251
-235
-226
-227
-239
-260
-286
-312
-332
-343
-340
-324
-297
-263
-226
-194
-170
-157
-157
-169
-188
-212
-235
-255
-268
-274
-273
-265
-254
-241
-228
-218
-210
-207
-207
-212
-221
-233
-247
-262
-277
-291
-301
-306
-306
-301
-292
-279
-265
-252
-242
-236
-234
-237
-244
-253
-262
-271
-278
-282
-283
-281
-276
-269
-258
-246
-231
-216
-200
-185
-172
-163
-160
-163
-173
-188
-209
-231
-253
-272
-287
-297
-302
-303
-301
-299
-297
-297
-298
-300
-300
-297
-287
-270
-244
-210
-169
-126
-82
-43
-11
11
21
20
9
-9
-32
-56
-77
-93
-103
-105
-99
-87
-70
-51
-33
-17
-5
1
1
-4
-11
-18
-21
-19
-8
11
40
76
117
158
196
228
252
265
269
265
256
245
236
231
232
240
254
273
295
316
334
346
350
344
328
303
272
236
200
167
140
121
112
110
115
121
125
124
114
93
61
21
-26
-75
-121
-162
-194
-217
-230
-234
-232
-224
-213
-203
-193
-186
-183
-185
-194
-211
-235
-265
-300
-335
-368
-393
-406
-407
-394
-370
-339
-306
-278
-259
-253
-261
-282
-312
-347
-380
-405
-420
-423
-415
-397
-375
-353
-334
-323
-321
-328
-344
-367
-395
-426
-457
-486
-509
-525
-531
-525
-506
-476
-436
-391
-345
-306
-277
-264
-269
-291
-328
-374
-422
-465
-497
-514
-515
-500
-473
-440
-405
-375
-352
-339
-336
-341
-352
-365
-377
-388
-397
-402
-407
-412
-421
-433
-449
-468
-490
-509
-523
-528
-519
-495
-453
-395
-320
-229
-124
-5
130
284
460
664
900
1171
1478
1817
2182
2560
2939
3300
3628
3904
4116
4251
4304
4272
4156
3965
3707
3396
3046
2674
2296
1927
1581
1269
996
766
577
426
305
207
125
52
-16
-81
-144
-203
-256
-303
-341
-371
-393
-408
-417
-420
-416
-407
-392
-371
-346
-321
-297
-278
-267
-267
-280
-302
-331
-362
-389
-408
-416
-410
-393
-365
-333
-302
-277
-264
-264
-278
-304
-340
-381
-422
-458
-486
-503
-508
-502
-486
-462
-432
-399
-367
-336
-311
-292
-281
-278
-284
-296
-313
-332
-350
-364
-373
-374
-368
-355
-337
-318
-299
-283
-270
-263
-259
-259
-260
-261
-261
-258
-253
-246
-238
-230
-223
-218
-215
-215
-217
-221
-227
-235
-244
-255
-266
-276
-284
-288
-286
-276
-258
-231
-198
-162
-126
-94
-71
-60
-63
-78
-103
-135
-167
-197
-218
-229
-228
-218
-201
-180
-162
-148
-142
-144
-154
-169
-185
-198
-206
-206
-195
-175
-146
-111
-74
-38
-8
15
28
31
24
8
-12
-35
-55
-70
-76
-73
-59
-37
-9
22
52
77
95
105
105
99
88
77
68
64
67
78
97
120
146
172
195
213
224
229
229
225
219
215
212
213
217
226
239
255
274
296
320
346
373
400
425
448
465
475
479
477
471
464
459
459
469
487
515
549
586
621
650
669
678
676
666
653
641
634
637
650
673
705
743
782
818
849
871
884
888
884
875
864
852
843
838
839
847
862
882
906
931
955
975
988
993
988
975
954
929
903
879
862
853
852
861
876
897
918
938
953
961
960
950
932
907
877
845
813
784
760
741
727
717
710
701
689
671
646
612
572
526
479
433
394
362
341
330
328
331
337
340
339
328
309
280
243
200
156
114
76
45
22
7
-1
-4
-4
-3
-3
-7
-13
-23
-35
-50
-68
-87
-108
-130
-153
-177
-199
-218
-233
-240
-239
-230
-212
-189
-162
-137
-117
-105
-104
-114
-132
-156
-182
-205
-221
-229
-227
-216
-201
-185
-173
-166
-168
-179
-196
-217
-239
-257
-270
-274
-271
-261
-247
-230
-215
-204
-197
-197
-204
-215
-229
-246
-262
-277
-286
-289
-285
-273
-253
-227
-197
-167
-141
-123
-115
-119
-137
-165
-202
-242
-279
-310
-330
-336
-329
-310
-284
-253
-225
-203
-191
-191
-203
-225
-255
-288
-321
-350
-372
-385
-389
-383
-368
-346
-319
-291
-264
-240
-223
-213
-211
-217
-228
-244
-260
-274
-282
-284
-278
-264
-244
-222
-201
-185
-176
-178
-191
-215
-246
-281
-316
-346
-366
-373
-365
-344
-312
-273
-232
-195
-168
-154
-155
-171
-197
-230
-263
-290
-307
-310
-300
-277
-245
-210
-177
-150
-135
-131
-140
-158
-183
-211
-237
-259
-273
-278
-275
-264
-246
-224
-199
-176
-155
-140
-131
-129
-134
-146
-162
-179
-196
-210
-218
-220
-215
-204
-190
-174
-159
-146
-138
-136
-139
-147
-159
-174
-191
-206
-220
-231
-236
-235
-228
-215
-196
-173
-149
-126
-108
-97
-94
-100
-114
-133
-156
-178
-195
-205
-208
-201
-188
-169
-150
-133
-120
-116
-120
-132
-152
-177
-202
-227
-246
-257
-260
-254
-240
-219
-195
-171
-150
-135
-129
-132
-145
-164
-188
-213
-234
-247
-251
-242
-223
-196
-163
-129
-99
-77
-65
-66
-78
-101
-132
-165
-198
-226
-247
-259
-260
-253
-238
-220
-201
-186
-176
-175
-184
-201
-224
-250
-273
-290
-294
-284
-258
-218
-168
-114
-61
-16
15
30
29
13
-12
-41
-68
-86
-92
-85
-64
-33
5
44
80
109
128
135
131
118
97
71
44
18
-2
-14
-15
-3
19
52
93
138
182
222
253
274
286
289
287
284
284
289
301
318
338
358
374
382
381
371
352
329
306
287
277
276
286
304
327
351
372
386
390
384
368
341
306
264
216
165
111
56
1
-50
-96
-134
-161
-175
-177
-167
-148
-124
-98
-75
-60
-56
-64
-83
-112
-147
-184
-220
-251
-275
-290
-296
-293
-283
-268
-251
-233
-218
-207
-204
-208
-221
-241
-266
-293
-319
-338
-348
-347
-333
-309
-279
-249
-224
-209
-208
-222
-249
-284
-322
-356
-379
-386
-377
-352
-314
-269
-223
-184
-157
-144
-147
-166
-196
-235
-277
-318
-352
-377
-389
-389
-376
-355
-328
-300
-276
-259
-254
-261
-280
-307
-340
-372
-399
-416
-420
-412
-393
-368
-342
-322
-313
-318
-340
-378
-427
-481
-534
-576
-601
-600
-572
-515
-431
-323
-198
-62
81
225
373
526
692
877
1093
1345
1640
1977
2351
2751
3160
3558
3921
4229
4462
4606
4651
4595
4444
4208
3901
3543
3154
2754
2362
1996
1669
1388
1158
978
841
739
659
589
517
436
340
231
112
-8
-119
-212
-280
-317
-324
-306
-269
-224
-179
-144
-125
-123
-140
-170
-210
-252
-292
-326
-351
-366
-372
-369
-360
-347
-332
-317
-304
-293
-288
-288
-295
-309
-328
-351
-376
-398
-416
-427
-429
-422
-407
-387
-364
-342
-324
-311
-304
-304
-310
-318
-327
-336
-342
-345
-343
-336
-325
-313
-300
-289
-280
-277
-280
-289
-305
-325
-348
-370
-387
-396
-396
-384
-362
-332
-297
-260
-227
-201
-185
-179
-185
-199
-220
-242
-264
-281
-290
-292
-285
-271
-252
-231
-211
-193
-180
-172
-171
-176
-185
-196
-208
-219
-228
-233
-234
-232
-227
-221
-214
-207
-202
-198
-194
-191
-189
-185
-181
-175
-167
-157
-145
-131
-116
-100
-83
-68
-56
-48
-46
-51
-63
-81
-103
-127
-149
-164
-170
-165
-148
-119
-81
-39
2
37
61
70
63
42
7
-34
-75
-110
-133
-139
-127
-97
-53
-1
52
100
137
160
168
161
144
122
100
84
75
77
89
108
133
161
188
213
235
254
271
286
299
311
320
326
329
329
327
324
323
326
335
352
376
406
438
468
494
511
518
513
500
481
462
447
443
452
478
520
575
637
701
758
802
829
838
829
806
776
745
722
711
715
734
766
804
844
877
899
908
903
886
863
837
814
799
793
797
811
831
855
879
900
915
922
921
912
895
873
849
824
802
785
775
771
774
781
789
795
796
789
773
746
710
667
619
570
522
477
437
404
380
362
353
349
349
351
350
345
331
307
273
230
181
131
83
44
15
0
-4
1
10
19
21
16
0
-26
-60
-97
-136
-171
-200
-222
-236
-243
-244
-241
-233
-222
-210
-197
-183
-172
-164
-162
-167
-179
-198
-222
-249
-274
-295
-308
-312
-307
-294
-276
-257
-242
-232
-232
-242
-261
-286
-314
-340
-361
-372
-373
-363
-344
-319
-290
-263
-241
-226
-221
-226
-241
-264
-292
-323
-353
-378
-397
-406
-404
-392
-370
-341
-309
-277
-250
-232
-225
-230
-245
-270
-299
-328
-353
-369
-376
-372
-359
-339
-318
-298
-284
-278
-282
-295
-317
-343
-372
-398
-420
-435
-440
-436
-424
-406
-386
-367
-354
-349
-353
-367
-389
-416
-444
-468
-483
-488
-480
-460
-432
-397
-363
-332
-309
-295
-292
-299
-314
-333
-354
-374
-390
-401
-407
-406
-400
-390
-377
-362
-348
-336
-328
-325
-329
-339
-356
-376
-398
-419
-434
-443
-443
-434
-417
-395
-371
-348
-329
-317
-313
-316
-327
-341
-358
-373
-384
-390
-388
-380
-366
-347
-325
-303
-282
-265
-253
-248
-252
-263
-281
-305
-330
-355
-376
-389
-394
-388
-373
-352
-328
-305
-289
-281
-283
-297
-318
-343
-367
-386
-396
-395
-381
-358
-328
-295
-265
-242
-228
-226
-234
-250
-272
-297
-319
-338
-350
-355
-353
-345
-333
-318
-302
-286
-273
-262
-255
-253
-256
-265
-279
-298
-320
-344
-365
-381
-389
-386
-373
-349
-318
-284
-252
-228
-217
-219
-235
-263
-296
-328
-353
-366
-363
-345
-314
-275
-235
-202
-180
-172
-180
-201
-231
-263
-291
-312
-323
-322
-311
-295
-277
-262
-253
-254
-264
-282
-307
-335
-363
-388
-406
-415
-416
-406
-387
-362
-330
-296
-261
-228
-199
-176
-162
-155
-155
-163
-176
-191
-206
-218
-223
-219
-204
-178
-143
-101
-57
-14
21
43
51
42
19
-18
-61
-106
-146
-177
-193
-193
-179
-151
-114
-73
-33
3
32
51
61
64
62
57
55
57
66
86
115
153
199
248
298
344
381
406
417
413
395
365
329
290
253
223
204
197
201
216
237
260
280
294
296
285
261
225
180
129
76
25
-20
-57
-87
-108
-123
-134
-144
-155
-168
-185
-206
-229
-255
-280
-304
-323
-337
-344
-343
-335
-320
-301
-280
-259
-243
-233
-231
-237
-252
-274
-299
-325
-349
-368
-379
-383
-379
-370
-358
-344
-333
-325
-322
-326
-336
-351
-369
-390
-410
-427
-439
-443
-440
-429
-411
-388
-365
-344
-330
-325
-331
-347
-371
-400
-430
-456
-473
-481
-478
-464
-442
-416
-389
-366
-349
-339
-338
-345
-358
-375
-394
-413
-430
-442
-449
-449
-443
-430
-412
-391
-369
-351
-338
-335
-344
-366
-400
-444
-494
-544
-588
-619
-631
-621
-585
-525
-445
-349
-244
-136
-30
72
173
279
399
544
729
961
1248
1590
1981
2407
2849
3283
3684
4029
4297
4473
4548
4522
4399
4191
3915
3587
3229
2860
2496
2152
1839
1562
1324
1122
952
805
675
555
438
323
210
100
-1
-88
-158
-207
-236
-245
-240
-227
-212
-200
-196
-202
-219
-244
-274
-307
-336
-360
-377
-385
-385
-378
-369
-359
-351
-348
-352
-364
-382
-405
-430
-453
-469
-476
-472
-455
-428
-393
-356
-323
-299
-290
-296
-319
-355
-398
-442
-479
-503
-509
-498
-471
-433
-391
-353
-324
-309
-311
-327
-354
-386
-418
-445
-461
-467
-460
-445
-424
-400
-379
-360
-348
-341
-339
-341
-347
-353
-359
-365
-369
-370
-367
-361
-351
-336
-319
-299
-280
-263
-250
-243
-243
-251
-265
-284
-304
-324
-341
-353
-357
-355
-345
-329
-308
-286
-263
-242
-225
-213
-207
-206
-211
-220
-231
-243
-254
-262
-265
-263
-255
-243
-226
-206
-185
-166
-150
-138
-133
-134
-141
-154
-169
-185
-199
-208
-210
-203
-187
-164
-136
-108
-82
-63
-54
-55
-68
-88
-111
-134
-150
-155
-147
-124
-88
-43
6
52
90
116
128
123
104
75
40
5
-26
-47
-57
-53
-36
-8
27
65
103
136
162
179
186
185
177
166
155
146
144
149
163
186
216
251
288
323
353
375
386
387
379
365
348
335
329
335
355
390
436
491
547
598
640
668
680
676
660
637
610
587
570
564
569
585
610
641
676
711
744
772
793
807
812
808
797
778
755
730
708
692
687
693
712
743
781
822
860
889
905
906
890
861
824
783
747
718
703
701
713
734
759
783
801
807
800
779
745
702
653
603
558
519
489
468
455
449
445
442
435
422
400
371
333
289
240
190
143
101
68
45
32
29
33
41
49
52
47
31
3
-34
-79
-128
-174
-215
-245
-264
-269
-262
-245
-223
-200
-178
-162
-154
-154
-164
-181
-205
-233
-263
-293
-321
-344
-361
-372
-376
-373
-366
-356
-345
-337
-334
-337
-347
-364
-384
-406
-426
-440
-446
-441
-427
-403
-374
-342
-313
-291
-279
-281
-296
-323
-358
-398
-437
-468
-489
-496
-489
-470
-443
-413
-385
-364
-354
-357
-372
-397
-427
-458
-486
-506
-516
-515
-503
-483
-457
-429
-401
-377
-359
-350
-349
-358
-376
-401
-430
-461
-489
-511
-525
-528
-521
-504
-481
-454
-429
-410
-399
-398
-408
-427
-451
-478
-503
-522
-533
-534
-526
-508
-484
-456
-427
-402
-383
-374
-375
-387
-409
-438
-471
-502
-528
-545
-550
-543
-524
-497
-466
-436
-412
-397
-393
-401
-418
-440
-465
-487
-501
-507
-503
-490
-471
-449
-428
-412
-403
-402
-412
-429
-452
-477
-502
-524
-539
-546
-543
-531
-511
-484
-454
-425
-399
-379
-369
-370
-381
-402
-428
-458
-485
-505
-514
-511
-494
-465
-427
-386
-346
-314
-294
-288
-298
-321
-353
-389
-423
-450
-466
-468
-456
-432
-399
-363
-328
-298
-275
-262
-260
-267
-281
-301
-323
-346
-366
-381
-390
-391
-385
-370
-347
-320
-289
-260
-234
-217
-209
-214
-230
-256
-289
-324
-356
-380
-392
-390
-373
-345
-309
-270
-235
-209
-196
-197
-214
-242
-277
-312
-342
-361
-365
-353
-329
-294
-256
-220
-193
-179
-179
-192
-217
-249
-282
-311
-333
-344
-346
-337
-322
-302
-281
-260
-242
-228
-219
-216
-219
-228
-243
-264
-290
-318
-345
-367
-380
-380
-365
-336
-297
-250
-203
-163
-135
-123
-130
-152
-186
-225
-260
-286
-296
-287
-261
-220
-170
-118
-71
-35
-13
-8
-16
-34
-57
-79
-97
-108
-109
-103
-91
-77
-63
-53
-47
-44
-45
-47
-47
-45
-38
-27
-12
6
25
47
69
93
119
148
179
214
250
286
318
343
361
369
367
357
341
323
306
294
288
289
298
312
328
344
357
363
362
352
334
309
279
246
212
180
151
125
103
83
65
46
26
4
-21
-47
-76
-105
-133
-159
-182
-202
-216
-226
-231
-232
-228
-223
-217
-211
-210
-213
-223
-241
-266
-296
-328
-357
-381
-394
-396
-385
-362
-332
-300
-270
-248
-236
-237
-250
-273
-300
-327
-350
-364
-369
-364
-350
-332
-313
-297
-287
-285
-291
-304
-323
-345
-367
-386
-401
-410
-413
-408
-398
-381
-359
-335
-311
-288
-270
-260
-258
-266
-283
-307
-334
-361
-384
-399
-404
-398
-383
-361
-336
-313
-295
-285
-284
-292
-306
-324
-341
-354
-360
-358
-350
-339
-328
-321
-324
-337
-362
-394
-429
-461
-480
-481
-458
-410
-334
-234
-114
23
174
339
519
720
949
1210
1509
1846
2217
2612
3018
3415
3785
4108
4367
4549
4644
4649
4565
4399
4159
3858
3510
3130
2735
2342
1967
1623
1322
1070
870
718
607
527
467
414
359
296
223
140
53
-33
-111
-176
-224
-254
-266
-265
-253
-235
-216
-200
-188
-184
-188
-200
-220
-247
-278
-311
-343
-372
-394
-407
-410
-404
-390
-370
-348
-327
-308
-296
-290
-290
-296
-306
-321
-337
-356
-376
-396
-417
-436
-452
-463
-467
-461
-446
-423
-393
-360
-328
-303
-287
-283
-291
-310
-336
-364
-389
-406
-412
-406
-389
-364
-336
-309
-290
-281
-284
-298
-319
-343
-365
-379
-381
-370
-346
-314
-278
-244
-217
-202
-200
-212
-234
-263
-292
-317
-334
-342
-339
-329
-313
-297
-282
-273
-270
-274
-282
-293
-305
-314
-320
-322
-319
-312
-301
-286
-268
-247
-224
-198
-172
-148
-127
-113
-108
-114
-131
-158
-192
-228
-260
-285
-296
-291
-269
-233
-185
-131
-79
-34
-2
15
14
-1
-28
-61
-94
-123
-143
-151
-147
-131
-107
-79
-50
-25
-7
2
1
-8
-24
-42
-60
-73
-78
-73
-58
-33
0
38
77
114
144
167
182
187
185
177
167
157
149
145
147
156
171
192
216
242
266
287
301
308
307
301
291
282
277
282
298
326
364
410
458
502
538
562
572
569
558
541
526
517
518
531
555
589
628
670
709
744
772
792
806
814
816
814
810
803
794
784
775
768
764
765
771
783
800
819
837
852
861
861
853
838
818
796
777
764
760
767
784
809
837
865
888
902
904
894
873
842
807
770
736
708
688
676
670
669
669
668
663
652
635
610
580
545
507
467
427
388
352
318
289
264
244
229
217
209
200
190
175
155
129
96
60
21
-16
-48
-72
-86
-89
-82
-67
-49
-30
-16
-10
-14
-29
-57
-95
-141
-189
-236
-276
-305
-319
-317
-301
-272
-237
-202
-173
-158
-160
-182
-220
-271
-327
-380
-421
-444
-444
-422
-381
-328
-271
-218
-177
-153
-148
-161
-188
-224
-261
-295
-319
-331
-330
-318
-297
-271
-245
-222
-206
-199
-201
-213
-232
-255
-281
-304
-324
-337
-343
-341
-332
-317
-298
-279
-261
-247
-239
-240
-248
-265
-287
-312
-338
-361
-378
-386
-384
-373
-354
-331
-308
-288
-275
-270
-275
-287
-304
-322
-339
-350
-355
-353
-345
-334
-323
-314
-307
-305
-306
-310
-314
-316
-316
-313
-308
-303
-297
-294
-292
-293
-295
-298
-300
-301
-301
-300
-300
-302
-307
-316
-330
-346
-364
-379
-389
-391
-384
-367
-342
-311
-279
-251
-231
-222
-226
-243
-271
-306
-343
-375
-398
-408
-402
-383
-352
-314
-274
-238
-209
-193
-189
-197
-216
-241
-270
-298
-322
-340
-350
-351
-344
-331
-312
-289
-265
-243
-223
-209
-201
-199
-205
-217
-233
-251
-268
-282
-289
-289
-281
-267
-248
-227
-209
-196
-191
-195
-207
-227
-250
-274
-294
-306
-307
-298
-279
-252
-222
-193
-169
-154
-149
-154
-167
-185
-206
-224
-237
-244
-243
-237
-225
-212
-199
-189
-182
-179
-181
-186
-195
-206
-220
-235
-251
-267
-281
-291
-297
-296
-289
-275
-257
-237
-218
-202
-194
-194
-201
-216
-234
-253
-269
-278
-279
-272
-257
-236
-213
-192
-175
-165
-163
-169
-182
-200
-222
-244
-264
-281
-293
-300
-301
-296
-286
-273
-256
-240
-226
-216
-212
-216
-228
-246
-268
-290
-308
-317
-312
-292
-257
-208
-151
-93
-40
1
24
27
10
-23
-68
-115
-157
-187
-199
-191
-163
-121
-69
-16
31
65
81
80
60
27
-13
-54
-89
-112
-119
-109
-84
-45
3
53
102
144
177
199
212
217
218
219
222
230
246
269
297
328
359
386
406
417
417
406
385
357
324
289
256
227
204
188
181
180
185
194
204
212
216
213
203
183
154
118
76
32
-12
-51
-84
-109
-125
-133
-134
-131
-128
-127
-131
-142
-160
-186
-216
-250
-284
-315
-341
-360
-370
-371
-364
-350
-333
-315
-298
-286
-281
-283
-292
-307
-325
-343
-358
-368
-371
-367
-357
-343
-329
-317
-310
-309
-316
-329
-347
-366
-384
-397
-405
-406
-401
-390
-375
-359
-344
-331
-321
-315
-314
-316
-323
-333
-347
-362
-378
-394
-407
-417
-420
-416
-405
-388
-367
-344
-323
-307
-299
-301
-311
-328
-349
-370
-387
-397
-398
-390
-375
-357
-340
-328
-325
-334
-354
-386
-426
-469
-509
-540
-557
-555
-533
-489
-424
-340
-239
-123
8
154
318
504
717
963
1245
1565
1919
2301
2701
3102
3487
3837
4133
4357
4497
4545
4496
4355
4130
3833
3481
3095
2693
2294
1917
1575
1278
1031
834
682
566
475
396
320
237
143
37
-77
-193
-300
-391
-457
-494
-500
-479
-436
-380
-321
-267
-227
-205
-203
-219
-250
-291
-335
-377
-411
-435
-447
-447
-437
-418
-396
-372
-351
-334
-325
-324
-331
-345
-364
-387
-410
-431
-446
-454
-453
-443
-424
-398
-368
-336
-306
-281
-263
-254
-254
-264
-281
-303
-326
-347
-363
-371
-370
-358
-338
-310
-279
-247
-219
-198
-186
-185
-194
-212
-236
-262
-288
-309
-323
-329
-327
-318
-304
-288
-272
-260
-255
-256
-264
-277
-293
-309
-321
-326
-322
-307
-281
-249
-211
-174
-142
-118
-107
-108
-123
-147
-177
-208
-235
-253
-260
-255
-238
-212
-180
-146
-115
-91
-76
-70
-75
-88
-107
-128
-148
-164
-173
-175
-168
-152
-129
-102
-72
-44
-19
-1
9
9
0
-15
-35
-55
-73
-85
-89
-82
-66
-42
-13
17
44
63
72
71
59
39
14
-11
-32
-46
-50
-44
-28
-6
21
47
72
91
104
112
115
115
114
114
118
126
139
157
180
207
236
265
293
318
338
351
357
357
352
344
336
332
333
342
359
383
413
445
476
503
522
533
536
534
527
521
517
519
530
548
574
607
642
677
709
735
754
765
767
762
752
739
726
715
709
708
713
726
745
770
799
831
862
891
915
933
941
940
930
913
889
863
838
817
804
799
803
816
835
856
876
892
901
901
891
873
847
818
787
758
734
716
705
700
701
703
705
702
693
676
650
617
580
540
502
469
442
423
411
404
398
390
377
356
326
286
239
186
132
80
35
-1
-26
-38
-39
-30
-14
3
19
29
29
18
-6
-40
-84
-133
-182
-227
-263
-288
-299
-296
-281
-258
-229
-201
-178
-164
-161
-171
-191
-220
-253
-285
-312
-328
-333
-325
-305
-277
-246
-216
-193
-180
-178
-186
-202
-224
-246
-267
-282
-292
-295
-293
-288
-281
-273
-266
-259
-253
-246
-240
-234
-230
-230
-233
-243
-257
-274
-293
-310
-322
-327
-323
-310
-289
-265
-239
-218
-205
-202
-210
-229
-257
-289
-322
-351
-373
-383
-383
-371
-351
-326
-301
-278
-263
-255
-258
-270
-288
-310
-333
-353
-367
-373
-371
-360
-343
-322
-299
-280
-265
-258
-259
-268
-285
-308
-332
-356
-374
-384
-385
-375
-356
-331
-303
-277
-256
-243
-240
-247
-261
-281
-301
-319
-330
-334
-330
-320
-306
-292
-280
-273
-272
-276
-284
-294
-304
-312
-317
-319
-317
-314
-309
-302
-295
-287
-277
-266
-253
-239
-226
-217
-215
-220
-233
-255
-282
-310
-335
-351
-355
-346
-324
-292
-255
-217
-185
-164
-157
-163
-183
-211
-244
-275
-300
-316
-321
-315
-299
-276
-249
-221
-195
-173
-159
-152
-154
-163
-179
-201
-224
-248
-270
-286
-296
-297
-292
-279
-262
-244
-227
-214
-206
-206
-213
-226
-243
-262
-279
-292
-299
-299
-292
-279
-261
-242
-225
-213
-209
-212
-224
-243
-265
-288
-308
-320
-324
-318
-304
-283
-261
-240
-225
-219
-221
-232
-248
-265
-281
-291
-294
-289
-276
-258
-239
-222
-208
-201
-200
-206
-218
-233
-249
-264
-277
-287
-293
-296
-293
-287
-278
-265
-248
-230
-211
-193
-178
-168
-163
-167
-177
-195
-218
-244
-269
-289
-302
-305
-297
-278
-249
-214
-177
-143
-116
-99
-94
-100
-117
-139
-162
-183
-195
-197
-187
-165
-133
-95
-56
-19
12
32
41
39
26
6
-18
-42
-63
-77
-82
-76
-59
-33
-1
33
66
95
117
130
135
134
129
124
125
133
151
180
218
263
311
357
397
425
441
442
428
402
367
328
289
255
230
217
216
228
249
277
308
336
357
367
365
350
323
286
243
197
152
109
72
42
18
0
-14
-25
-36
-48
-62
-79
-100
-125
-152
-181
-209
-235
-256
-271
-277
-276
-267
-254
-237
-220
-207
-199
-199
-208
-224
-247
-272
-297
-317
-331
-337
-332
-319
-300
-277
-254
-236
-226
-225
-235
-254
-279
-308
-335
-357
-372
-377
-372
-359
-341
-320
-300
-285
-275
-273
-278
-289
-305
-322
-339
-354
-365
-369
-368
-360
-347
-329
-309
-289
-273
-262
-259
-265
-278
-296
-317
-334
-345
-347
-337
-316
-288
-256
-226
-203
-191
-192
-208
-237
-275
-319
-363
-404
-438
-465
-483
-491
-489
-476
-450
-413
-362
-299
-226
-143
-54
41
140
246
364
502
669
875
1126
1428
1780
2174
2597
3029
3447
3827
4146
4386
4532
4578
4526
4382
4160
3876
3549
3197
2839
2488
2157
1854
1583
1344
1136
953
791
644
507
377
252
134
25
-71
-149
-207
-244
-260
-258
-243
-221
-200
-183
-175
-177
-189
-208
-232
-256
-278
-294
-304
-307
-304
-295
-282
-266
-250
-234
-222
-214
-213
-219
-232
-251
-273
-295
-313
-325
-327
-319
-301
-277
-249
-225
-206
-197
-200
-214
-236
-262
-289
-312
-327
-332
-328
-315
-295
-272
-248
-227
-211
-203
-203
-212
-228
-251
-278
-304
-327
-343
-348
-342
-324
-295
-261
-225
-193
-170
-160
-162
-177
-200
-226
-249
-264
-266
-253
-228
-194
-156
-120
-92
-76
-76
-90
-117
-152
-191
-227
-256
-275
-282
-276
-260
-235
-206
-177
-150
-129
-116
-111
-113
-122
-136
-152
-168
-181
-189
-190
-184
-170
-149
-121
-89
-56
-24
2
20
29
27
14
-8
-36
-67
-96
-119
-135
-140
-136
-122
-102
-77
-51
-27
-6
9
20
25
27
26
23
21
20
22
28
40
56
77
101
126
149
169
181
186
183
174
161
148
139
137
144
160
184
213
243
270
289
299
298
289
273
253
235
222
217
222
238
263
297
336
377
417
453
483
504
516
518
512
500
486
474
468
472
487
514
553
599
648
697
738
769
787
791
784
768
747
728
713
707
711
725
749
779
812
844
873
896
910
917
915
907
895
881
868
858
853
855
865
881
902
926
949
969
982
985
977
958
932
901
871
845
829
825
833
851
877
903
925
937
933
915
881
836
786
736
691
656
633
620
616
616
616
611
599
577
546
507
463
418
374
334
300
272
251
237
229
227
228
231
235
235
231
220
201
173
136
94
48
2
-40
-76
-102
-119
-128
-129
-126
-121
-117
-115
-117
-122
-130
-140
-151
-161
-171
-180
-187
-192
-196
-197
-195
-189
-180
-168
-155
-140
-128
-118
-115
-119
-129
-145
-163
-182
-197
-206
-207
-199
-184
-164
-143
-124
-111
-107
-111
-125
-145
-168
-190
-209
-221
-227
-225
-219
-209
-199
-192
-188
-190
-197
-210
-226
-245
-264
-282
-297
-308
-314
-315
-310
-300
-287
-272
-256
-243
-235
-231
-233
-240
-250
-261
-270
-276
-277
-272
-261
-248
-233
-219
-208
-202
-202
-207
-217
-231
-247
-265
-283
-300
-315
-328
-338
-343
-344
-339
-329
-314
-298
-281
-266
-256
-254
-259
-273
-294
-318
-343
-365
-380
-385
-379
-363
-339
-310
-280
-254
-235
-226
-229
-244
-268
-298
-330
-360
-382
-393
-391
-375
-347
-310
-269
-229
-195
-172
-163
-170
-192
-224
-262
-300
-332
-352
-357
-346
-320
-283
-240
-199
-165
-143
-136
-145
-167
-199
-235
-268
-293
-307
-307
-292
-266
-233
-198
-165
-140
-126
-123
-133
-153
-181
-213
-244
-271
-291
-302
-304
-295
-278
-254
-227
-200
-176
-158
-148
-146
-154
-170
-191
-215
-236
-252
-260
-258
-246
-226
-202
-176
-155
-139
-134
-138
-152
-173
-198
-224
-246
-263
-273
-274
-267
-255
-238
-219
-201
-186
-174
-167
-167
-173
-185
-202
-222
-242
-260
-271
-275
-269
-255
-232
-205
-176
-152
-135
-130
-136
-154
-181
-215
-250
-282
-307
-322
-325
-317
-301
-280
-256
-234
-217
-208
-206
-214
-228
-247
-267
-286
-301
-308
-306
-294
-274
-247
-217
-188
-164
-149
-145
-152
-169
-193
-221
-247
-267
-279
-280
-271
-254
-232
-208
-187
-171
-160
-156
-157
-160
-164
-167
-166
-161
-151
-137
-118
-96
-72
-46
-19
6
28
46
57
61
57
45
27
4
-19
-41
-58
-68
-71
-65
-53
-35
-14
10
34
57
78
97
112
124
133
140
145
150
157
170
188
215
249
288
329
369
401
423
430
422
400
368
330
293
261
240
233
239
256
282
310
335
351
355
342
315
272
219
158
95
36
-17
-61
-92
-112
-122
-123
-119
-113
-110
-110
-117
-130
-150
-175
-203
-232
-258
-280
-297
-306
-309
-306
-300
-291
-284
-280
-280
-287
-298
-313
-329
-343
-354
-359
-356
-347
-332
-315
-298
-286
-282
-288
-304
-330
-363
-399
-434
-464
-483
-490
-484
-465
-437
-402
-367
-335
-312
-300
-302
-315
-339
-369
-401
-430
-450
-460
-457
-443
-418
-387
-355
-326
-304
-293
-293
-305
-327
-357
-391
-424
-454
-476
-490
-495
-490
-479
-462
-444
-426
-413
-406
-406
-413
-427
-447
-469
-493
-514
-532
-545
-549
-546
-532
-508
-473
-428
-373
-308
-235
-154
-63
38
154
289
450
643
875
1149
1466
1824
2214
2624
3037
3433
3792
4094
4322
4463
4509
4460
4322
4105
3826
3501
3152
2796
2451
2129
1839
1584
1364
1176
1011
864
726
592
459
328
200
80
-26
-114
-180
-224
-247
-254
-250
-242
-236
-236
-245
-264
-289
-317
-344
-367
-382
-388
-386
-377
-365
-351
-339
-331
-328
-328
-333
-341
-353
-366
-380
-396
-412
-428
-442
-452
-459
-460
-456
-447
-435
-422
-411
-403
-400
-402
-408
-417
-424
-429
-430
-426
-417
-406
-395
-386
-381
-382
-389
-400
-414
-427
-438
-444
-444
-438
-425
-406
-385
-361
-337
-315
-297
-285
-279
-282
-292
-311
-335
-362
-390
-414
-430
-437
-432
-416
-390
-357
-321
-288
-260
-241
-233
-235
-248
-266
-286
-305
-319
-325
-323
-312
-293
-270
-245
-222
-202
-188
-181
-181
-187
-196
-208
-221
-232
-241
-248
-251
-251
-249
-245
-239
-231
-224
-216
-210
-205
-203
-203
-206
-211
-217
-221
-222
-219
-208
-190
-166
-137
-105
-74
-48
-30
-22
-24
-36
-56
-79
-102
-121
-133
-135
-128
-112
-90
-66
-43
-23
-10
-3
-5
-12
-23
-35
-45
-49
-46
-33
-11
21
59
100
141
177
206
223
228
221
205
182
158
137
123
120
127
146
173
205
239
270
297
316
329
336
338
339
341
345
354
369
389
415
445
477
509
539
565
585
597
602
599
590
579
569
563
565
577
600
634
677
724
772
816
851
873
881
875
857
829
797
765
738
720
714
720
739
766
800
836
868
894
910
914
906
888
862
830
798
768
743
726
718
718
726
739
754
767
776
777
767
747
716
676
630
582
536
497
467
449
441
443
450
459
463
459
443
414
373
322
266
208
155
110
74
51
37
30
29
28
24
14
-2
-25
-55
-87
-121
-152
-178
-196
-206
-208
-202
-191
-178
-167
-159
-160
-170
-189
-218
-254
-293
-333
-368
-395
-410
-414
-404
-385
-358
-328
-299
-275
-259
-254
-260
-274
-294
-318
-340
-358
-369
-372
-368
-357
-341
-324
-308
-295
-286
-284
-286
-294
-304
-316
-327
-337
-344
-348
-347
-341
-331
-318
-302
-286
-271
-260
-255
-259
-271
-292
-319
-351
-383
-410
-428
-434
-427
-406
-375
-338
-301
-269
-247
-238
-243
-262
-290
-323
-356
-384
-402
-408
-402
-387
-365
-340
-318
-301
-292
-294
-305
-325
-350
-379
-406
-430
-447
-455
-452
-439
-417
-389
-357
-327
-303
-288
-285
-295
-319
-352
-390
-429
-463
-487
-499
-497
-482
-457
-426
-395
-366
-345
-333
-330
-336
-348
-364
-381
-396
-407
-413
-414
-411
-403
-392
-381
-371
-363
-360
-361
-367
-378
-393
-408
-422
-433
-437
-433
-420
-399
-371
-339
-307
-279
-258
-248
-250
-263
-286
-316
-348
-377
-400
-413
-415
-404
-384
-358
-330
-304
-285
-274
-274
-283
-300
-321
-343
-363
-377
-384
-383
-374
-360
-342
-324
-307
-293
-283
-278
-276
-277
-279
-281
-281
-279
-275
-267
-258
-248
-238
-229
-223
-221
-223
-231
-245
-263
-285
-309
-332
-354
-373
-385
-390
-389
-379
-364
-344
-321
-299
-279
-263
-254
-253
-259
-272
-291
-312
-333
-351
-364
-370
-367
-354
-334
-308
-279
-251
-228
-213
-208
-215
-232
-258
-288
-319
-346
-364
-371
-366
-349
-324
-295
-267
-244
-231
-229
-239
-258
-284
-310
-333
-350
-356
-353
-340
-320
-297
-274
-253
-236
-226
-221
-221
-225
-232
-242
-252
-263
-272
-280
-284
-284
-276
-261
-238
-208
-174
-140
-110
-89
-78
-81
-97
-123
-153
-183
-205
-214
-207
-182
-142
-92
-39
11
50
74
79
67
40
4
-35
-69
-94
-105
-101
-81
-50
-9
36
82
124
161
189
210
223
229
231
230
228
228
232
241
255
274
296
317
336
347
349
340
320
291
257
223
194
173
164
168
183
204
227
246
255
251
232
199
154
101
45
-11
-61
-104
-138
-163
-178
-186
-187
-183
-176
-166
-156
-148
-145
-148
-158
-176
-203
-234
-269
-303
-332
-353
-363
-363
-351
-331
-306
-280
-256
-239
-230
-231
-241
-259
-282
-307
-330
-349
-361
-364
-359
-345
-326
-304
-285
-272
-269
-276
-294
-320
-351
-382
-407
-422
-424
-414
-392
-364
-334
-308
-292
-290
-301
-326
-360
-398
-435
-467
-490
-501
-500
-489
-468
-442
-413
-382
-353
-328
-306
-291
-282
-282
-288
-302
-320
-341
-361
-378
-389
-392
-387
-377
-364
-352
-346
-349
-363
-389
-423
-461
-495
-518
-521
-501
-454
-380
-280
-159
-21
129
289
459
645
850
1083
1348
1651
1992
2365
2760
3163
3556
3916
4225
4462
4614
4670
4628
4491
4266
3967
3613
3223
2818
2418
2040
1701
1408
1167
976
832
723
638
566
494
415
323
219
106
-8
-116
-207
-274
-312
-321
-302
-263
-212
-160
-117
-90
-84
-102
-141
-196
-259
-322
-377
-417
-440
-444
-430
-403
-370
-336
-306
-287
-280
-284
-300
-322
-349
-375
-397
-413
-422
-424
-420
-413
-403
-394
-386
-379
-375
-374
-374
-376
-380
-386
-393
-401
-411
-422
-432
-442
-448
-451
-448
-440
-425
-405
-382
-357
-333
-314
-300
-295
-297
-306
-320
-338
-355
-370
-380
-384
-383
-376
-368
-359
-351
-346
-345
-347
-351
-354
-354
-350
-340
-325
-306
-285
-265
-249
-239
-235
-239
-250
-265
-282
-298
-311
-319
-322
-317
-307
-292
-274
-253
-232
-213
-196
-183
-175
-173
-176
-184
-197
-212
-226
-237
-242
-239
-227
-206
-177
-143
-108
-76
-50
-35
-32
-40
-59
-85
-115
-144
-167
-182
-187
-180
-164
-140
-113
-85
-61
-42
-32
-29
-34
-44
-56
-67
-75
-77
-72
-59
-38
-10
22
57
90
121
146
164
174
176
170
159
143
127
114
105
104
112
130
156
188
225
262
297
326
347
359
363
361
354
346
340
339
345
358
379
405
432
459
482
499
507
508
504
498
492
491
498
514
540
575
614
656
694
726
749
761
763
756
744
731
718
710
709
715
729
750
775
801
828
851
870
883
890
889
883
873
861
849
840
836
838
848
863
884
906
928
946
958
961
954
939
915
886
856
826
800
781
771
769
774
785
798
808
813
808
789
757
711
655
593
529
470
420
384
363
356
361
372
385
393
392
378
351
312
263
209
154
103
59
24
0
-15
-24
-29
-32
-37
-45
-57
-73
-93
-114
-134
-154
-170
-183
-192
-198
-200
-201
-200
-199
-197
-196
-195
-195
-197
-201
-207
-216
-227
-240
-255
-270
-283
-293
-298
-298
-293
-284
-272
-259
-250
-244
-245
-252
-266
-283
-303
-323
-339
-350
-354
-351
-342
-327
-309
-290
-272
-260
-252
-252
-260
-274
-293
-315
-336
-355
-369
-376
-376
-370
-359
-346
-332
-322
-316
-315
-319
-328
-340
-354
-367
-378
-386
-391
-391
-388
-380
-370
-358
-345
-332
-322
-315
-313
-317
-326
-340
-358
-377
-394
-407
-415
-416
-411
-400
-385
-370
-355
-344
-338
-337
-342
-352
-367
-384
-402
-419
-434
-445
-450
-448
-441
-429
-413
-396
-381
-370
-364
-365
-372
-383
-395
-405
-411
-411
-403
-389
-370
-348
-328
-311
-300
-295
-297
-305
-317
-331
-346
-359
-370
-378
-382
-382
-378
-371
-360
-349
-337
-327
-322
-322
-328
-340
-356
-374
-390
-401
-405
-398
-382
-356
-325
-291
-260
-235
-220
-217
-226
-244
-269
-296
-320
-336
-341
-332
-310
-277
-236
-193
-153
-122
-105
-105
-123
-157
-203
-256
-308
-354
-388
-406
-407
-393
-366
-332
-297
-266
-242
-228
-225
-232
-246
-263
-281
-296
-305
-308
-303
-292
-275
-255
-234
-215
-200
-191
-190
-198
-214
-238
-265
-293
-317
-334
-339
-333
-315
-289
-258
-228
-203
-188
-185
-194
-214
-240
-269
-295
-315
-326
-327
-319
-305
-286
-268
-254
-244
-241
-244
-251
-262
-274
-285
-293
-299
-301
-299
-295
-288
-279
-269
-258
-247
-236
-226
-218
-214
-212
-215
-222
-232
-246
-260
-274
-283
-287
-284
-273
-256
-236
-214
-196
-185
-182
-189
-204
-222
-241
-254
-257
-248
-225
-190
-146
-100
-57
-22
0
8
1
-19
-49
-84
-119
-151
-176
-192
-197
-192
-176
-153
-124
-92
-60
-32
-9
7
15
15
10
3
-5
-8
-5
6
25
53
85
121
158
192
223
249
270
285
295
302
304
304
301
298
294
292
293
296
301
308
316
323
325
322
312
295
272
243
211
178
145
114
86
60
36
11
-14
-42
-72
-103
-135
-167
-198
-227
-252
-273
-290
-302
-309
-311
-308
-301
-292
-283
-275
-271
-274
-285
-303
-328
-357
-386
-411
-428
-434
-428
-410
-382
-349
-316
-287
-268
-260
-266
-285
-316
-353
-392
-429
-459
-480
-490
-489
-478
-460
-438
-416
-398
-386
-382
-386
-397
-413
-431
-449
-465
-476
-483
-484
-483
-479
-475
-471
-469
-468
-469
-470
-472
-474
-475
-477
-477
-478
-479
-480
-481
-482
-482
-482
-481
-480
-479
-479
-479
-481
-482
-484
-485
-486
-488
-490
-495
-502
-514
-528
-544
-559
-569
-570
-558
-530
-486
-423
-343
-245
-130
3
157
337
548
794
1078
1402
1762
2150
2555
2959
3347
3698
3995
4224
4374
4438
4414
4306
4119
3864
3553
3202
2827
2443
2066
1711
1389
1108
873
683
534
420
330
256
189
121
50
-25
-102
-176
-242
-298
-339
-365
-377
-380
-376
-371
-367
-367
-372
-381
-393
-406
-418
-427
-434
-437
-440
-441
-444
-447
-452
-459
-466
-473
-477
-479
-476
-470
-460
-447
-433
-420
-411
-406
-409
-419
-437
-461
-489
-518
-543
-563
-573
-573
-562
-542
-516
-489
-464
-445
-435
-436
-446
-465
-488
-511
-531
-545
-550
-546
-534
-514
-489
-462
-436
-412
-392
-378
-371
-371
-376
-385
-397
-408
-417
-420
-417
-407
-390
-368
-345
-325
-312
-308
-316
-335
-362
-394
-424
-448
-460
-457
-439
-407
-366
-320
-277
-242
-220
-213
-221
-242
-273
-307
-340
-367
-384
-390
-384
-369
-345
-318
-290
-264
-244
-231
-225
-228
-237
-251
-267
-282
-293
-299
-295
-283
-261
-232
-198
-163
-130
-104
-86
-80
-86
-103
-127
-155
-183
-206
-220
-223
-213
-191
-159
-122
-83
-47
-18
0
7
3
-12
-33
-57
-79
-96
-103
-98
-81
-54
-19
20
57
88
109
118
113
98
74
48
25
10
6
17
42
77
119
162
201
231
251
259
258
252
245
240
242
252
271
296
325
356
386
414
440
463
485
504
522
538
550
558
561
559
552
543
536
534
539
553
576
607
641
674
702
723
734
735
730
721
714
711
716
729
750
777
806
834
859
877
888
893
890
882
871
857
842
827
812
799
789
783
783
787
796
809
823
834
840
837
823
799
765
725
683
643
611
588
577
577
585
597
608
612
607
589
558
516
466
411
357
307
264
230
206
189
178
171
164
157
148
134
117
95
70
40
9
-24
-55
-85
-109
-128
-140
-144
-141
-134
-124
-114
-108
-108
-116
-132
-155
-182
-211
-239
-261
-276
-281
-277
-264
-246
-224
-204
-187
-177
-176
-183
-199
-222
-248
-275
-299
-317
-327
-329
-323
-311
-295
-280
-267
-260
-261
-270
-286
-307
-329
-349
-363
-369
-365
-350
-328
-299
-269
-242
-221
-210
-211
-223
-246
-277
-311
-345
-375
-397
-408
-409
-399
-379
-353
-325
-297
-273
-256
-249
-253
-266
-289
-318
-351
-383
-410
-429
-438
-434
-419
-394
-362
-329
-298
-274
-261
-260
-272
-293
-321
-352
-379
-399
-408
-404
-389
-363
-332
-299
-270
-249
-239
-241
-255
-279
-309
-341
-371
-394
-407
-410
-401
-383
-358
-329
-302
-279
-264
-258
-262
-276
-297
-322
-349
-374
-394
-406
-410
-406
-394
-377
-357
-337
-319
-305
-296
-292
-293
-298
-306
-315
-323
-329
-333
-334
-331
-325
-316
-306
-296
-288
-283
-283
-288
-298
-311
-328
-343
-356
-363
-364
-356
-341
-322
-300
-281
-265
-257
-258
-266
-280
-297
-314
-327
-333
-332
-322
-306
-286
-264
-245
-229
-220
-218
-223
-235
-252
-272
-294
-315
-334
-348
-355
-355
-347
-331
-309
-283
-257
-234
-218
-212
-217
-233
-259
-289
-321
-347
-365
-371
-364
-345
-317
-283
-249
-217
-192
-174
-165
-162
-165
-173
-183
-195
-209
-224
-240
-256
-270
-280
-285
-283
-273
-257
-237
-217
-202
-198
-205
-227
-261
-303
-347
-385
-413
-424
-415
-388
-347
-297
-246
-203
-172
-159
-164
-186
-219
-258
-295
-325
-342
-345
-333
-309
-279
-246
-217
-196
-186
-188
-199
-218
-241
-262
-278
-286
-283
-269
-246
-216
-182
-147
-115
-89
-70
-60
-57
-61
-70
-80
-91
-99
-104
-104
-101
-94
-85
-76
-67
-59
-53
-49
-46
-42
-35
-25
-12
7
30
57
86
117
147
176
203
226
246
261
270
275
275
270
263
254
246
239
236
238
245
256
269
281
292
297
296
289
276
259
239
220
203
190
180
173
167
161
151
135
113
84
47
5
-42
-89
-135
-177
-212
-238
-254
-262
-261
-255
-246
-237
-232
-232
-239
-253
-271
-292
-313
-330
-340
-343
-338
-325
-307
-286
-265
-248
-234
-226
-225
-229
-239
-253
-269
-286
-304
-322
-339
-353
-366
-376
-384
-389
-392
-391
-389
-383
-376
-368
-359
-351
-346
-345
-348
-356
-369
-385
-401
-415
-422
-421
-408
-384
-352
-316
-279
-248
-227
-221
-230
-253
-287
-328
-370
-407
-436
-454
-460
-456
-444
-429
-412
-397
-386
-379
-376
-375
-375
-375
-375
-373
-372
-372
-376
-383
-396
-412
-430
-446
-456
-456
-441
-410
-360
-292
-207
-107
8
138
284
451
645
871
1134
1438
1779
2151
2542
2937
3314
3655
3940
4153
4284
4328
4285
4162
3968
3717
3422
3098
2758
2413
2075
1752
1451
1177
934
723
543
393
268
165
78
4
-63
-123
-179
-231
-279
-321
-357
-385
-405
-416
-419
-414
-401
-382
-358
-331
-303
-276
-252
-234
-223
-221
-227
-242
-262
-286
-311
-333
-350
-359
-359
-351
-334
-312
-287
-264
-246
-234
-231
-237
-250
-268
-288
-306
-320
-327
-326
-318
-306
-292
-278
-269
-265
-267
-275
-287
-302
-316
-327
-333
-333
-326
-312
-295
-275
-255
-236
-221
-211
-206
-205
-209
-216
-224
-232
-238
-242
-242
-238
-230
-218
-203
-184
-164
-144
-124
-107
-94
-86
-85
-90
-101
-116
-134
-149
-161
-166
-161
-147
-124
-94
-63
-34
-12
-1
-4
-21
-50
-87
-127
-165
-194
-210
-211
-196
-168
-131
-89
-49
-15
8
19
17
6
-13
-35
-55
-70
-79
-79
-71
-58
-41
-23
-6
7
15
18
15
9
1
-8
-14
-16
-13
-3
13
37
65
96
127
154
176
189
194
190
180
165
151
140
135
139
153
175
204
235
265
289
306
312
309
296
278
258
239
226
222
228
245
272
307
345
385
422
453
476
490
494
490
480
468
457
450
451
461
481
510
546
585
625
662
693
715
727
730
725
715
702
691
684
682
689
703
725
752
783
816
848
877
902
919
930
934
931
923
912
900
892
891
897
913
939
972
1010
1047
1078
1100
1107
1098
1073
1034
987
936
889
850
826
817
825
847
881
919
958
990
1011
1018
1009
985
948
904
857
812
775
748
733
731
738
750
763
771
770
757
731
692
645
591
537
485
440
402
373
350
331
314
295
272
245
214
180
145
112
84
62
47
40
39
43
50
56
60
60
57
49
37
22
7
-10
-26
-42
-58
-75
-92
-109
-124
-136
-142
-141
-131
-115
-94
-71
-50
-38
-38
-52
-81
-124
-175
-228
-278
-318
-343
-352
-343
-321
-288
-252
-217
-188
-171
-165
-171
-187
-209
-235
-259
-278
-290
-293
-289
-277
-261
-243
-226
-214
-207
-208
-217
-233
-254
-276
-297
-312
-319
-316
-303
-282
-254
-225
-198
-180
-172
-178
-199
-231
-272
-315
-355
-385
-402
-403
-389
-361
-323
-283
-245
-215
-196
-190
-196
-212
-234
-258
-279
-296
-306
-309
-305
-297
-287
-276
-267
-261
-258
-260
-265
-273
-283
-294
-305
-315
-322
-327
-329
-327
-321
-314
-305
-296
-289
-285
-284
-288
-296
-306
-317
-328
-336
-340
-338
-330
-315
-294
-268
-241
-214
-190
-173
-165
-167
-178
-199
-226
-257
-288
-315
-336
-347
-348
-340
-322
-299
-272
-246
-223
-205
-195
-193
-199
-211
-227
-245
-261
-273
-279
-279
-271
-257
-239
-220
-204
-192
-188
-192
-203
-220
-240
-260
-276
-284
-283
-273
-253
-227
-198
-171
-148
-135
-131
-138
-154
-176
-199
-220
-233
-237
-229
-212
-187
-158
-131
-109
-96
-94
-105
-127
-157
-191
-225
-255
-277
-289
-290
-280
-261
-236
-209
-183
-162
-150
-149
-159
-180
-209
-244
-280
-312
-336
-349
-350
-338
-315
-285
-253
-223
-199
-183
-178
-182
-195
-213
-233
-253
-268
-277
-278
-272
-259
-241
-220
-197
-177
-162
-152
-151
-159
-175
-198
-225
-254
-280
-302
-315
-318
-311
-295
-272
-244
-217
-193
-174
-163
-159
-162
-169
-178
-187
-191
-190
-181
-163
-137
-104
-65
-24
16
53
81
100
105
98
79
52
19
-13
-39
-56
-60
-50
-28
3
37
70
96
111
115
107
90
69
48
35
31
42
67
106
155
211
268
322
368
403
423
429
420
400
371
338
305
278
260
253
258
274
299
327
354
374
383
378
358
325
282
232
180
132
89
56
32
15
4
-5
-13
-25
-42
-64
-91
-122
-156
-189
-219
-244
-261
-269
-268
-258
-242
-222
-203
-187
-179
-180
-193
-217
-250
-287
-326
-361
-389
-405
-410
-403
-386
-362
-336
-311
-290
-275
-269
-271
-280
-295
-314
-335
-356
-375
-390
-399
-402
-398
-387
-371
-352
-332
-315
-303
-299
-304
-317
-340
-367
-397
-423
-444
-456
-456
-446
-425
-399
-369
-342
-320
-307
-306
-315
-334
-359
-386
-411
-429
-438
-436
-424
-404
-378
-352
-329
-313
-304
-306
-317
-337
-364
-397
-433
-471
-507
-539
-563
-576
-573
-552
-510
-448
-367
-271
-165
-54
59
172
289
414
558
732
946
1210
1525
1891
2297
2726
3158
3567
3928
4219
4423
4529
4533
4438
4256
4002
3693
3349
2990
2633
2292
1979
1700
1457
1250
1074
923
791
669
551
433
313
193
76
-34
-130
-209
-267
-303
-321
-323
-315
-303
-294
-292
-299
-314
-336
-361
-385
-406
-419
-424
-422
-413
-402
-391
-384
-381
-385
-395
-410
-428
-446
-463
-475
-483
-485
-482
-474
-463
-450
-438
-426
-417
-413
-413
-419
-430
-445
-461
-478
-490
-496
-493
-480
-457
-425
-388
-350
-318
-294
-284
-290
-311
-344
-386
-430
-470
-500
-517
-518
-504
-478
-443
-407
-372
-344
-325
-317
-318
-328
-343
-359
-374
-386
-393
-394
-390
-380
-366
-348
-330
-313
-298
-288
-284
-286
-295
-307
-320
-330
-335
-330
-316
-292
-262
-229
-200
-179
-171
-178
-200
-234
-276
-319
-357
-385
-398
-395
-378
-349
-314
-277
-243
-217
-200
-194
-198
-211
-229
-250
-271
-289
-301
-306
-304
-294
-277
-254
-227
-199
-172
-147
-127
-111
-101
-97
-97
-101
-108
-117
-126
-134
-141
-143
-141
-133
-120
-101
-78
-55
-33
-15
-4
-2
-8
-20
-35
-49
-58
-59
-48
-26
6
45
86
123
153
171
177
170
155
136
117
105
104
117
144
184
233
287
339
383
416
435
438
428
407
381
354
332
319
318
330
356
392
436
485
534
581
622
655
678
690
692
686
673
658
644
635
633
639
655
677
704
731
753
767
770
762
744
720
694
672
659
659
674
703
744
792
841
884
915
930
927
907
871
824
772
723
682
655
643
648
667
698
735
772
803
825
833
826
805
773
733
687
639
593
550
511
477
446
419
394
371
350
330
312
294
276
257
236
213
188
160
131
103
76
53
35
22
12
5
-2
-13
-29
-51
-81
-116
-153
-190
-221
-244
-256
-257
-247
-230
-211
-193
-181
-179
-188
-207
-235
-266
-298
-324
-342
-350
-347
-334
-314
-292
-271
-256
-250
-254
-268
-292
-321
-353
-384
-409
-426
-434
-431
-418
-399
-375
-349
-326
-307
-296
-292
-296
-308
-325
-345
-368
-389
-406
-419
-424
-422
-412
-397
-377
-356
-336
-321
-314
-315
-325
-342
-365
-390
-413
-432
-444
-447
-443
-432
-418
-403
-390
-383
-383
-390
-403
-422
-443
-464
-482
-495
-502
-502
-495
-483
-466
-448
-429
-413
-400
-393
-391
-395
-404
-415
-428
-440
-450
-455
-456
-450
-440
-426
-410
-395
-383
-378
-380
-390
-407
-431
-458
-484
-506
-519
-522
-513
-493
-465
-433
-401
-375
-358
-355
-366
-390
-424
-463
-502
-536
-560
-570
-566
-548
-519
-482
-444
-409
-381
-364
-359
-367
-384
-408
-434
-459
-478
-489
-489
-479
-459
-432
-400
-366
-335
-310
-292
-285
-288
-302
-325
-354
-387
-419
-446
-464
-470
-463
-444
-416
-382
-347
-318
-298
-291
-299
-319
-349
-384
-419
-448
-467
-473
-466
-446
-418
-384
-349
-317
-292
-274
-264
-262
-266
-274
-284
-293
-301
-305
-307
-306
-303
-300
-297
-297
-298
-303
-310
-320
-331
-343
-354
-363
-370
-373
-370
-363
-351
-334
-315
-295
-277
-262
-254
-253
-261
-277
-299
-325
-351
-374
-390
-397
-393
-379
-357
-328
-298
-269
-245
-230
-224
-229
-243
-263
-287
-309
-328
-337
-337
-325
-303
-274
-240
-208
-182
-165
-162
-172
-196
-231
-272
-315
-354
-384
-402
-406
-396
-372
-337
-296
-251
-209
-171
-142
-123
-116
-118
-129
-145
-162
-177
-185
-184
-172
-151
-123
-91
-61
-37
-23
-20
-30
-51
-78
-106
-131
-146
-148
-135
-108
-69
-22
27
75
115
145
163
169
165
153
137
122
112
111
122
145
181
227
280
336
387
429
457
467
458
432
391
341
289
242
206
186
182
195
220
252
284
310
324
324
307
275
232
180
124
68
15
-32
-72
-106
-132
-152
-165
-172
-173
-170
-164
-158
-155
-157
-166
-184
-209
-241
-275
-306
-330
-344
-345
-334
-312
-285
-259
-238
-229
-233
-251
-280
-317
-354
-386
-408
-416
-411
-393
-367
-338
-312
-294
-286
-291
-307
-331
-360
-389
-415
-434
-443
-443
-434
-417
-395
-370
-346
-323
-306
-295
-291
-295
-308
-326
-349
-374
-397
-415
-426
-428
-421
-406
-387
-366
-347
-333
-328
-332
-344
-361
-382
-402
-417
-427
-428
-421
-408
-390
-371
-353
-340
-333
-335
-347
-368
-396
-431
-468
-502
-528
-541
-536
-508
-457
-383
-289
-177
-53
80
218
363
518
688
883
1110
1378
1691
2047
2441
2859
3283
3692
4062
4370
4595
4724
4746
4663
4480
4210
3873
3491
3085
2680
2294
1944
1638
1382
1175
1011
880
773
677
584
487
382
270
153
39
-66
-155
-222
-262
-276
-266
-237
-196
-152
-114
-88
-80
-91
-122
-169
-224
-282
-334
-375
-399
-405
-395
-370
-338
-304
-274
-255
-249
-256
-274
-302
-333
-363
-387
-402
-406
-399
-382
-360
-334
-309
-287
-272
-265
-265
-273
-287
-304
-322
-338
-350
-356
-355
-348
-335
-318
-298
-279
-261
-248
-241
-240
-244
-254
-266
-279
-290
-299
-303
-301
-294
-281
-265
-248
-231
-218
-211
-210
-215
-226
-241
-258
-274
-286
-291
-290
-282
-269
-253
-237
-224
-216
-212
-214
-220
-227
-233
-237
-236
-231
-221
-210
-197
-186
-177
-173
-171
-173
-176
-179
-180
-179
-175
-170
-164
-158
-154
-152
-151
-151
-149
-146
-139
-129
-114
-98
-83
-70
-62
-60
-66
-78
-94
-112
-126
-134
-133
-121
-99
-70
-38
-8
15
27
26
13
-11
-40
-68
-89
-98
-92
-70
-34
11
59
103
138
160
166
158
139
114
88
67
53
50
56
72
93
117
142
166
185
202
214
224
233
240
249
259
271
286
304
326
349
374
399
422
443
460
472
479
482
481
479
476
473
471
473
478
487
502
521
545
575
608
644
679
711
738
756
764
762
752
737
720
705
697
700
714
739
774
814
854
889
915
926
923
904
874
837
800
768
747
742
754
783
824
872
920
961
990
1003
1000
982
954
921
888
861
842
833
833
839
847
854
856
852
841
824
801
775
747
719
690
662
632
602
571
541
513
489
468
451
438
427
415
400
379
350
314
272
227
183
142
110
86
71
64
62
60
56
45
27
2
-28
-61
-91
-117
-134
-143
-143
-136
-125
-114
-106
-104
-108
-119
-137
-158
-181
-204
-224
-240
-251
-257
-259
-256
-250
-241
-231
-220
-209
-200
-195
-195
-202
-215
-236
-263
-293
-323
-349
-367
-375
-371
-354
-327
-295
-261
-231
-209
-197
-198
-210
-229
-252
-275
-292
-302
-304
-297
-285
-270
-256
-244
-237
-235
-238
-246
-258
-271
-286
-302
-318
-332
-344
-354
-359
-359
-353
-342
-327
-311
-296
-286
-282
-287
-301
-322
-349
-377
-403
-423
-434
-436
-426
-408
-384
-358
-332
-310
-295
-289
-291
-301
-317
-337
-358
-378
-393
-402
-404
-399
-387
-371
-352
-334
-319
-310
-307
-312
-326
-345
-368
-392
-415
-432
-441
-442
-433
-417
-395
-371
-348
-330
-320
-318
-325
-340
-361
-384
-405
-422
-432
-433
-425
-411
-391
-369
-349
-332
-320
-315
-317
-323
-333
-346
-358
-368
-374
-376
-374
-366
-354
-339
-322
-306
-291
-281
-277
-280
-292
-311
-335
-362
-389
-412
-427
-432
-425
-408
-382
-351
-320
-292
-271
-261
-261
-272
-291
-313
-335
-351
-359
-356
-344
-322
-294
-265
-238
-218
-206
-204
-212
-228
-249
-272
-294
-311
-322
-326
-324
-318
-309
-298
-287
-278
-272
-268
-267
-270
-275
-284
-294
-305
-314
-321
-322
-315
-299
-275
-244
-209
-176
-148
-130
-127
-138
-165
-202
-245
-288
-325
-350
-362
-359
-343
-317
-287
-258
-233
-216
-209
-212
-224
-240
-260
-278
-293
-303
-305
-299
-286
-267
-245
-223
-204
-192
-189
-195
-211
-234
-261
-288
-310
-323
-325
-314
-291
-259
-220
-179
-141
-108
-84
-71
-67
-72
-84
-99
-115
-129
-136
-136
-127
-110
-85
-56
-26
0
19
27
24
8
-17
-49
-82
-110
-129
-135
-125
-101
-64
-18
30
77
116
146
164
170
167
158
148
141
142
153
176
210
254
303
353
398
433
455
460
448
420
380
333
285
242
208
188
184
193
214
240
267
287
295
287
259
213
151
79
2
-72
-137
-188
-221
-237
-237
-223
-200
-175
-153
-137
-133
-140
-161
-191
-229
-270
-311
-345
-370
-383
-382
-370
-347
-317
-286
-256
-233
-219
-217
-226
-246
-274
-307
-341
-374
-402
-424
-439
-447
-450
-448
-443
-436
-427
-418
-410
-403
-398
-395
-393
-394
-396
-398
-400
-400
-398
-394
-387
-381
-375
-374
-377
-387
-403
-424
-448
-470
-487
-495
-493
-478
-454
-421
-385
-351
-323
-305
-301
-310
-331
-362
-397
-433
-463
-483
-492
-487
-469
-441
-406
-370
-336
-312
-300
-304
-326
-363
-413
-470
-527
-576
-607
-613
-591
-537
-453
-343
-214
-71
80
235
394
561
741
944
1179
1452
1768
2125
2516
2926
3339
3733
4083
4368
4570
4673
4670
4562
4355
4063
3705
3303
2881
2463
2071
1720
1422
1182
998
863
764
690
624
556
476
380
270
150
28
-85
-181
-252
-294
-308
-295
-264
-224
-182
-149
-130
-128
-146
-179
-222
-271
-317
-357
-385
-400
-403
-396
-382
-366
-351
-342
-338
-342
-352
-367
-383
-399
-413
-423
-428
-428
-423
-413
-401
-385
-368
-351
-336
-323
-315
-313
-317
-327
-342
-360
-378
-393
-403
-407
-404
-395
-381
-365
-349
-336
-327
-324
-326
-332
-342
-354
-367
-378
-387
-391
-390
-383
-369
-348
-321
-291
-261
-233
-213
-204
-207
-223
-250
-285
-323
-358
-384
-399
-400
-386
-361
-328
-292
-259
-232
-214
-207
-210
-221
-238
-255
-271
-281
-285
-281
-269
-251
-228
-204
-182
-165
-156
-155
-164
-180
-200
-222
-241
-253
-257
-250
-233
-209
-179
-149
-121
-100
-87
-84
-88
-100
-117
-135
-152
-165
-172
-170
-160
-141
-114
-82
-47
-14
14
34
43
40
26
4
-22
-48
-71
-85
-89
-82
-65
-40
-12
17
41
60
71
74
70
62
53
45
41
44
55
74
102
137
176
215
251
281
302
312
310
297
276
251
226
206
196
197
213
241
280
326
374
419
457
484
498
500
491
477
461
448
445
453
476
511
557
609
662
710
749
776
789
789
780
763
745
729
718
714
717
728
743
760
777
792
802
808
809
806
800
792
784
779
777
782
793
812
838
870
907
943
976
1000
1012
1008
987
950
900
843
786
734
694
671
667
681
709
746
783
813
831
832
814
778
727
666
602
539
482
435
399
373
356
346
339
334
327
316
299
276
247
212
172
130
88
50
19
-3
-14
-15
-6
9
25
37
40
31
9
-27
-73
-126
-180
-229
-269
-295
-307
-304
-289
-266
-239
-215
-197
-189
-192
-208
-233
-265
-300
-333
-360
-378
-384
-379
-365
-345
-322
-302
-287
-280
-281
-290
-304
-321
-337
-350
-357
-358
-352
-341
-327
-312
-297
-284
-275
-270
-270
-276
-289
-307
-331
-359
-388
-416
-439
-454
-459
-453
-436
-411
-382
-353
-330
-315
-313
-324
-346
-375
-407
-436
-458
-468
-464
-449
-423
-391
-359
-330
-308
-298
-300
-313
-335
-363
-394
-424
-450
-470
-482
-485
-479
-464
-442
-413
-382
-351
-324
-305
-296
-300
-319
-351
-394
-445
-496
-543
-580
-602
-608
-595
-568
-529
-485
-441
-404
-379
-368
-373
-393
-424
-461
-499
-532
-556
-566
-561
-542
-512
-476
-439
-408
-386
-377
-383
-403
-432
-467
-501
-529
-545
-548
-536
-511
-477
-440
-406
-378
-362
-360
-372
-394
-424
-455
-483
-500
-506
-496
-473
-439
-399
-357
-319
-292
-277
-278
-293
-320
-355
-394
-430
-461
-482
-492
-490
-479
-460
-436
-411
-386
-366
-351
-343
-341
-344
-353
-364
-377
-390
-399
-405
-404
-398
-386
-370
-351
-333
-317
-307
-304
-308
-320
-338
-359
-380
-398
-411
-415
-411
-398
-378
-353
-327
-303
-283
-271
-267
-273
-288
-310
-338
-368
-396
-420
-436
-444
-441
-430
-411
-389
-365
-344
-330
-323
-326
-338
-356
-377
-398
-414
-422
-420
-409
-390
-364
-337
-312
-293
-283
-284
-295
-313
-337
-361
-381
-394
-397
-391
-377
-357
-336
-316
-302
-296
-299
-310
-327
-347
-366
-380
-388
-386
-375
-355
-325
-290
-249
-206
-163
-123
-88
-61
-44
-38
-43
-59
-83
-112
-142
-168
-185
-193
-189
-175
-152
-126
-99
-76
-60
-51
-50
-54
-60
-66
-67
-61
-47
-24
7
43
81
120
155
184
206
220
226
225
218
208
198
189
184
184
190
202
218
237
257
275
290
299
303
301
294
282
266
247
227
206
183
160
135
108
80
50
18
-15
-49
-83
-116
-147
-176
-201
-222
-239
-251
-258
-263
-265
-267
-269
-272
-279
-288
-299
-312
-325
-338
-349
-357
-360
-358
-352
-341
-327
-310
-295
-281
-273
-271
-278
-294
-316
-344
-373
-399
-420
-431
-432
-422
-402
-377
-349
-323
-303
-292
-292
-302
-320
-346
-376
-406
-433
-456
-472
-480
-479
-470
-452
-429
-401
-373
-348
-332
-325
-332
-353
-384
-424
-465
-501
-527
-536
-527
-500
-457
-404
-348
-296
-257
-234
-232
-249
-284
-331
-382
-433
-475
-505
-521
-523
-514
-498
-480
-466
-461
-465
-478
-498
-518
-532
-532
-512
-468
-398
-303
-185
-48
105
273
456
657
883
1137
1425
1749
2104
2484
2873
3253
3603
3903
4135
4283
4341
4305
4182
3981
3716
3403
3058
2698
2336
1984
1653
1349
1079
844
645
481
348
239
147
67
-9
-83
-160
-237
-313
-383
-444
-491
-521
-534
-530
-512
-486
-455
-423
-396
-375
-362
-356
-356
-362
-371
-383
-397
-411
-424
-436
-446
-454
-457
-458
-454
-448
-440
-433
-428
-427
-431
-439
-451
-464
-477
-486
-490
-488
-478
-462
-440
-416
-391
-368
-347
-332
-322
-317
-317
-323
-332
-344
-358
-373
-387
-400
-409
-414
-415
-411
-404
-397
-390
-386
-386
-391
-401
-413
-426
-436
-441
-439
-429
-410
-385
-356
-328
-303
-285
-276
-278
-290
-310
-335
-362
-388
-408
-420
-423
-416
-402
-381
-356
-332
-311
-295
-287
-286
-293
-304
-318
-331
-341
-346
-343
-332
-313
-290
-263
-238
-215
-198
-189
-187
-193
-207
-225
-245
-266
-285
-300
-308
-308
-300
-282
-256
-223
-186
-149
-115
-89
-74
-74
-88
-115
-150
-188
-221
-243
-249
-237
-207
-163
-112
-62
-21
4
10
-4
-36
-79
-126
-167
-196
-206
-196
-166
-120
-64
-5
48
91
120
133
130
117
95
72
53
40
37
45
62
87
117
149
180
207
228
245
256
265
271
276
283
290
300
312
326
341
357
374
391
409
425
439
450
457
459
456
450
441
434
431
435
448
471
504
544
587
628
662
686
696
693
678
656
631
610
595
592
601
622
652
689
727
762
792
815
829
835
834
827
815
801
786
770
754
740
728
720
716
717
721
728
734
739
739
732
719
700
676
652
629
611
599
594
594
597
599
595
582
557
519
470
413
352
293
240
197
166
147
137
134
134
131
122
105
81
49
13
-23
-56
-84
-103
-114
-116
-112
-105
-97
-90
-87
-90
-97
-111
-130
-154
-183
-215
-250
-286
-321
-354
-381
-400
-409
-407
-395
-375
-350
-324
-304
-292
-293
-306
-330
-363
-399
-433
-460
-475
-475
-462
-436
-403
-366
-333
-306
-290
-287
-296
-316
-344
-376
-408
-436
-458
-470
-474
-469
-457
-441
-423
-405
-391
-382
-378
-379
-384
-393
-402
-411
-417
-420
-418
-413
-405
-395
-385
-376
-370
-368
-370
-376
-386
-399
-415
-430
-445
-457
-466
-470
-469
-463
-452
-437
-421
-405
-392
-383
-380
-383
-391
-404
-419
-433
-445
-451
-452
-446
-436
-422
-409
-397
-391
-391
-398
-411
-429
-450
-470
-487
-499
-503
-501
-492
-478
-460
-442
-425
-411
-401
-397
-397
-400
-407
-416
-424
-431
-436
-439
-438
-434
-427
-419
-409
-400
-394
-390
-391
-397
-409
-425
-444
-464
-483
-498
-508
-510
-504
-489
-468
-441
-412
-384
-359
-341
-330
-328
-335
-349
-369
-391
-412
-430
-442
-446
-441
-428
-407
-383
-358
-336
-319
-310
-309
-317
-330
-346
-362
-373
-378
-376
-365
-349
-329
-311
-297
-291
-294
-307
-326
-348
-369
-385
-391
-386
-368
-340
-305
-268
-232
-203
-183
-174
-176
-187
-204
-225
-246
-266
-284
-298
-308
-315
-318
-319
-317
-312
-305
-296
-286
-277
-271
-269
-271
-279
-292
-308
-325
-342
-354
-360
-358
-349
-332
-311
-287
-264
-245
-233
-229
-234
-248
-269
-293
-316
-334
-343
-342
-329
-304
-272
-236
-202
-173
-155
-150
-159
-180
-209
-242
-275
-302
-319
-325
-318
-299
-271
-238
-203
-170
-143
-123
-112
-110
-114
-124
-135
-145
-150
-149
-142
-128
-109
-88
-69
-55
-47
-48
-57
-73
-92
-113
-129
-139
-139
-128
-106
-75
-36
7
50
92
128
158
179
193
200
202
201
200
201
205
216
232
254
279
305
329
348
360
361
352
333
306
274
240
209
185
170
164
169
182
199
216
228
232
224
203
168
121
67
10
-46
-95
-134
-159
-171
-171
-163
-150
-137
-130
-132
-144
-169
-202
-242
-282
-319
-346
-362
-363
-350
-326
-295
-261
-231
-208
-198
-201
-219
-248
-286
-328
-369
-404
-429
-442
-442
-428
-402
-367
-328
-290
-256
-232
-221
-223
-240
-269
-306
-347
-386
-420
-442
-452
-447
-430
-402
-369
-333
-299
-273
-255
-248
-252
-266
-289
-317
-348
-380
-410
-434
-453
-463
-464
-457
-443
-425
-403
-383
-365
-352
-345
-344
-348
-354
-361
-365
-366
-361
-352
-339
-325
-313
-306
-308
-320
-343
-377
-420
-466
-509
-544
-561
-555
-522
-460
-371
-258
-128
13
158
303
447
596
755
936
1148
1401
1700
2044
2427
2833
3241
3629
3970
4241
4423
4503
4477
4347
4125
3827
3474
3089
2695
2312
1957
1642
1374
1154
979
844
738
650
571
492
405
308
202
89
-25
-133
-228
-303
-355
-382
-385
-369
-340
-304
-269
-240
-221
-215
-222
-240
-265
-293
-321
-344
-361
-369
-367
-358
-343
-324
-303
-283
-267
-255
-249
-250
-258
-270
-284
-300
-313
-321
-323
-317
-304
-287
-267
-250
-238
-234
-241
-257
-281
-309
-337
-362
-377
-382
-375
-357
-331
-301
-272
-247
-229
-221
-223
-232
-247
-264
-279
-290
-293
-290
-278
-261
-240
-217
-195
-177
-164
-157
-157
-162
-171
-183
-195
-206
-214
-217
-214
-205
-190
-170
-146
-120
-95
-74
-58
-49
-49
-56
-69
-86
-105
-122
-135
-142
-143
-137
-126
-112
-97
-83
-72
-65
-64
-67
-76
-89
-104
-121
-138
-153
-164
-171
-170
-162
-146
-124
-97
-67
-38
-13
6
17
20
15
7
-4
-13
-18
-17
-9
5
23
42
60
74
83
87
86
81
75
70
68
70
77
89
106
126
147
168
185
197
202
200
190
174
154
133
116
105
105
116
140
175
218
265
311
352
383
402
409
403
387
366
344
324
311
307
314
333
361
398
440
483
524
557
581
594
596
587
570
550
530
516
511
516
532
559
592
630
667
699
725
744
754
757
755
752
750
752
759
773
794
820
850
883
915
943
965
977
979
971
952
927
897
868
843
827
822
829
847
874
904
934
958
972
974
962
940
909
874
840
811
792
783
786
798
817
838
857
870
872
863
842
809
767
720
672
627
587
554
531
515
505
498
491
481
465
443
413
376
333
286
237
190
146
108
79
59
48
47
54
67
80
92
96
92
75
46
6
-42
-95
-146
-191
-226
-247
-255
-249
-233
-211
-186
-162
-144
-134
-131
-136
-148
-163
-180
-194
-206
-211
-211
-205
-194
-180
-166
-152
-142
-138
-140
-148
-164
-184
-207
-230
-249
-263
-269
-267
-257
-241
-221
-199
-181
-167
-160
-161
-170
-185
-204
-224
-242
-256
-263
-263
-257
-244
-227
-208
-191
-178
-171
-170
-176
-189
-206
-224
-243
-257
-265
-266
-259
-245
-225
-202
-179
-160
-147
-143
-147
-160
-180
-203
-226
-246
-261
-268
-267
-258
-243
-224
-204
-185
-171
-162
-161
-167
-179
-196
-215
-234
-251
-263
-270
-270
-265
-257
-247
-238
-232
-230
-233
-242
-256
-272
-288
-302
-311
-315
-313
-302
-285
-262
-235
-205
-175
-149
-127
-114
-110
-119
-140
-172
-213
-257
-302
-340
-367
-380
-377
-358
-327
-288
-249
-214
-189
-178
-182
-199
-225
-254
-280
-298
-304
-296
-275
-244
-209
-174
-145
-125
-116
-119
-132
-150
-172
-193
-209
-219
-222
-219
-210
-199
-186
-173
-160
-148
-138
-127
-117
-108
-101
-96
-94
-95
-101
-109
-119
-130
-141
-149
-155
-159
-160
-160
-160
-163
-168
-176
-186
-197
-207
-213
-215
-211
-202
-187
-170
-152
-135
-123
-115
-114
-117
-124
-133
-143
-151
-158
-161
-162
-160
-157
-153
