-400
-415
-425
-429
-427
-420
-408
-392
-373
-353
-334
-318
-308
-304
-308
-321
-340
-364
-389
-413
-431
-439
-437
-423
-397
-363
-322
-278
-236
-200
-174
-160
-159
-172
-196
-230
-270
-313
-355
-391
-418
-434
-438
-431
-416
-395
-373
-354
-341
-335
-338
-348
-361
-374
-383
-386
-381
-368
-349
-327
-306
-288
-274
-266
-262
-259
-256
-253
-247
-241
-238
-240
-250
-270
-300
-336
-374
-407
-429
-435
-421
-390
-345
-293
-243
-203
-179
-174
-188
-216
-252
-287
-315
-331
-332
-322
-304
-284
-269
-265
-274
-294
-322
-350
-372
-381
-372
-345
-304
-255
-208
-170
-149
-148
-169
-207
-256
-310
-361
-401
-428
-440
-438
-425
-404
-379
-355
-333
-315
-301
-291
-285
-283
-285
-289
-294
-299
-302
-300
-293
-281
-265
-246
-228
-214
-206
-207
-217
-233
-253
-274
-291
-303
-308
-306
-298
-284
-268
-250
-234
-220
-209
-203
-202
-207
-220
-241
-268
-302
-338
-375
-409
-435
-450
-453
-443
-421
-390
-352
-311
-270
-232
-199
-170
-147
-129
-117
-112
-112
-120
-134
-155
-180
-208
-237
-264
-287
-304
-313
-316
-315
-311
-306
-302
-300
-302
-305
-307
-308
-305
-296
-280
-259
-234
-208
-183
-163
-151
-148
-154
-168
-189
-215
-242
-267
-288
-302
-307
-304
-294
-280
-264
-250
-240
-238
-243
-254
-270
-286
-299
-306
-303
-291
-271
-245
-216
-189
-166
-151
-143
-142
-145
-150
-156
-163
-169
-177
-187
-201
-218
-236
-255
-270
-278
-276
-266
-247
-221
-194
-169
-152
-143
-146
-158
-179
-203
-228
-249
-265
-273
-274
-268
-256
-239
-218
-196
-174
-154
-139
-128
-124
-129
-141
-159
-182
-206
-228
-244
-251
-248
-234
-213
-188
-162
-142
-128
-125
-131
-146
-166
-185
-200
-208
-205
-193
-173
-150
-126
-107
-94
-89
-89
-92
-94
-90
-77
-55
-26
7
36
55
60
48
20
-20
-64
-104
-131
-141
-128
-95
-47
9
62
102
121
116
89
43
-14
-71
-119
-151
-162
-149
-115
-66
-9
49
103
145
174
190
194
188
176
160
143
127
113
100
89
78
67
56
46
34
21
6
-10
-29
-52
-79
-107
-137
-165
-190
-209
-221
-223
-218
-205
-187
-167
-149
-134
-124
-119
-120
-126
-135
-147
-161
-178
-196
-216
-238
-262
-286
-306
-320
-323
-314
-291
-256
-214
-171
-133
-107
-96
-104
-128
-163
-202
-239
-266
-277
-270
-248
-215
-179
-148
-130
-131
-151
-189
-238
-292
-342
-380
-401
-402
-386
-355
-317
-279
-249
-231
-227
-234
-250
-267
-278
-280
-269
-244
-210
-173
-139
-117
-110
-120
-147
-185
-227
-265
-294
-306
-302
-283
-253
-220
-190
-169
-162
-168
-186
-213
-241
-268
-288
-298
-298
-290
-274
-255
-236
-217
-202
-192
-186
-184
-185
-190
-198
-209
-222
-238
-256
-275
-295
-315
-334
-350
-362
-369
-369
-364
-353
-337
-318
-299
-281
-266
-255
-247
-239
-226
-201
-157
-87
15
150
320
522
748
991
1240
1489
1728
1952
2159
2346
2515
2664
2792
2896
2973
3016
3019
2977
2885
2741
2547
2309
2038
1745
1445
1152
878
634
425
251
111
1
-86
-154
-208
-252
-288
-313
-326
-326
-312
-283
-242
-192
-139
-87
-41
-3
25
45
58
66
71
73
69
59
38
4
-41
-95
-154
-210
-254
-281
-284
-263
-218
-158
-90
-24
30
67
84
80
60
31
-3
-34
-60
-78
-88
-92
-91
-87
-81
-73
-60
-44
-24
-4
15
27
30
21
-2
-35
-73
-110
-140
-157
-157
-142
-113
-77
-40
-11
5
7
-4
-26
-50
-71
-82
-80
-64
-37
-4
28
53
65
61
42
12
-27
-67
-104
-132
-148
-152
-146
-130
-110
-89
-68
-51
-38
-28
-19
-11
0
14
32
53
75
95
110
117
113
98
72
38
2
-31
-55
-66
-60
-39
-4
41
88
133
168
193
204
204
197
185
175
168
166
170
178
187
194
197
194
186
174
159
144
130
118
107
99
93
88
85
85
88
96
110
131
157
185
214
240
261
274
279
277
270
261
255
255
264
281
305
336
369
402
430
451
465
471
472
469
465
464
466
472
483
497
511
524
535
543
549
553
558
566
580
599
627
661
700
741
782
821
854
880
900
913
920
924
927
929
933
940
949
962
976
991
1007
1024
1040
1056
1071
1085
1097
1106
1112
1114
1114
1110
1106
1102
1101
1105
1115
1132
1155
1183
1214
1246
1278
1308
1334
1353
1367
1374
1373
1366
1353
1336
1315
1294
1275
1261
1255
1256
1266
1282
1301
1320
1332
1333
1319
1287
1239
1176
1104
1030
962
908
873
860
869
897
938
982
1020
1043
1045
1022
975
906
824
737
653
580
524
485
462
453
450
448
440
423
393
351
299
241
181
123
71
28
-6
-31
-47
-56
-59
-59
-57
-55
-55
-57
-64
-75
-90
-110
-134
-161
-191
-221
-252
-280
-307
-330
-350
-365
-374
-379
-379
-375
-368
-357
-345
-332
-319
-307
-300
-297
-300
-307
-320
-338
-359
-381
-402
-420
-434
-443
-448
-447
-444
-437
-428
-419
-408
-396
-383
-369
-355
-343
-334
-330
-333
-341
-355
-373
-392
-411
-428
-442
-453
-460
-466
-470
-474
-477
-479
-479
-475
-466
-452
-436
-418
-402
-388
-378
-373
-373
-376
-380
-385
-389
-394
-400
-409
-421
-437
-456
-476
-494
-506
-510
-506
-491
-469
-442
-416
-394
-378
-370
-370
-377
-386
-396
-402
-404
-401
-396
-389
-383
-380
-381
-386
-394
-405
-415
-420
-420
-412
-396
-373
-347
-322
-301
-290
-291
-305
-330
-364
-400
-433
-456
-466
-460
-442
-416
-388
-366
-357
-362
-381
-411
-445
-474
-489
-485
-460
-418
-366
-312
-268
-241
-236
-253
-287
-329
-369
-399
-411
-404
-382
-349
-316
-291
-281
-289
-315
-354
-397
-437
-466
-480
-476
-456
-423
-385
-348
-318
-298
-289
-292
-304
-324
-349
-374
-399
-420
-435
-443
-442
-433
-416
-394
-371
-351
-337
-334
-343
-361
-386
-413
-435
-447
-446
-431
-403
-367
-331
-300
-280
-275
-285
-309
-342
-378
-410
-435
-449
-452
-444
-427
-406
-383
-362
-343
-328
-317
-309
-305
-305
-310
-317
-326
-335
-342
-346
-344
-336
-322
-305
-287
-273
-265
-264
-272
-286
-304
-323
-341
-356
-368
-380
-392
-408
-429
-455
-484
-511
-532
-541
-535
-514
-478
-433
-385
-342
-310
-291
-288
-298
-315
-335
-350
-358
-354
-341
-322
-300
-281
-270
-269
-279
-301
-330
-364
-399
-431
-459
-480
-496
-505
-508
-504
-495
-483
-469
-452
-433
-414
-397
-382
-368
-357
-348
-340
-335
-334
-336
-343
-355
-372
-392
-414
-436
-453
-463
-462
-450
-428
-397
-361
-323
-287
-256
-232
-219
-215
-221
-235
-257
-283
-312
-341
-370
-394
-412
-423
-426
-420
-406
-386
-362
-336
-313
-292
-277
-267
-263
-261
-262
-264
-266
-268
-272
-278
-288
-303
-323
-347
-374
-400
-423
-441
-452
-455
-451
-442
-431
-421
-413
-409
-407
-406
-405
-401
-392
-377
-356
-333
-311
-294
-284
-284
-296
-318
-346
-374
-397
-411
-411
-398
-373
-341
-308
-280
-265
-265
-281
-311
-348
-384
-412
-424
-417
-391
-350
-302
-258
-226
-213
-225
-261
-315
-379
-443
-496
-530
-541
-527
-492
-443
-387
-334
-290
-260
-243
-240
-246
-257
-271
-283
-295
-304
-314
-325
-337
-352
-367
-382
-394
-403
-408
-409
-406
-401
-392
-379
-363
-342
-317
-287
-256
-228
-209
-201
-209
-234
-274
-323
-373
-416
-445
-452
-436
-399
-347
-289
-235
-193
-170
-169
-189
-225
-269
-313
-350
-374
-382
-374
-352
-323
-292
-266
-248
-243
-253
-275
-306
-343
-379
-408
-426
-430
-419
-394
-359
-320
-282
-251
-232
-224
-228
-240
-255
-268
-275
-273
-263
-247
-231
-218
-214
-222
-243
-275
-312
-350
-382
-404
-412
-407
-391
-367
-341
-316
-295
-280
-269
-261
-254
-246
-236
-225
-214
-207
-204
-209
-220
-236
-256
-276
-293
-304
-309
-308
-303
-297
-293
-293
-298
-307
-318
-328
-334
-334
-328
-316
-301
-285
-273
-266
-266
-272
-283
-294
-303
-307
-305
-298
-286
-272
-257
-242
-229
-217
-206
-194
-182
-168
-157
-150
-150
-161
-184
-217
-257
-300
-340
-370
-387
-388
-373
-347
-314
-280
-249
-226
-211
-204
-202
-202
-200
-195
-188
-181
-176
-177
-184
-199
-219
-240
-259
-271
-272
-263
-242
-215
-187
-161
-143
-135
-136
-143
-154
-162
-164
-156
-140
-116
-88
-62
-41
-30
-30
-39
-57
-79
-100
-117
-125
-124
-112
-91
-62
-30
1
30
52
65
70
64
50
27
0
-29
-55
-75
-85
-83
-67
-40
-3
39
83
121
151
168
171
159
135
101
61
19
-22
-58
-90
-116
-136
-149
-156
-156
-150
-139
-122
-103
-85
-70
-63
-67
-85
-116
-159
-209
-264
-316
-362
-395
-414
-416
-403
-379
-347
-312
-277
-246
-222
-208
-204
-209
-222
-239
-258
-276
-290
-299
-300
-294
-282
-266
-250
-236
-229
-232
-244
-266
-294
-325
-354
-376
-389
-390
-379
-357
-330
-299
-272
-250
-237
-233
-236
-246
-260
-274
-287
-297
-306
-313
-319
-323
-326
-326
-322
-310
-291
-264
-231
-196
-164
-139
-127
-130
-147
-176
-213
-250
-281
-301
-306
-296
-274
-246
-219
-198
-190
-195
-214
-241
-272
-298
-315
-317
-304
-279
-245
-211
-181
-163
-158
-168
-191
-221
-252
-280
-298
-307
-305
-295
-282
-270
-265
-271
-288
-318
-356
-399
-441
-478
-503
-513
-507
-481
-437
-376
-299
-208
-104
9
132
264
402
546
694
845
999
1155
1314
1477
1644
1818
1999
2185
2373
2555
2721
2860
2957
2998
2971
2871
2695
2450
2149
1810
1457
1114
801
537
332
189
103
63
53
57
60
49
17
-37
-107
-188
-270
-343
-401
-437
-449
-438
-408
-364
-312
-256
-201
-152
-109
-76
-51
-35
-27
-24
-25
-28
-31
-30
-26
-18
-6
8
23
35
41
40
29
9
-20
-53
-88
-120
-147
-164
-170
-166
-152
-132
-109
-87
-68
-52
-40
-30
-19
-7
9
28
49
69
84
92
90
77
55
28
0
-25
-42
-49
-46
-34
-17
3
21
36
46
51
53
51
49
46
43
38
30
19
3
-17
-40
-63
-84
-99
-107
-108
-102
-89
-71
-50
-28
-8
11
26
37
44
47
46
42
36
30
27
28
35
48
66
86
106
122
130
128
117
97
73
47
26
13
11
19
37
63
90
117
138
153
161
163
164
166
173
185
204
227
250
270
281
280
265
236
196
151
106
68
43
36
49
80
126
183
242
300
348
385
407
414
407
388
360
327
291
255
222
196
181
179
193
224
272
335
407
482
552
611
651
669
663
638
597
550
504
470
451
453
475
513
562
614
664
705
732
746
747
738
724
709
698
695
703
721
751
789
834
883
929
971
1004
1025
1032
1026
1010
987
964
946
940
949
975
1016
1068
1125
1178
1221
1248
1256
1246
1221
1187
1152
1124
1109
1109
1127
1158
1200
1246
1290
1328
1356
1372
1377
1373
1364
1351
1336
1322
1309
1295
1282
1268
1250
1231
1210
1189
1168
1148
1131
1118
1109
1104
1101
1100
1097
1092
1081
1062
1035
997
949
892
828
760
692
629
573
529
500
487
489
504
529
559
589
613
626
625
605
568
513
444
365
283
203
132
74
33
9
2
8
22
37
48
50
41
20
-11
-48
-86
-119
-144
-157
-158
-149
-134
-116
-103
-97
-100
-116
-141
-173
-209
-245
-277
-302
-320
-331
-337
-339
-341
-343
-349
-357
-367
-378
-388
-396
-400
-400
-397
-391
-383
-376
-370
-365
-362
-359
-355
-348
-337
-322
-304
-283
-264
-248
-240
-240
-252
-275
-306
-344
-383
-420
-451
-473
-485
-488
-484
-475
-465
-457
-452
-450
-451
-452
-450
-442
-427
-405
-379
-350
-323
-300
-285
-278
-281
-290
-305
-322
-340
-357
-376
-396
-418
-444
-471
-499
-522
-535
-535
-519
-487
-441
-387
-332
-286
-254
-241
-249
-276
-315
-358
-398
-427
-439
-433
-411
-375
-333
-291
-255
-230
-218
-222
-238
-263
-294
-328
-359
-387
-407
-419
-422
-418
-408
-393
-376
-359
-346
-339
-338
-343
-354
-369
-382
-392
-396
-392
-379
-359
-334
-306
-281
-261
-248
-243
-248
-261
-279
-298
-317
-332
-342
-346
-342
-333
-318
-299
-280
-262
-249
-242
-243
-251
-267
-289
-315
-341
-366
-386
-399
-404
-402
-394
-381
-366
-350
-336
-323
-312
-303
-296
-291
-287
-283
-280
-278
-277
-278
-280
-284
-290
-299
-310
-323
-337
-353
-369
-382
-389
-390
-381
-364
-338
-308
-278
-252
-238
-237
-252
-284
-326
-373
-418
-453
-470
-467
-442
-399
-344
-283
-226
-180
-152
-145
-158
-188
-229
-276
-322
-362
-392
-411
-420
-419
-412
-402
-390
-377
-365
-352
-338
-323
-305
-287
-270
-256
-248
-248
-257
-275
-300
-329
-357
-381
-396
-399
-389
-368
-339
-307
-278
-258
-250
-256
-276
-307
-343
-379
-407
-422
-422
-406
-376
-338
-300
-268
-247
-242
-253
-278
-312
-350
-385
-412
-427
-430
-423
-410
-393
-378
-365
-357
-352
-348
-343
-335
-322
-306
-289
-274
-264
-261
-267
-280
-298
-318
-336
-347
-352
-349
-340
-330
-319
-312
-309
-310
-313
-315
-316
-314
-308
-301
-295
-295
-302
-318
-344
-376
-412
-445
-471
-484
-482
-465
-435
-394
-348
-302
-260
-227
-205
-194
-195
-206
-225
-249
-277
-305
-331
-353
-370
-382
-387
-385
-378
-365
-350
-333
-318
-306
-299
-297
-304
-319
-340
-367
-397
-427
-454
-472
-481
-477
-461
-433
-397
-358
-321
-290
-269
-260
-261
-272
-288
-304
-316
-320
-315
-302
-284
-264
-248
-239
-239
-249
-266
-288
-309
-325
-333
-332
-324
-310
-297
-288
-287
-294
-308
-327
-345
-357
-360
-351
-333
-308
-282
-260
-248
-248
-261
-285
-314
-344
-369
-386
-392
-389
-378
-363
-346
-331
-318
-306
-293
-279
-262
-243
-222
-204
-190
-184
-188
-200
-218
-238
-256
-271
-279
-280
-277
-273
-270
-272
-278
-289
-300
-308
-309
-299
-280
-253
-222
-193
-170
-159
-162
-179
-209
-246
-285
-322
-353
-374
-384
-382
-368
-345
-314
-276
-234
-192
-155
-125
-109
-111
-132
-172
-228
-294
-362
-422
-468
-491
-490
-464
-419
-362
-300
-243
-200
-174
-167
-178
-204
-238
-275
-309
-335
-350
-352
-343
-322
-294
-262
-230
-200
-176
-161
-157
-162
-178
-201
-230
-262
-292
-315
-330
-333
-326
-312
-292
-270
-252
-239
-234
-236
-245
-258
-269
-275
-273
-262
-242
-214
-183
-153
-127
-108
-99
-99
-107
-121
-140
-160
-180
-200
-220
-239
-256
-273
-286
-296
-299
-296
-284
-266
-242
-216
-190
-168
-152
-143
-141
-145
-152
-161
-169
-175
-178
-178
-178
-179
-183
-191
-201
-212
-222
-227
-226
-216
-197
-171
-140
-108
-80
-59
-45
-41
-45
-54
-66
-79
-92
-102
-111
-117
-124
-130
-136
-142
-145
-144
-139
-127
-113
-96
-80
-66
-57
-53
-52
-52
-52
-49
-43
-34
-25
-18
-16
-21
-33
-50
-67
-80
-84
-75
-50
-11
38
91
143
187
219
237
241
233
216
194
170
145
121
96
72
46
18
-10
-38
-64
-87
-107
-125
-143
-160
-178
-198
-218
-238
-254
-264
-264
-255
-236
-210
-181
-155
-134
-124
-125
-138
-160
-188
-218
-244
-264
-276
-277
-269
-254
-233
-210
-185
-161
-138
-118
-100
-85
-77
-75
-82
-99
-126
-162
-203
-247
-287
-319
-337
-341
-329
-303
-268
-230
-196
-172
-161
-166
-185
-214
-248
-283
-312
-332
-341
-339
-328
-312
-296
-284
-278
-280
-289
-304
-322
-338
-349
-352
-344
-323
-291
-250
-203
-154
-107
-68
-42
-32
-40
-65
-105
-157
-213
-266
-311
-341
-353
-344
-316
-272
-218
-162
-111
-71
-49
-44
-58
-86
-122
-160
-192
-212
-218
-209
-188
-157
-125
-98
-83
-82
-99
-132
-177
-232
-288
-342
-387
-421
-439
-441
-427
-399
-358
-305
-240
-163
-75
26
141
271
416
578
756
948
1153
1365
1580
1793
2000
2194
2374
2535
2675
2793
2886
2951
2981
2970
2913
2804
2640
2421
2154
1852
1530
1208
904
635
412
243
126
56
20
6
1
-5
-20
-45
-80
-120
-160
-194
-219
-232
-233
-222
-203
-177
-146
-112
-77
-43
-10
20
43
58
64
60
48
32
13
-5
-19
-26
-27
-21
-11
1
10
17
19
17
16
16
20
29
42
57
71
80
81
71
50
22
-10
-41
-65
-79
-79
-67
-46
-21
2
18
23
16
-2
-26
-50
-69
-78
-72
-53
-22
14
49
76
89
87
69
38
-2
-45
-82
-109
-122
-121
-106
-80
-46
-8
32
70
105
138
168
193
214
229
236
234
221
197
162
122
78
38
5
-16
-24
-17
3
31
63
93
115
125
123
108
83
53
24
1
-10
-8
10
42
83
129
175
214
243
258
259
247
222
189
151
113
79
53
38
36
50
79
120
169
222
273
314
340
346
333
303
260
212
166
131
111
111
128
159
199
241
279
307
325
333
333
331
330
335
348
369
398
430
463
491
511
523
525
521
512
503
496
496
504
520
544
573
604
633
657
673
679
676
666
651
636
625
620
625
640
666
701
742
787
833
878
919
953
980
998
1006
1005
996
980
961
940
920
907
904
913
936
971
1018
1072
1129
1183
1230
1266
1290
1303
1306
1303
1298
1297
1302
1313
1331
1350
1368
1379
1381
1372
1352
1325
1297
1272
1256
1253
1263
1284
1310
1337
1359
1373
1376
1370
1358
1346
1337
1334
1339
1351
1363
1373
1373
1358
1328
1282
1223
1156
1089
1027
976
940
919
912
916
928
940
948
945
928
898
853
794
726
653
580
513
458
417
391
379
378
382
386
384
371
345
307
258
204
150
103
66
43
35
40
52
68
79
81
70
43
3
-49
-106
-163
-214
-253
-278
-287
-282
-268
-247
-225
-208
-200
-202
-216
-239
-268
-299
-328
-351
-366
-372
-370
-361
-348
-334
-322
-314
-312
-317
-327
-342
-359
-376
-393
-406
-415
-417
-413
-401
-383
-362
-338
-314
-293
-279
-274
-280
-296
-321
-352
-384
-413
-434
-446
-447
-436
-414
-385
-353
-320
-292
-270
-259
-257
-267
-285
-311
-340
-370
-397
-419
-433
-440
-439
-432
-422
-411
-399
-389
-380
-371
-360
-345
-326
-303
-279
-258
-245
-244
-259
-290
-332
-381
-429
-468
-492
-495
-477
-442
-399
-356
-322
-306
-311
-338
-382
-434
-484
-524
-546
-548
-528
-490
-442
-391
-347
-314
-297
-296
-309
-332
-358
-385
-406
-420
-424
-421
-410
-395
-376
-355
-334
-314
-296
-281
-270
-262
-260
-262
-270
-282
-297
-314
-332
-348
-360
-367
-369
-366
-357
-345
-331
-317
-305
-297
-293
-294
-300
-310
-321
-334
-344
-350
-353
-351
-347
-340
-335
-331
-330
-332
-337
-342
-346
-347
-346
-341
-334
-326
-320
-318
-321
-328
-339
-351
-363
-370
-373
-370
-360
-345
-326
-305
-285
-267
-253
-246
-247
-257
-276
-306
-343
-387
-433
-478
-515
-540
-549
-539
-511
-468
-415
-359
-307
-266
-241
-235
-246
-273
-308
-347
-383
-412
-428
-431
-422
-403
-378
-353
-331
-316
-311
-318
-336
-364
-396
-431
-462
-486
-498
-496
-481
-455
-419
-380
-341
-308
-283
-270
-267
-275
-290
-309
-331
-352
-372
-390
-404
-414
-420
-422
-418
-408
-393
-373
-351
-329
-311
-301
-302
-313
-334
-363
-395
-426
-450
-464
-466
-456
-436
-408
-378
-349
-326
-311
-307
-312
-326
-346
-370
-395
-419
-438
-452
-458
-456
-447
-432
-414
-396
-380
-368
-364
-368
-379
-395
-412
-426
-433
-431
-420
-401
-376
-351
-330
-317
-314
-324
-344
-371
-401
-429
-448
-457
-454
-439
-415
-385
-354
-326
-304
-291
-287
-291
-300
-311
-322
-329
-332
-331
-327
-323
-322
-326
-335
-350
-370
-391
-411
-426
-432
-428
-413
-388
-358
-325
-294
-269
-254
-252
-262
-283
-313
-349
-388
-427
-461
-490
-512
-526
-531
-528
-517
-498
-472
-440
-403
-364
-325
-290
-261
-243
-237
-244
-264
-295
-333
-373
-411
-441
-460
-465
-457
-436
-407
-372
-338
-309
-288
-277
-276
-284
-299
-319
-339
-359
-376
-390
-400
-408
-415
-422
-428
-434
-439
-441
-440
-433
-421
-402
-376
-347
-316
-285
-259
-241
-232
-235
-249
-273
-304
-338
-371
-397
-414
-418
-409
-387
-356
-320
-282
-249
-225
-212
-211
-221
-239
-261
-282
-299
-308
-309
-303
-294
-285
-280
-279
-287
-303
-325
-350
-372
-390
-398
-397
-387
-371
-351
-333
-320
-314
-315
-323
-336
-348
-358
-360
-356
-343
-326
-307
-290
-279
-277
-283
-296
-314
-333
-349
-359
-362
-357
-348
-336
-325
-317
-314
-317
-323
-332
-339
-344
-346
-344
-339
-331
-323
-314
-306
-297
-286
-274
-260
-247
-235
-227
-224
-228
-240
-258
-281
-303
-324
-341
-351
-355
-352
-345
-333
-321
-309
-298
-289
-282
-279
-281
-287
-299
-317
-340
-365
-389
-410
-423
-426
-417
-396
-365
-327
-288
-251
-221
-201
-193
-197
-211
-233
-258
-283
-304
-318
-324
-321
-312
-297
-281
-267
-259
-256
-260
-270
-284
-297
-307
-310
-303
-286
-260
-229
-197
-169
-149
-142
-149
-170
-203
-243
-288
-330
-365
-389
-400
-395
-376
-346
-308
-268
-229
-197
-176
-167
-172
-188
-212
-240
-267
-288
-299
-298
-284
-261
-230
-197
-166
-141
-125
-118
-119
-127
-139
-150
-159
-163
-162
-155
-145
-132
-119
-110
-106
-106
-111
-120
-132
-146
-160
-173
-184
-191
-194
-193
-186
-175
-158
-136
-109
-80
-51
-24
-2
12
18
13
-1
-22
-48
-75
-96
-110
-112
-102
-78
-43
-1
43
83
115
135
141
132
113
85
55
27
4
-11
-18
-19
-18
-17
-22
-34
-54
-82
-113
-144
-173
-195
-208
-211
-206
-194
-180
-167
-158
-155
-158
-166
-179
-195
-212
-226
-237
-244
-250
-256
-263
-272
-283
-297
-310
-320
-324
-319
-304
-278
-243
-204
-165
-133
-114
-110
-125
-158
-205
-260
-316
-364
-399
-416
-415
-395
-364
-328
-292
-264
-249
-248
-260
-281
-305
-327
-343
-350
-347
-339
-328
-318
-315
-319
-333
-353
-376
-396
-410
-414
-408
-392
-368
-340
-310
-281
-256
-235
-218
-204
-195
-191
-192
-201
-218
-242
-272
-304
-334
-357
-370
-370
-359
-339
-314
-288
-268
-256
-252
-256
-264
-271
-274
-269
-255
-233
-207
-180
-158
-145
-144
-155
-178
-212
-253
-299
-347
-393
-435
-471
-498
-515
-522
-518
-505
-483
-453
-419
-382
-342
-299
-251
-193
-123
-33
80
219
385
578
791
1020
1256
1490
1716
1928
2124
2303
2465
2612
2742
2856
2948
3012
3039
3021
2948
2816
2625
2380
2092
1776
1451
1135
845
593
387
227
110
29
-28
-70
-106
-141
-178
-215
-251
-282
-304
-313
-310
-294
-268
-236
-201
-165
-129
-96
-65
-37
-10
15
38
57
70
75
73
63
46
24
-2
-27
-52
-74
-92
-106
-117
-126
-135
-142
-149
-154
-156
-153
-144
-129
-108
-84
-60
-38
-24
-18
-24
-39
-62
-88
-115
-136
-149
-151
-142
-124
-100
-76
-54
-40
-34
-38
-49
-63
-75
-82
-81
-69
-50
-27
-5
9
12
2
-20
-50
-82
-109
-122
-118
-94
-55
-5
47
92
121
130
118
87
43
-6
-50
-82
-99
-98
-81
-54
-22
9
32
44
45
35
18
-4
-25
-41
-50
-52
-45
-31
-12
12
38
64
88
110
128
141
149
151
148
138
125
108
90
70
50
32
17
5
-2
-4
-1
5
15
27
39
50
58
62
62
61
60
62
69
82
103
131
162
193
220
238
246
242
227
203
177
151
133
125
129
146
174
210
251
292
331
363
390
409
423
432
439
444
450
458
469
481
495
511
527
544
560
576
590
601
609
611
607
596
579
558
534
512
497
494
505
534
579
639
709
783
853
910
950
969
968
949
920
887
860
845
846
866
901
947
996
1040
1073
1089
1088
1072
1048
1020
998
989
996
1023
1066
1122
1184
1244
1295
1331
1348
1347
1330
1302
1270
1239
1215
1202
1201
1212
1234
1262
1295
1326
1354
1376
1391
1398
1398
1391
1377
1353
1322
1283
1235
1180
1121
1062
1005
954
912
880
858
845
836
830
822
810
793
770
741
707
669
628
584
537
488
437
385
336
293
257
231
217
215
221
232
241
243
234
209
169
116
56
-6
-62
-106
-134
-143
-137
-118
-94
-71
-55
-51
-62
-88
-125
-171
-219
-266
-306
-336
-355
-364
-364
-360
-354
-349
-347
-348
-352
-356
-359
-361
-359
-354
-345
-335
-326
-319
-316
-318
-327
-341
-360
-384
-410
-438
-468
-498
-526
-550
-568
-576
-574
-561
-538
-506
-471
-436
-409
-393
-392
-405
-430
-464
-502
-538
-566
-584
-590
-586
-574
-557
-538
-521
-509
-500
-496
-493
-493
-492
-491
-490
-489
-490
-492
-496
-501
-509
-517
-526
-534
-542
-548
-552
-552
-549
-542
-528
-507
-480
-448
-413
-379
-349
-327
-316
-316
-329
-352
-381
-413
-444
-470
-489
-499
-503
-503
-500
-496
-493
-492
-490
-488
-482
-472
-455
-434
-410
-388
-370
-362
-365
-379
-404
-435
-468
-498
-518
-526
-520
-503
-477
-448
-422
-404
-397
-403
-421
-447
-478
-508
-533
-551
-560
-561
-555
-545
-536
-528
-523
-520
-518
-515
-510
-503
-491
-478
-465
-454
-447
-445
-447
-453
-461
-468
-472
-473
-471
-468
-465
-465
-468
-476
-487
-497
-504
-506
-500
-488
-469
-448
-430
-418
-417
-425
-443
-467
-491
-510
-518
-514
-497
-468
-432
-396
-365
-345
-339
-349
-374
-410
-454
-502
-547
-585
-612
-626
-627
-616
-592
-561
-526
-491
-460
-437
-422
-417
-420
-430
-444
-457
-467
-472
-471
-467
-462
-459
-461
-470
-488
-512
-541
-571
-596
-612
-617
-609
-589
-559
-524
-489
-459
-439
-431
-436
-451
-475
-501
-526
-544
-554
-554
-544
-529
-510
-491
-477
-470
-471
-481
-497
-514
-530
-541
-544
-537
-520
-495
-467
-438
-417
-407
-409
-425
-451
-483
-514
-538
-550
-545
-525
-493
-454
-416
-385
-367
-365
-379
-404
-435
-465
-488
-502
-506
-502
-496
-493
-498
-514
-541
-576
-615
-650
-675
-685
-679
-656
-621
-579
-536
-498
-469
-450
-443
-444
-451
-462
-474
-484
-492
-498
-502
-504
-506
-507
-507
-506
-504
-503
-502
-503
-505
-508
-513
-518
-521
-521
-517
-509
-497
-484
-472
-464
-461
-464
-474
-490
-508
-527
-542
-552
-555
-552
-543
-530
-517
-505
-497
-495
-497
-503
-510
-517
-521
-519
-512
-498
-479
-457
-434
-414
-399
-393
-396
-411
-436
-469
-507
-546
-581
-607
-622
-623
-610
-587
-557
-525
-498
-479
-471
-475
-488
-505
-522
-533
-534
-522
-499
-468
-434
-401
-377
-364
-365
-381
-409
-448
-491
-536
-576
-609
-631
-641
-639
-625
-603
-576
-548
-524
-506
-498
-498
-506
-519
-532
-541
-543
-535
-519
-497
-475
-456
-444
-443
-450
-465
-481
-495
-501
-499
-489
-472
-455
-442
-437
-442
-456
-475
-494
-506
-507
-494
-469
-435
-399
-368
-351
-352
-372
-410
-460
-515
-566
-607
-634
-644
-638
-621
-597
-571
-546
-526
-510
-499
-488
-478
-464
-447
-427
-405
-384
-367
-357
-357
-369
-392
-424
-463
-506
-547
-581
-605
-615
-612
-596
-570
-536
-501
-469
-445
-431
-428
-438
-457
-483
-510
-535
-554
-565
-568
-564
-555
-545
-537
-533
-534
-539
-545
-551
-554
-551
-543
-531
-517
-505
-497
-496
-504
-518
-538
-558
-575
-585
-584
-575
-558
-537
-517
-501
-492
-489
-490
-491
-488
-478
-458
-427
-390
-352
-317
-293
-284
-293
-317
-353
-395
-437
-472
-498
-512
-516
-512
-506
-502
-502
-508
-519
-533
-546
-555
-557
-552
-538
-519
-497
-475
-454
-438
-426
-418
-414
-413
-412
-411
-409
-407
-406
-405
-407
-410
-415
-422
-428
-433
-435
-434
-430
-422
-410
-397
-386
-375
-366
-359
-353
-348
-341
-332
-322
-312
-303
-296
-294
-299
-312
-330
-353
-376
-395
-406
-408
-401
-384
-362
-336
-312
-291
-274
-260
-247
-232
-212
-186
-155
-121
-89
-65
-52
-54
-70
-99
-135
-174
-208
-232
-244
-244
-232
-214
-195
-180
-174
-180
-197
-223
-256
-292
-328
-362
-391
-415
-436
-452
-466
-478
-489
-499
-507
-513
-517
-519
-518
-515
-510
-503
-494
-484
-474
-465
-457
-453
-453
-455
-461
-469
-477
-482
-482
-474
-459
-437
-411
-385
-364
-351
-352
-368
-399
-442
-493
-544
-590
-623
-638
-632
-607
-565
-512
-457
-407
-370
-353
-357
-383
-426
-480
-538
-590
-629
-649
-647
-624
-583
-530
-473
-419
-376
-350
-343
-356
-385
-423
-465
-504
-535
-552
-554
-541
-518
-487
-455
-425
-403
-391
-390
-400
-419
-445
-474
-502
-526
-544
-554
-556
-550
-539
-524
-508
-494
-482
-473
-467
-462
-459
-455
-450
-445
-441
-440
-445
-456
-476
-500
-527
-551
-570
-577
-573
-557
-532
-503
-478
-463
-461
-476
-505
-541
-577
-604
-610
-587
-531
-439
-314
-162
9
192
377
557
729
893
1051
1207
1367
1534
1711
1900
2095
2288
2468
2620
2731
2786
2776
2694
2543
2328
2062
1762
1446
1133
839
575
348
160
10
-108
-200
-273
-332
-379
-416
-443
-461
-470
-470
-464
-454
-444
-438
-437
-443
-453
-464
-472
-473
-462
-439
-404
-358
-307
-256
-210
-174
-149
-138
-137
-146
-159
-175
-191
-207
-222
-239
-258
-279
-303
-327
-349
-366
-374
-371
-360
-341
-318
-297
-282
-275
-277
-289
-305
-322
-335
-340
-335
-320
-296
-267
-237
-209
-188
-174
-170
-175
-188
-209
-234
-263
-295
-324
-349
-367
-375
-371
-356
-329
-295
-257
-219
-186
-162
-146
-138
-138
-141
-146
-149
-152
-154
-158
-167
-183
-205
-231
-259
-283
-300
-304
-293
-269
-232
-189
-146
-107
-77
-60
-55
-61
-74
-90
-105
-116
-120
-118
-111
-103
-96
-92
-92
-96
-102
-107
-108
-102
-87
-62
-29
10
49
84
108
117
110
86
48
2
-47
-92
-126
-146
-151
-140
-118
-90
-60
-34
-15
-6
-6
-14
-28
-42
-53
-60
-60
-54
-41
-24
-4
17
36
53
66
75
82
87
93
100
110
125
145
169
195
222
245
262
270
268
257
239
219
201
190
192
208
239
284
336
390
439
478
501
508
501
484
464
447
441
450
475
515
564
616
664
701
722
726
717
698
677
660
653
662
687
727
775
828
878
917
943
953
950
936
917
899
887
887
899
923
955
991
1026
1054
1070
1073
1064
1045
1020
996
977
968
971
988
1017
1054
1095
1133
1163
1184
1191
1186
1170
1148
1121
1097
1079
1070
1072
1086
1109
1137
1166
1190
1202
1199
1177
1135
1074
997
911
824
742
672
621
589
577
582
598
617
633
639
631
606
565
512
451
388
329
276
233
200
177
162
153
148
143
138
130
118
100
77
46
10
-32
-75
-118
-157
-188
-209
-218
-217
-209
-198
-190
-190
-203
-231
-273
-326
-383
-439
-485
-517
-530
-523
-501
-467
-428
-391
-363
-348
-347
-359
-381
-406
-428
-443
-448
-441
-425
-406
-388
-379
-381
-396
-424
-459
-495
-526
-545
-550
-539
-517
-489
-462
-444
-438
-448
-471
-502
-533
-558
-570
-566
-547
-518
-485
-457
-439
-435
-446
-468
-494
-518
-533
-536
-526
-506
-482
-461
-449
-449
-462
-485
-511
-534
-547
-547
-533
-509
-480
-454
-439
-440
-458
-491
-531
-571
-603
-620
-618
-596
-560
-516
-471
-432
-406
-395
-397
-408
-425
-440
-451
-454
-449
-440
-429
-421
-419
-426
-441
-464
-490
-515
-536
-549
-554
-548
-534
-515
-493
-471
-453
-441
-438
-444
-458
-479
-505
-532
-555
-570
-573
-562
-536
-497
-449
-399
-352
-315
-294
-290
-305
-336
-377
-422
-466
-502
-527
-538
-536
-521
-496
-466
-432
-396
-361
-328
-300
-278
-264
-260
-265
-280
-302
-327
-352
-371
-382
-383
-376
-361
-345
-331
-325
-330
-349
-380
-418
-460
-498
-526
-538
-533
-508
-467
-415
-359
-306
-264
-238
-232
-247
-281
-328
-381
-433
-476
-503
-511
-502
-477
-441
-401
-363
-332
-310
-299
-297
-301
-308
-315
-321
-327
-333
-341
-354
-371
-392
-414
-433
-445
-448
-440
-421
-395
-367
-340
-320
-312
-315
-329
-348
-369
-385
-393
-390
-376
-355
-332
-314
-305
-310
-331
-364
-407
-452
-493
-523
-537
-533
-512
-478
-436
-390
-346
-310
-283
-268
-263
-267
-277
-290
-305
-319
-331
-340
-345
-346
-344
-340
-334
-329
-327
-330
-338
-352
-369
-388
-403
-411
-412
-405
-392
-375
-358
-346
-339
-338
-342
-348
-350
-346
-333
-314
-290
-269
-257
-260
-282
-321
-374
-430
-480
-512
-518
-493
-441
-367
-284
-205
-143
-110
-109
-139
-193
-258
-321
-371
-398
-401
-382
-349
-314
-286
-274
-281
-305
-339
-374
-398
-402
-383
-342
-286
-225
-172
-138
-131
-152
-197
-260
-327
-387
-430
-451
-450
-430
-397
-360
-324
-295
-276
-265
-260
-257
-255
-254
-253
-255
-263
-279
-301
-329
-356
-378
-388
-382
-361
-327
-286
-245
-213
-196
-197
-218
-252
-294
-334
-364
-377
-370
-342
-299
-247
-195
-151
-121
-109
-116
-139
-175
-216
-256
-288
-309
-317
-311
-295
-271
-244
-220
-202
-195
-196
-207
-225
-244
-261
-271
-272
-262
-244
-218
-191
-166
-147
-139
-142
-155
-178
-205
-232
-254
-269
-273
-264
-245
-217
-183
-149
-120
-99
-91
-97
-119
-153
-197
-245
-292
-331
-358
-368
-361
-338
-303
-260
-215
-174
-142
-123
-117
-122
-137
-158
-179
-198
-212
-218
-219
-215
-208
-202
-197
-196
-196
-199
-201
-201
-196
-186
-171
-152
-134
-118
-108
-107
-115
-130
-152
-174
-194
-207
-211
-205
-189
-165
-139
-113
-93
-81
-78
-83
-95
-110
-124
-137
-146
-153
-157
-162
-167
-174
-183
-192
-200
-205
-206
-201
-191
-177
-163
-149
-137
-127
-118
-109
-99
-85
-69
-52
-39
-33
-38
-57
-90
-134
-182
-227
-259
-271
-259
-222
-164
-95
-24
35
73
84
66
23
-37
-104
-166
-214
-240
-244
-225
-191
-146
-102
-63
-35
-20
-18
-27
-45
-69
-94
-119
-141
-160
-173
-179
-177
-166
-146
-117
-82
-44
-8
22
43
52
48
30
1
-36
-76
-113
-143
-164
-174
-171
-158
-136
-109
-81
-57
-38
-27
-25
-31
-43
-58
-71
-79
-77
-65
-41
-7
31
71
105
130
142
138
120
91
56
22
-6
-23
-25
-11
15
50
90
129
162
184
192
186
168
141
110
79
54
38
35
46
70
104
143
182
216
240
251
249
236
214
190
169
155
151
158
174
196
220
241
258
267
271
269
266
264
265
269
273
277
276
267
248
219
181
136
89
43
3
-29
-53
-67
-74
-75
-73
-70
-66
-62
-57
-50
-41
-28
-14
1
16
28
36
38
35
28
17
5
-6
-15
-21
-24
-23
-21
-18
-15
-11
-7
-2
5
15
28
42
55
65
69
65
52
31
3
-28
-57
-80
-94
-99
-93
-80
-64
-49
-40
-38
-44
-57
-75
-92
-105
-107
-100
-82
-58
-31
-8
5
7
-5
-30
-62
-95
-122
-137
-135
-114
-76
-25
31
86
130
159
170
161
136
98
54
9
-32
-65
-88
-102
-107
-105
-100
-94
-88
-84
-81
-80
-79
-78
-75
-69
-59
-45
-27
-8
11
28
39
43
39
26
6
-18
-43
-67
-86
-99
-107
-111
-113
-113
-114
-114
-113
-106
-89
-57
-9
58
145
249
367
496
634
779
931
1091
1262
1444
1640
1849
2069
2294
2520
2737
2937
3111
3249
3341
3382
3364
3287
3148
2952
2706
2420
2107
1782
1461
1158
886
652
464
320
221
159
129
121
127
139
151
158
155
142
118
85
46
7
-27
-51
-63
-60
-43
-14
25
68
110
150
184
213
238
262
286
311
337
360
377
384
378
356
320
273
219
165
117
81
61
58
71
97
133
172
210
243
268
283
287
282
267
245
218
189
161
140
126
123
131
149
174
203
232
255
270
277
274
265
253
242
237
238
245
257
270
282
288
287
278
265
251
240
235
238
250
269
292
314
333
344
345
337
321
300
276
255
239
228
225
229
238
252
269
286
301
313
322
328
331
332
333
335
339
345
352
358
363
363
359
350
337
322
307
296
291
294
305
323
347
372
397
418
434
444
447
445
438
428
417
406
397
392
391
395
403
413
426
439
449
458
462
465
467
470
477
489
507
531
557
583
606
623
633
636
636
634
633
637
644
654
666
676
680
677
668
652
636
623
620
628
650
686
732
781
828
867
894
906
906
896
883
871
867
873
892
923
963
1008
1052
1091
1119
1136
1140
1133
1118
1100
1081
1068
1062
1065
1077
1097
1124
1154
1184
1211
1232
1249
1262
1273
1282
1292
1306
1323
1344
1367
1392
1416
1439
1460
1478
1495
1511
1527
1544
1561
1579
1595
1609
1621
1630
1637
1643
1650
1659
1671
1685
1700
1715
1726
1733
1733
1728
1719
1708
1699
1692
1690
1691
1693
1691
1681
1659
1622
1570
1506
1434
1361
1292
1233
1189
1162
1149
1148
1153
1159
1159
1150
1129
1096
1050
996
939
885
837
800
777
766
768
779
793
805
809
801
778
740
690
632
572
517
472
440
420
412
411
411
405
389
358
314
260
200
141
90
53
32
27
37
57
83
109
129
141
145
140
128
112
92
70
46
20
-9
-42
-78
-113
-145
-169
-183
-183
-168
-140
-102
-58
-15
21
47
57
53
35
7
-26
-61
-92
-116
-128
-128
-115
-91
-57
-18
21
56
82
95
93
74
40
-5
-57
-109
-155
-191
-214
-223
-221
-208
-190
-170
-148
-128
-108
-90
-72
-53
-35
-20
-10
-7
-11
-24
-43
-67
-90
-109
-122
-125
-121
-112
-102
-93
-88
-90
-98
-108
-118
-124
-121
-108
-87
-60
-31
-6
12
19
13
-4
-29
-58
-86
-110
-125
-130
-126
-113
-94
-72
-49
-27
-8
7
17
22
22
16
5
-11
-31
-53
-75
-94
-106
-109
-103
-86
-62
-35
-7
16
31
34
24
4
-24
-55
-83
-105
-115
-110
-91
-60
-20
22
59
87
102
100
81
48
7
-38
-77
-105
-116
-108
-82
-42
5
53
92
115
116
96
58
6
-51
-103
-143
-164
-163
-142
-105
-59
-13
25
49
55
44
19
-14
-48
-77
-94
-99
-92
-74
-52
-29
-12
-2
-3
-11
-25
-39
-52
-59
-59
-53
-41
-28
-17
-11
-11
-19
-32
-48
-62
-70
-70
-60
-41
-13
16
43
63
71
66
49
21
-11
-45
-73
-92
-100
-95
-81
-59
-35
-12
5
14
15
8
-3
-17
-29
-36
-37
-30
-18
-3
11
20
22
13
-5
-31
-60
-88
-110
-120
-118
-101
-73
-39
-5
22
36
34
15
-18
-61
-105
-142
-167
-173
-161
-131
-92
-49
-10
16
25
17
-8
-42
-78
-109
-128
-131
-117
-90
-55
-18
13
33
39
31
13
-10
-34
-51
-59
-57
-47
-34
-22
-16
-19
-32
-54
-81
-107
-129
-141
-141
-129
-108
-81
-54
-30
-15
-11
-18
-36
-61
-91
-121
-145
-161
-166
-156
-134
-99
-54
-3
48
93
126
142
139
117
79
27
-29
-81
-121
-145
-146
-125
-84
-29
32
90
138
168
177
163
130
83
30
-21
-61
-85
-91
-77
-48
-9
33
70
93
100
88
57
12
-41
-95
-142
-175
-191
-188
-165
-127
-78
-25
27
70
101
118
119
107
84
55
24
-2
-22
-33
-34
-27
-14
1
16
28
34
33
25
12
-4
-23
-43
-61
-78
-92
-103
-109
-109
-102
-88
-65
-35
0
36
69
94
109
110
98
73
41
8
-22
-44
-54
-52
-41
-26
-11
-2
-2
-12
-31
-54
-77
-92
-97
-89
-69
-38
-2
35
68
94
113
124
129
130
128
123
116
105
88
66
39
10
-17
-37
-47
-43
-27
1
37
74
106
129
138
132
114
85
50
17
-12
-32
-41
-40
-31
-16
0
14
23
26
23
17
9
3
1
4
13
26
40
49
51
43
24
-2
-33
-61
-80
-87
-76
-50
-12
32
74
108
128
132
124
106
86
69
62
65
78
95
108
113
104
78
37
-12
-62
-103
-127
-129
-108
-67
-14
43
94
131
148
145
124
91
54
21
-3
-12
-8
9
33
59
81
94
96
89
74
56
40
31
32
45
71
106
147
189
226
254
270
270
257
229
191
147
102
60
26
0
-15
-21
-17
-7
5
18
30
41
50
58
65
73
83
93
104
114
122
126
127
125
120
115
109
106
105
106
109
113
118
123
128
133
139
146
155
165
176
188
200
210
220
230
238
245
252
257
259
256
247
231
209
183
154
127
108
99
105
124
155
193
233
270
299
315
318
308
289
266
245
230
225
232
250
276
307
335
357
369
369
357
336
310
284
265
258
268
294
337
392
453
512
560
593
603
589
552
496
428
355
285
223
173
139
118
109
109
114
120
127
133
139
143
149
154
160
165
170
173
175
177
177
177
177
175
171
164
153
136
115
90
64
40
20
10
10
20
39
66
96
126
153
173
186
191
188
179
163
144
122
99
77
57
39
26
18
13
12
14
17
19
20
19
17
14
12
12
16
24
38
54
73
91
108
121
132
140
145
150
155
158
160
158
153
141
124
102
78
55
37
26
23
27
38
53
69
82
90
94
94
93
93
96
104
117
133
150
162
167
164
152
133
108
86
68
59
61
75
98
125
151
170
180
177
160
131
94
53
11
-26
-56
-78
-89
-91
-83
-65
-37
3
56
125
214
325
459
615
793
987
1194
1408
1624
1839
2048
2249
2443
2630
2810
2980
3137
3275
3386
3461
3489
3459
3368
3213
2997
2731
2427
2103
1776
1465
1183
943
748
600
495
424
376
343
316
285
247
201
148
91
36
-10
-42
-54
-45
-14
37
104
181
260
334
397
443
471
479
469
445
413
378
344
317
299
291
291
299
310
321
330
336
336
332
325
318
312
310
314
323
335
348
360
368
369
362
349
330
308
287
268
255
247
245
247
254
264
276
290
306
323
341
360
378
393
403
407
404
394
379
361
342
325
312
305
304
311
324
340
357
374
389
401
406
407
401
390
374
355
335
318
305
299
301
312
330
354
380
407
429
446
453
452
443
427
407
386
368
356
352
357
372
396
425
457
487
512
527
530
522
504
478
450
424
405
396
399
412
434
461
487
508
521
526
523
517
510
506
509
521
542
570
601
630
655
673
685
689
688
685
681
679
677
676
674
669
659
643
622
599
578
561
553
557
574
602
637
678
718
753
780
798
805
805
799
790
783
780
783
792
806
824
843
860
875
889
903
919
940
967
1002
1045
1091
1137
1178
1206
1219
1215
1196
1164
1128
1093
1069
1059
1069
1096
1139
1192
1247
1297
1338
1366
1379
1380
1371
1356
1340
1327
1319
1318
1325
1340
1363
1393
1427
1464
1502
1537
1567
1592
1610
1621
1627
1629
1632
1635
1643
1653
1667
1683
1699
1711
1720
1723
1721
1715
1706
1696
1685
1675
1667
1661
1658
1657
1660
1668
1681
1698
1718
1736
1750
1754
1745
1719
1676
1619
1550
1478
1408
1347
1299
1268
1252
1248
1249
1251
1248
1235
1211
1175
1131
1081
1030
980
933
890
852
816
780
744
706
666
626
588
553
525
505
492
487
486
487
486
479
464
438
401
355
304
252
204
165
137
121
117
121
129
137
142
139
129
113
94
77
65
63
71
87
110
135
157
172
177
171
154
129
101
72
47
30
20
19
26
38
51
64
72
76
73
64
49
30
9
-10
-25
-35
-39
-36
-28
-15
-2
11
20
24
22
15
5
-7
-19
-27
-29
-26
-18
-6
7
19
26
27
18
1
-25
-55
-86
-114
-133
-141
-136
-118
-89
-54
-19
13
36
49
51
45
36
27
24
27
39
59
81
102
118
125
122
111
94
75
59
49
46
48
53
55
49
32
3
-38
-86
-134
-177
-206
-216
-206
-176
-131
-76
-18
34
77
105
119
120
110
95
76
57
42
32
26
23
24
27
31
35
38
41
41
40
36
29
20
11
1
-7
-12
-15
-17
-16
-12
-7
0
7
17
30
46
64
83
101
116
126
128
124
113
98
81
66
56
50
47
45
40
28
7
-22
-59
-99
-138
-168
-184
-181
-158
-118
-63
-1
60
114
154
176
177
159
127
84
38
-5
-41
-65
-75
-72
-57
-34
-5
24
53
77
96
111
121
128
132
134
133
130
122
111
94
72
47
19
-7
-30
-48
-59
-64
-62
-57
-49
-42
-36
-34
-35
-38
-43
-47
-48
-45
-36
-22
-4
16
32
42
43
31
9
-22
-56
-87
-109
-116
-103
-70
-20
41
103
157
193
204
188
147
87
17
-51
-106
-142
-154
-143
-114
-75
-36
-4
15
19
10
-8
-29
-46
-55
-53
-43
-28
-13
-2
-1
-9
-25
-46
-65
-77
-78
-65
-40
-7
26
53
69
68
51
21
-17
-55
-86
-103
-105
-92
-66
-34
-1
25
42
46
40
25
5
-15
-32
-46
-55
-61
-66
-71
-78
-86
-93
-97
-98
-94
-86
-74
-61
-50
-43
-41
-43
-48
-53
-56
-53
-43
-29
-14
0
6
3
-13
-40
-74
-111
-144
-167
-176
-167
-144
-109
-68
-27
6
28
36
32
19
0
-19
-34
-42
-41
-33
-19
-2
14
27
37
43
45
46
46
48
50
53
56
56
51
41
26
6
-16
-39
-59
-75
-84
-87
-82
-71
-55
-36
-15
4
20
33
41
44
43
37
30
23
18
16
17
21
27
31
31
24
9
-16
-48
-85
-121
-153
-176
-186
-181
-164
-136
-102
-67
-36
-12
3
11
11
6
-1
-9
-15
-20
-24
-29
-36
-46
-58
-73
-89
-104
-115
-122
-121
-112
-94
-67
-33
6
45
81
108
123
121
100
61
6
-58
-125
-183
-226
-244
-235
-199
-140
-66
12
84
138
168
171
149
107
54
-1
-48
-82
-97
-95
-78
-51
-21
6
24
33
31
22
7
-10
-23
-30
-32
-26
-17
-6
5
14
19
19
14
7
0
-3
-2
7
23
47
76
107
136
159
171
168
150
115
68
12
-47
-103
-150
-183
-199
-198
-179
-147
-106
-60
-13
29
64
91
108
116
115
107
93
74
55
35
18
4
-4
-7
-6
-4
-2
-2
-5
-13
-22
-32
-40
-44
-43
-38
-30
-21
-15
-13
-17
-25
-34
-41
-41
-29
-4
33
78
127
171
205
223
221
200
164
117
66
19
-20
-46
-57
-54
-38
-15
13
42
68
90
107
117
121
121
116
111
108
108
115
128
148
174
202
230
255
275
287
292
291
285
277
269
263
258
256
253
250
246
241
238
237
241
250
265
286
308
330
348
360
363
360
351
341
331
324
321
319
316
307
290
261
219
167
109
50
-3
-45
-72
-84
-81
-68
-49
-30
-15
-5
0
0
0
1
5
14
26
39
49
52
47
32
7
-22
-54
-81
-101
-109
-105
-90
-68
-43
-21
-7
-3
-12
-31
-58
-87
-114
-134
-144
-144
-134
-117
-98
-81
-68
-61
-60
-63
-68
-72
-72
-69
-64
-59
-57
-59
-66
-79
-95
-111
-123
-127
-122
-107
-84
-56
-28
-2
17
27
30
27
20
13
8
6
8
13
18
20
18
10
-5
-27
-53
-81
-108
-130
-145
-151
-148
-135
-115
-90
-61
-33
-6
18
36
50
59
63
62
58
49
36
18
-4
-30
-56
-82
-105
-124
-137
-144
-147
-146
-146
-148
-155
-166
-179
-190
-194
-186
-162
-120
-60
18
109
210
316
425
533
642
754
874
1006
1156
1325
1515
1726
1953
2192
2432
2663
2873
3049
3178
3250
3255
3190
3055
2855
2600
2303
1981
1651
1332
1036
776
557
380
245
144
73
23
-12
-38
-57
-74
-88
-99
-108
-112
-111
-105
-94
-76
-52
-25
5
37
69
98
123
144
159
169
173
175
174
172
170
168
165
161
155
146
135
123
111
101
95
95
99
108
121
134
146
153
155
150
141
129
117
106
99
96
97
100
101
99
91
77
58
37
20
10
15
35
73
123
182
240
289
320
329
312
272
214
148
83
29
-4
-13
4
43
96
155
210
252
277
280
264
233
194
154
119
95
85
89
107
136
172
209
244
274
294
303
300
285
260
228
193
160
133
117
115
126
148
180
216
250
277
294
299
291
274
251
227
206
190
183
183
191
204
220
237
256
274
291
306
319
329
335
338
336
332
325
317
310
306
306
311
322
337
353
368
380
385
383
371
351
325
297
273
257
255
272
307
361
430
505
580
645
692
717
717
695
655
607
559
519
493
484
489
505
526
547
563
572
575
575
577
585
603
630
666
706
746
781
809
827
838
845
853
867
889
919
957
996
1031
1057
1069
1065
1049
1025
998
978
968
972
992
1024
1065
1107
1146
1176
1196
1207
1210
1209
1208
1210
1217
1229
1245
1261
1274
1285
1292
1297
1302
1313
1331
1357
1393
1433
1475
1513
1540
1552
1548
1528
1496
1458
1420
1389
1370
1366
1375
1394
1416
1436
1446
1445
1428
1398
1357
1310
1264
1225
1196
1179
1174
1177
1184
1190
1190
1181
1160
1130
1091
1048
1004
964
931
907
894
887
884
879
869
847
810
758
691
613
529
447
373
313
270
247
241
249
263
278
288
289
278
256
227
194
163
137
118
107
103
103
103
100
92
76
52
21
-15
-56
-97
-137
-174
-205
-228
-244
-250
-246
-234
-215
-191
-165
-139
-117
-99
-89
-86
-90
-100
-115
-132
-151
-169
-187
-202
-215
-225
-234
-242
-250
-261
-274
-291
-311
-331
-350
-363
-368
-363
-347
-321
-290
-259
-233
-220
-223
-243
-278
-322
-368
-408
-433
-439
-424
-390
-344
-293
-248
-216
-201
-207
-230
-265
-304
-338
-363
-372
-365
-346
-318
-289
-265
-249
-244
-249
-261
-274
-284
-286
-278
-260
-235
-207
-182
-166
-163
-174
-200
-236
-276
-314
-343
-360
-361
-347
-321
-288
-254
-225
-206
-200
-209
-231
-261
-294
-325
-347
-357
-353
-336
-307
-269
-228
-189
-157
-137
-129
-136
-157
-189
-230
-274
-317
-353
-379
-390
-385
-363
-327
-281
-230
-180
-137
-107
-94
-99
-122
-157
-199
-242
-278
-301
-310
-303
-282
-252
-218
-186
-163
-152
-155
-171
-197
-228
-259
-285
-301
-306
-300
-283
-259
-233
-209
-189
-175
-168
-166
-168
-170
-170
-167
-161
-154
-148
-145
-150
-163
-185
-215
-251
-288
-322
-349
-365
-369
-361
-343
-319
-291
-265
-242
-227
-220
-221
-228
-238
-248
-257
-262
-262
-260
-256
-253
-254
-262
-276
-296
-320
-342
-358
-363
-355
-335
-304
-268
-231
-199
-179
-174
-185
-208
-240
-274
-302
-319
-322
-312
-290
-261
-233
-212
-203
-208
-226
-256
-292
-328
-359
-379
-387
-384
-371
-351
-328
-307
-289
-277
-270
-269
-272
-279
-288
-300
-313
-329
-346
-363
-377
-386
-387
-379
-363
-339
-312
-284
-261
-245
-240
-246
-263
-288
-319
-351
-381
-407
-427
-441
-447
-445
-435
-416
-389
-353
-313
-271
-230
-197
-175
-166
-173
-195
-228
-266
-304
-336
-358
-368
-366
-356
-341
-327
-316
-313
-316
-324
-335
-344
-347
-343
-333
-316
-296
-277
-263
-257
-261
-273
-293
-317
-341
-361
-374
-377
-372
-359
-341
-322
-306
-297
-297
-307
-327
-355
-387
-419
-447
-467
-477
-474
-459
-435
-403
-368
-335
-306
-286
-275
-275
-284
-299
-316
-333
-345
-351
-351
-345
-337
-330
-326
-328
-336
-349
-363
-375
-380
-376
-362
-339
-311
-283
-262
-252
-257
-276
-307
-344
-378
-403
-415
-410
-390
-360
-326
-295
-276
-270
-280
-302
-330
-359
-380
-389
-384
-367
-341
-311
-284
-265
-258
-263
-278
-300
-326
-352
-375
-396
-413
-430
-446
-462
-478
-491
-500
-502
-495
-480
-457
-431
-406
-384
-369
-361
-360
-362
-362
-358
-347
-329
-307
-285
-270
-267
-280
-310
-356
-412
-471
-523
-559
-572
-560
-522
-462
-388
-309
-234
-173
-130
-111
-115
-139
-180
-230
-282
-330
-366
-388
-393
-380
-353
-314
-269
-224
-185
-156
-142
-145
-163
-196
-237
-283
-329
-367
-396
-412
-414
-404
-383
-354
-321
-288
-260
-238
-225
-223
-233
-254
-284
-320
-358
-394
-424
-445
-454
-450
-435
-411
-381
-348
-316
-288
-266
-251
-242
-238
-238
-239
-239
-238
-236
-231
-224
-216
-209
-203
-198
-197
-198
-203
-211
-222
-236
-253
-271
-288
-302
-313
-319
-319
-313
-302
-288
-274
-263
-258
-260
-269
-284
-302
-319
-331
-333
-322
-299
-265
-225
-186
-153
-132
-127
-140
-168
-205
-245
-279
-300
-304
-289
-258
-216
-171
-131
-104
-94
-103
-129
-166
-208
-247
-276
-292
-293
-278
-251
-216
-176
-138
-102
-73
-50
-36
-29
-31
-41
-58
-80
-104
-127
-145
-152
-147
-129
-98
-58
-15
26
58
75
75
58
27
-11
-49
-82
-103
-108
-97
-71
-38
-1
32
57
71
74
66
50
30
10
-6
-15
-15
-6
12
39
74
113
154
194
228
255
270
271
259
234
200
162
126
99
84
84
98
123
154
185
211
225
227
214
190
159
124
90
60
34
11
-11
-32
-55
-78
-102
-122
-136
-140
-134
-116
-88
-56
-22
7
27
35
30
12
-15
-46
-78
-104
-122
-129
-127
-116
-99
-79
-60
-45
-35
-31
-33
-39
-48
-57
-63
-66
-66
-61
-55
-49
-43
-40
-44
-55
-73
-98
-128
-161
-191
-217
-234
-239
-231
-212
-185
-155
-126
-105
-96
-103
-125
-160
-203
-246
-283
-308
-314
-302
-272
-230
-180
-129
-85
-49
-26
-14
-11
-14
-22
-32
-45
-60
-79
-102
-130
-162
-193
-219
-236
-238
-223
-193
-149
-98
-47
-4
23
32
21
-5
-42
-82
-116
-139
-146
-136
-113
-85
-58
-40
-37
-50
-80
-121
-166
-207
-237
-248
-241
-216
-180
-140
-105
-81
-75
-88
-117
-155
-195
-228
-245
-240
-206
-142
-48
77
227
400
591
796
1009
1226
1441
1649
1849
2037
2216
2386
2548
2703
2849
2982
3094
3174
3209
3185
3094
2932
2700
2408
2072
1714
1356
1020
724
479
291
158
73
25
1
-8
-12
-18
-29
-45
-66
-90
-113
-135
-152
-163
-163
-153
-132
-98
-54
-3
52
104
150
184
206
212
206
191
170
148
129
115
108
105
107
111
117
121
124
125
123
119
111
99
82
60
34
6
-19
-39
-49
-49
-35
-10
23
58
90
114
126
125
112
92
71
53
45
49
65
91
122
154
179
194
196
185
164
136
107
79
59
48
46
54
69
90
112
133
149
158
161
156
146
131
114
98
87
81
84
94
112
135
162
189
214
234
248
254
252
242
227
207
185
162
141
123
111
104
103
109
121
140
163
188
211
231
245
250
244
229
205
178
151
130
121
127
148
185
232
283
332
369
389
387
365
325
275
222
177
147
137
149
181
229
285
342
391
427
447
450
439
418
393
368
348
335
329
330
337
349
363
378
395
413
433
456
482
511
541
571
596
615
624
623
612
592
568
543
522
509
509
523
548
583
624
667
706
738
763
779
789
794
799
806
817
833
854
878
904
929
951
969
983
994
1001
1007
1014
1023
1036
1052
1072
1092
1113
1131
1146
1156
1162
1164
1165
1166
1168
1174
1185
1200
1218
1237
1256
1273
1288
1300
1309
1317
1325
1335
1347
1363
1383
1408
1436
1468
1502
1534
1563
1585
1599
1601
1590
1567
1531
1486
1436
1386
1341
1305
1281
1270
1272
1283
1300
1317
1330
1335
1330
1314
1287
1252
1209
1163
1115
1068
1021
977
936
901
872
849
834
824
819
814
805
789
763
725
675
613
544
472
401
337
282
237
203
178
160
145
130
112
92
68
40
13
-13
-35
-51
-60
-62
-58
-50
-43
-38
-41
-53
-78
-115
-163
-217
-273
-326
-370
-402
-418
-417
-400
-370
-331
-287
-244
-205
-174
-154
-146
-148
-162
-186
-219
-258
-299
-340
-378
-409
-432
-444
-444
-434
-413
-383
-347
-307
-265
-227
-193
-170
-158
-162
-181
-214
-260
-312
-365
-411
-443
-457
-451
-427
-389
-346
-305
-275
-260
-263
-284
-317
-355
-391
-418
-430
-427
-411
-385
-355
-326
-302
-287
-280
-280
-284
-290
-295
-297
-297
-296
-294
-294
-296
-299
-302
-304
-302
-295
-282
-265
-247
-233
-227
-231
-249
-281
-322
-366
-409
-443
-463
-466
-452
-427
-394
-364
-343
-335
-342
-362
-389
-417
-437
-444
-434
-409
-373
-335
-304
-288
-290
-313
-351
-398
-444
-481
-500
-499
-480
-447
-408
-371
-344
-331
-330
-339
-353
-365
-368
-360
-339
-308
-274
-245
-227
-226
-244
-280
-331
-388
-444
-490
-520
-533
-527
-508
-480
-450
-424
-407
-403
-412
-431
-458
-488
-516
-538
-553
-557
-551
-535
-508
-474
-434
-390
-345
-306
-275
-258
-257
-274
-308
-356
-412
-468
-517
-553
-572
-573
-557
-530
-498
-467
-442
-427
-423
-428
-440
-456
-470
-480
-484
-481
-473
-460
-442
-422
-402
-385
-374
-372
-382
-409
-450
-505
-567
-629
-682
-718
-732
-721
-687
-637
-579
-524
-483
-461
-462
-481
-514
-553
-588
-613
-625
-622
-609
-589
-569
-553
-543
-538
-536
-533
-527
-516
-504
-491
-484
-485
-498
-522
-555
-590
-622
-643
-648
-635
-606
-565
-521
-478
-445
-425
-419
-427
-446
-472
-500
-528
-555
-580
-604
-628
-652
-674
-692
-702
-700
-684
-654
-610
-557
-502
-453
-415
-394
-392
-409
-441
-483
-528
-567
-596
-611
-611
-597
-573
-545
-518
-496
-483
-481
-487
-498
-511
-521
-525
-519
-505
-486
-464
-444
-428
-422
-425
-436
-456
-479
-504
-524
-538
-544
-542
-533
-519
-500
-480
-460
-442
-427
-417
-412
-413
-420
-430
-443
-457
-470
-479
-483
-483
-480
-478
-477
-482
-491
-505
-523
-540
-554
-560
-559
-550
-534
-517
-501
-491
-488
-491
-497
-502
-500
-489
-467
-434
-394
-353
-319
-296
-288
-298
-320
-352
-387
-420
-447
-464
-473
-477
-480
-485
-494
-509
-528
-548
-563
-570
-566
-548
-517
-476
-429
-380
-333
-292
-262
-241
-232
-232
-242
-260
-284
-314
-347
-380
-413
-441
-461
-471
-469
-455
-429
-393
-351
-309
-272
-245
-232
-236
-257
-293
-338
-386
-429
-461
-475
-470
-445
-403
-350
-295
-245
-209
-191
-191
-209
-239
-273
-304
-326
-333
-325
-304
-275
-244
-219
-206
-209
-228
-261
-303
-347
-387
-418
-437
-443
-438
-425
-407
-386
-367
-349
-332
-316
-299
-280
-261
-243
-228
-220
-220
-228
-242
-260
-278
-290
-293
-285
-267
-242
-215
-192
-180
-183
-203
-238
-283
-330
-372
-399
-407
-392
-354
-298
-232
-164
-102
-57
-32
-31
-55
-99
-158
-226
-294
-354
-401
-429
-435
-420
-386
-337
-282
-226
-178
-142
-123
-122
-137
-164
-197
-229
-256
-272
-277
-272
-260
-246
-233
-223
-219
-219
-224
-228
-232
-234
-234
-231
-228
-226
-223
-219
-212
-198
-174
-139
-95
-45
3
43
69
74
56
17
-38
-101
-164
-217
-255
-273
-271
-250
-216
-174
-129
-86
-49
-18
4
18
23
17
1
-25
-60
-100
-140
-174
-196
-202
-188
-155
-106
-47
15
70
113
141
152
148
135
117
100
89
85
89
98
109
120
129
134
136
137
137
137
139
139
135
125
105
75
35
-11
-60
-104
-140
-163
-172
-167
-154
-138
-124
-119
-126
-146
-177
-214
-253
-288
-312
-324
-321
-304
-276
-243
-206
-173
-144
-122
-108
-103
-105
-115
-132
-153
-179
-206
-233
-258
-278
-292
-299
-298
-291
-279
-265
-252
-241
-233
-230
-229
-229
-228
-225
-217
-207
-193
-178
-164
-153
-148
-150
-160
-178
-202
-230
-261
-293
-322
-346
-364
-374
-375
-368
-353
-331
-306
-280
-256
-237
-225
-220
-223
-232
-242
-252
-256
-252
-239
-217
-188
-155
-123
-96
-78
-73
-82
-106
-140
-181
-226
-268
-303
-328
-340
-338
-324
-299
-268
-235
-204
-181
-168
-166
-176
-194
-218
-242
-261
-273
-274
-267
-252
-235
-221
-217
-226
-249
-284
-326
-367
-399
-415
-408
-374
-316
-236
-140
-32
81
198
319
446
586
744
924
1129
1357
1605
1863
2122
2371
2597
2793
2950
3062
3127
3142
3109
3028
2901
2731
2524
2286
2028
1757
1486
1224
981
764
576
419
290
185
98
25
-37
-93
-141
-181
-211
-231
-239
-238
-229
-215
-199
-184
-169
-154
-136
-113
-83
-44
3
54
103
142
166
171
153
115
62
3
-54
-100
-127
-134
-122
-95
-61
-27
-2
11
11
0
-15
-30
-38
-36
-21
3
32
59
81
93
92
81
63
43
26
15
12
16
24
35
43
48
47
41
33
24
16
10
8
8
9
10
10
10
11
12
15
19
27
36
46
56
65
72
77
81
84
87
92
98
106
115
124
134
143
152
159
164
168
170
171
169
165
158
152
145
139
135
133
132
132
130
127
121
113
102
90
77
67
59
55
55
59
67
79
96
117
141
168
197
224
247
263
270
267
254
232
204
174
145
123
109
107
118
140
173
215
264
317
370
420
463
494
509
506
483
442
388
325
262
206
165
144
147
173
218
275
336
393
438
468
480
477
462
441
420
404
397
401
417
441
472
507
544
582
619
655
689
720
746
766
780
784
781
770
756
742
733
731
738
755
779
808
837
864
885
903
917
932
950
975
1009
1053
1102
1153
1201
1240
1269
1284
1289
1287
1283
1283
1291
1311
1341
1378
1418
1455
1482
1496
1494
1478
1451
1418
1387
1364
1354
1359
1379
1413
1456
1501
1543
1577
1598
1606
1602
1587
1567
1545
1525
1511
1503
1501
1505
1511
1518
1522
1522
1515
1503
1485
1460
1431
1399
1366
1333
1301
1272
1245
1220
1194
1167
1135
1096
1051
999
944
889
839
799
773
761
763
774
787
796
793
773
733
674
600
518
437
362
302
259
232
219
214
213
211
205
195
182
171
165
165
173
186
199
207
203
185
151
103
47
-9
-59
-94
-111
-109
-91
-64
-36
-15
-6
-13
-35
-67
-104
-138
-164
-178
-180
-173
-161
-150
-145
-146
-155
-166
-174
-173
-158
-129
-86
-35
16
57
80
78
50
-2
-71
-149
-224
-287
-328
-344
-334
-304
-259
-210
-164
-129
-109
-106
-119
-145
-180
-218
-252
-279
-294
-297
-287
-264
-232
-194
-156
-121
-94
-80
-80
-96
-127
-166
-210
-251
-283
-299
-298
-279
-246
-205
-165
-134
-116
-115
-129
-152
-179
-199
-205
-193
-165
-123
-77
-36
-9
-4
-22
-61
-112
-166
-209
-234
-234
-209
-165
-113
-65
-32
-23
-42
-87
-148
-214
-273
-311
-322
-304
-260
-200
-136
-79
-39
-24
-33
-61
-101
-140
-170
-182
-175
-149
-111
-70
-36
-18
-22
-46
-87
-137
-186
-223
-239
-230
-196
-142
-76
-11
43
77
86
68
28
-26
-84
-135
-170
-184
-175
-146
-102
-52
-5
31
50
50
32
-1
-41
-82
-119
-146
-159
-159
-145
-121
-91
-59
-30
-8
4
5
-6
-29
-61
-98
-136
-172
-202
-224
-236
-238
-234
-224
-212
-201
-193
-187
-185
-184
-182
-178
-169
-156
-137
-115
-90
-66
-47
-33
-27
-31
-45
-69
-101
-140
-182
-223
-258
-282
-293
-288
-267
-231
-187
-138
-93
-59
-40
-40
-58
-91
-131
-171
-202
-216
-209
-178
-127
-63
7
70
117
141
138
109
58
-9
-82
-151
-210
-254
-280
-289
-284
-269
-250
-230
-212
-196
-184
-173
-164
-155
-146
-138
-132
-127
-125
-125
-128
-131
-136
-140
-143
-146
-149
-154
-162
-173
-187
-202
-215
-224
-227
-221
-206
-185
-159
-133
-112
-100
-101
-116
-144
-183
-226
-268
-301
-320
-322
-306
-273
-229
-178
-130
-89
-64
-55
-65
-90
-128
-173
-219
-260
-292
-312
-318
-311
-292
-264
-229
-190
-150
-111
-77
-49
-29
-18
-17
-26
-43
-68
-99
-134
-170
-206
-239
-267
-289
-304
-311
-308
-295
-274
-245
-211
-175
-141
-112
-90
-80
-80
-91
-111
-139
-171
-203
-233
-258
-275
-283
-284
-277
-266
-251
-235
-221
-210
-202
-197
-194
-192
-188
-182
-172
-159
-143
-127
-113
-104
-103
-109
-125
-148
-175
-205
-234
-259
-279
-293
-301
-304
-303
-300
-295
-287
-276
-261
-241
-215
-185
-156
-130
-113
-110
-122
-150
-191
-239
-286
-325
-348
-351
-331
-292
-240
-185
-135
-98
-79
-79
-96
-122
-149
-168
-175
-166
-143
-110
-77
-51
-40
-50
-82
-131
-191
-251
-302
-336
-349
-339
-309
-265
-218
-176
-147
-135
-143
-168
-205
-247
-287
-316
-329
-325
-305
-273
-233
-194
-160
-137
-127
-131
-145
-163
-181
-195
-202
-201
-193
-181
-170
-162
-161
-165
-173
-179
-180
-170
-148
-117
-79
-42
-13
0
-7
-33
-75
-127
-179
-223
-250
-258
-247
-218
-180
-139
-103
-76
-61
-56
-59
-67
-74
-78
-78
-75
-70
-66
-64
-64
-66
-68
-66
-58
-43
-18
14
50
87
119
142
154
152
137
110
74
35
-1
-31
-49
-52
-41
-15
23
67
112
150
177
191
188
171
143
107
71
38
15
4
6
19
40
65
91
111
125
130
126
114
96
76
53
30
6
-19
-45
-74
-105
-139
-173
-207
-237
-261
-278
-285
-283
-275
-263
-249
-236
-227
-221
-219
-218
-218
-217
-215
-210
-205
-200
-196
-193
-191
-188
-181
-166
-143
-111
-73
-34
2
27
36
26
-5
-51
-108
-168
-224
-268
-296
-306
-298
-279
-253
-227
-205
-190
-181
-177
-176
-173
-167
-157
-144
-131
-121
-118
-124
-140
-164
-194
-225
-252
-271
-280
-276
-263
-241
-215
-188
-164
-146
-135
-130
-129
-132
-136
-140
-142
-142
-141
-140
-142
-148
-158
-173
-191
-210
-227
-238
-239
-230
-211
-183
-150
-118
-91
-75
-73
-85
-109
-141
-177
-211
-240
-260
-273
-280
-285
-289
-296
-304
-312
-316
-311
-292
-254
-197
-118
-19
97
228
370
523
686
858
1040
1231
1431
1638
1850
2062
2270
2471
2659
2829
2973
3085
3157
3180
3148
3056
2904
2693
2432
2136
1820
1501
1197
923
689
500
357
255
187
143
116
96
78
58
33
1
-35
-76
-119
-160
-194
-219
-231
-227
-206
-168
-117
-57
6
66
118
158
185
201
207
205
201
194
186
178
167
152
132
108
81
54
32
17
13
21
38
62
89
111
125
127
116
94
66
35
7
-14
-24
-23
-12
8
32
56
77
92
101
102
97
88
76
63
52
46
46
53
68
91
121
153
185
210
226
229
218
194
161
122
85
53
31
23
28
45
72
105
140
173
202
224
239
246
246
241
232
221
210
199
191
184
179
173
166
158
146
133
120
109
102
103
113
132
160
194
232
268
301
326
343
349
345
332
312
285
256
226
202
186
183
195
223
265
317
370
416
445
451
432
388
326
257
191
142
119
127
163
224
299
377
447
500
528
532
515
483
443
403
371
350
342
349
366
392
423
456
487
515
540
561
578
592
605
618
631
646
662
679
695
710
722
731
737
742
745
748
750
751
752
752
749
742
734
726
721
723
733
754
787
829
878
929
978
1022
1059
1088
1113
1135
1160
1190
1226
1268
1315
1363
1406
1440
1460
1464
1451
1424
1387
1345
1304
1271
1249
1242
1250
1272
1305
1343
1382
1416
1443
1460
1467
1468
1465
1465
1471
1487
1514
1551
1595
1640
1680
1712
1730
1732
1718
1691
1653
1609
1563
1520
1482
1451
1426
1407
1394
1385
1379
1372
1364
1353
1339
1319
1294
1265
1232
1198
1164
1133
1107
1086
1071
1058
1046
1030
1008
977
936
886
830
773
716
666
625
594
572
557
546
537
528
517
505
491
477
463
451
438
422
403
376
341
298
248
195
144
98
62
37
24
21
24
30
36
39
38
34
27
20
13
5
-3
-13
-26
-44
-66
-92
-117
-137
-148
-149
-137
-116
-87
-57
-33
-21
-24
-43
-76
-118
-162
-200
-227
-238
-232
-211
-181
-146
-113
-88
-72
-69
-76
-90
-106
-121
-132
-138
-139
-136
-131
-128
-127
-130
-136
-146
-157
-168
-176
-180
-180
-176
-167
-153
-136
-115
-90
-65
-39
-14
8
26
41
50
55
55
52
45
34
19
0
-23
-48
-76
-102
-123
-136
-138
-128
-108
-82
-55
-32
-21
-25
-47
-83
-130
-178
-220
-246
-251
-231
-188
-127
-57
12
71
112
129
122
94
49
-4
-57
-102
-133
-146
-141
-119
-85
-45
-4
32
57
69
65
48
20
-17
-57
-96
-132
-160
-178
-187
-187
-178
-161
-137
-108
-75
-38
-1
33
63
85
98
100
91
74
53
31
13
1
-4
-2
4
11
13
7
-8
-31
-61
-91
-117
-132
-133
-118
-90
-52
-10
30
61
80
85
77
57
30
0
-29
-53
-70
-81
-84
-83
-78
-70
-62
-54
-47
-43
-40
-40
-42
-46
-52
-59
-65
-71
-77
-81
-83
-84
-82
-77
-71
-62
-52
-41
-32
-25
-25
-32
-48
-72
-101
-133
-161
-182
-191
-187
-170
-143
-111
-81
-59
-50
-57
-78
-111
-148
-183
-207
-215
-203
-172
-126
-71
-17
27
53
59
42
8
-39
-88
-131
-161
-174
-169
-148
-116
-81
-51
-34
-32
-46
-73
-110
-148
-182
-205
-216
-212
-196
-172
-144
-117
-93
-76
-65
-59
-55
-52
-46
-36
-23
-8
6
15
18
12
-3
-27
-56
-88
-117
-140
-153
-156
-149
-134
-113
-92
-72
-57
-47
-40
-35
-29
-19
-4
16
39
60
74
78
67
41
2
-45
-94
-135
-164
-173
-161
-131
-87
-38
7
41
59
59
40
9
-29
-66
-94
-109
-107
-91
-64
-30
3
27
39
36
16
-17
-59
-104
-145
-176
-192
-193
-176
-145
-106
-62
-21
13
36
45
40
23
-3
-34
-66
-95
-119
-135
-143
-143
-136
-123
-105
-83
-61
-38
-17
-2
5
4
-6
-26
-53
-84
-116
-143
-161
-167
-158
-134
-98
-54
-6
38
74
96
103
93
68
31
-14
-60
-103
-137
-159
-168
-163
-146
-120
-89
-58
-31
-11
0
3
-2
-12
-25
-36
-44
-47
-46
-40
-33
-28
-25
-26
-30
-37
-44
-52
-57
-59
-58
-56
-55
-57
-64
-79
-100
-125
-153
-179
-198
-208
-205
-190
-164
-127
-87
-45
-7
22
42
49
44
28
3
-28
-60
-91
-117
-136
-145
-146
-138
-125
-111
-98
-89
-86
-88
-95
-103
-108
-108
-99
-81
-54
-22
12
43
66
79
81
72
55
32
7
-17
-38
-54
-63
-67
-66
-61
-52
-39
-25
-9
5
16
22
20
12
-4
-26
-51
-75
-96
-110
-116
-111
-97
-76
-48
-19
11
39
65
85
101
111
117
118
114
105
92
77
60
44
32
25
25
34
50
72
96
119
138
150
153
146
129
106
80
54
33
18
12
17
31
54
82
113
144
172
196
215
229
238
244
249
252
254
258
261
264
265
265
262
258
252
245
240
238
241
251
266
285
306
324
336
338
328
304
269
225
179
137
103
81
72
74
84
94
99
92
72
37
-8
-58
-106
-146
-169
-174
-160
-129
-89
-45
-6
23
38
36
20
-5
-36
-67
-93
-110
-119
-120
-114
-105
-96
-91
-90
-95
-103
-113
-120
-123
-119
-106
-83
-52
-16
21
54
78
90
87
67
32
-15
-70
-125
-175
-213
-235
-240
-227
-200
-164
-124
-87
-58
-40
-34
-39
-53
-71
-89
-102
-109
-107
-98
-82
-65
-47
-33
-25
-25
-33
-47
-66
-88
-110
-132
-150
-165
-175
-180
-180
-176
-168
-155
-138
-119
-98
-77
-60
-47
-39
-39
-46
-59
-75
-91
-103
-110
-109
-101
-88
-71
-57
-50
-53
-68
-96
-136
-181
-226
-264
-291
-302
-297
-276
-241
-195
-140
-78
-9
71
164
275
407
561
736
927
1131
1341
1551
1757
1955
2146
2327
2497
2654
2791
2902
2978
3007
2984
2904
2768
2584
2362
2115
1857
1603
1362
1141
938
755
587
431
288
159
49
-37
-95
-124
-126
-106
-75
-42
-16
-5
-10
-29
-54
-76
-87
-79
-50
-2
58
121
176
215
231
223
194
149
99
51
13
-11
-19
-12
8
34
62
88
107
119
120
113
98
76
52
27
5
-11
-19
-16
-2
22
54
92
130
164
189
202
201
184
153
111
62
13
-31
-62
-76
-72
-48
-9
41
93
138
170
185
179
154
115
69
24
-12
-32
-34
-18
13
52
94
132
161
179
186
184
177
167
157
150
144
141
138
135
130
123
115
109
107
110
120
136
157
180
203
222
235
241
240
234
224
213
203
197
194
196
201
208
216
223
229
236
241
247
253
259
265
270
273
272
269
262
253
243
235
230
230
236
248
265
284
304
322
335
345
349
349
345
339
331
324
318
313
309
308
310
316
325
338
355
374
395
416
436
452
463
469
470
468
466
465
469
478
492
509
527
543
555
561
561
557
551
548
550
561
582
613
652
695
738
776
806
825
833
833
827
820
814
815
825
844
872
907
946
985
1021
1049
1068
1076
1074
1062
1044
1022
999
982
971
971
980
1000
1029
1064
1104
1144
1182
1218
1250
1278
1303
1326
1346
1364
1379
1392
1400
1405
1404
1399
1392
1383
1375
1368
1363
1361
1362
1363
1365
1366
1367
1369
1373
1381
1393
1409
1429
1448
1462
1467
1459
1435
1394
1339
1274
1206
1143
1090
1051
1027
1015
1011
1009
1002
986
960
924
881
836
793
756
726
702
680
657
627
590
543
489
432
378
330
295
274
267
272
285
301
315
324
327
323
310
291
266
235
201
163
123
84
47
15
-7
-20
-22
-14
1
19
34
42
39
23
-6
-46
-95
-147
-198
-244
-281
-308
-323
-328
-324
-315
-303
-290
-279
-269
-263
-259
-257
-256
-254
-252
-248
-242
-236
-230
-224
-218
-214
-210
-207
-203
-198
-194
-190
-189
-193
-203
-221
-245
-275
-307
-335
-356
-367
-363
-346
-317
-280
-243
-211
-190
-185
-198
-229
-274
-328
-384
-435
-474
-496
-500
-485
-454
-412
-363
-314
-269
-234
-209
-196
-194
-199
-207
-216
-221
-220
-214
-203
-190
-179
-173
-175
-187
-207
-235
-266
-296
-320
-335
-337
-326
-302
-271
-235
-200
-171
-151
-143
-148
-163
-188
-218
-251
-281
-306
-324
-335
-338
-335
-329
-320
-311
-303
-297
-292
-287
-282
-276
-268
-259
-250
-243
-238
-238
-242
-250
-259
-268
-273
-272
-264
-250
-231
-211
-192
-180
-175
-179
-191
-208
-226
-240
-247
-245
-233
-213
-187
-160
-135
-115
-102
-98
-101
-110
-123
-139
-157
-177
-200
-225
-252
-281
-309
-335
-354
-365
-365
-352
-327
-291
-250
-209
-173
-149
-140
-149
-174
-213
-260
-307
-349
-378
-392
-389
-372
-345
-313
-282
-257
-240
-231
-228
-226
-223
-215
-202
-186
-171
-162
-163
-176
-201
-234
-270
-301
-321
-325
-311
-283
-245
-207
-175
-158
-160
-179
-213
-255
-296
-329
-348
-352
-341
-322
-298
-277
-262
-257
-261
-273
-288
-304
-316
-323
-325
-322
-317
-312
-309
-308
-309
-310
-309
-306
-299
-288
-275
-261
-248
-238
-233
-232
-237
-246
-259
-274
-291
-305
-316
-324
-326
-321
-310
-296
-279
-262
-249
-243
-245
-256
-274
-297
-321
-341
-353
-354
-344
-324
-298
-272
-250
-237
-235
-244
-262
-285
-305
-319
-321
-311
-290
-260
-230
-205
-191
-193
-213
-248
-295
-348
-401
-446
-480
-500
-504
-494
-473
-444
-411
-377
-344
-312
-281
-252
-225
-200
-179
-163
-155
-156
-169
-192
-222
-258
-294
-324
-343
-350
-343
-326
-301
-276
-256
-248
-254
-274
-305
-339
-369
-387
-387
-369
-332
-285
-234
-190
-160
-149
-159
-187
-225
-264
-296
-315
-317
-305
-283
-257
-236
-225
-226
-238
-257
-278
-293
-299
-292
-276
-253
-232
-216
-210
-218
-238
-265
-293
-316
-329
-329
-316
-294
-267
-243
-225
-216
-219
-229
-244
-259
-267
-266
-254
-232
-203
-174
-150
-135
-135
-150
-179
-219
-266
-313
-354
-387
-408
-418
-418
-410
-397
-382
-366
-350
-334
-317
-298
-276
-252
-229
-208
-193
-186
-187
-198
-216
-241
-267
-291
-310
-323
-327
-323
-313
-298
-281
-264
-249
-237
-229
-223
-218
-214
-210
-205
-200
-193
-188
-183
-180
-179
-181
-186
-192
-200
-207
-214
-219
-222
-226
-230
-235
-244
-255
-268
-281
-294
-303
-306
-304
-297
-286
-274
-264
-257
-256
-261
-271
-285
-299
-309
-313
-310
-300
-283
-262
-241
-221
-206
-196
-191
-191
-191
-192
-190
-185
-177
-168
-157
-146
-139
-135
-137
-144
-156
-172
-191
-212
-234
-256
-275
-288
-294
-290
-272
-241
-196
-139
-77
-14
41
82
102
99
72
25
-36
-102
-162
-211
-240
-249
-237
-210
-172
-132
-94
-63
-42
-30
-23
-20
-18
-12
-2
11
26
40
49
51
45
31
12
-10
-31
-47
-56
-55
-45
-28
-5
20
45
68
87
101
111
117
121
124
126
127
123
115
100
77
46
7
-37
-83
-128
-168
-201
-225
-242
-250
-251
-248
-243
-237
-230
-224
-218
-212
-205
-199
-193
-190
-190
-196
-206
-222
-241
-263
-284
-301
-312
-315
-309
-294
-272
-244
-214
-183
-155
-131
-113
-101
-94
-93
-97
-107
-122
-141
-164
-190
-217
-244
-268
-288
-302
-309
-308
-301
-288
-274
-260
-249
-243
-244
-251
-265
-285
-310
-336
-363
-386
-405
-416
-417
-409
-389
-359
-322
-280
-237
-197
-163
-138
-124
-122
-130
-147
-170
-196
-223
-248
-269
-287
-299
-305
-305
-300
-289
-273
-255
-236
-217
-200
-187
-178
-176
-178
-184
-192
-200
-209
-215
-217
-217
-214
-209
-203
-198
-194
-193
-198
-209
-227
-253
-285
-321
-357
-389
-410
-416
-403
-367
-309
-229
-130
-16
108
240
377
518
666
823
992
1176
1376
1592
1821
2059
2296
2523
2730
2906
3039
3120
3144
3106
3008
2853
2649
2405
2134
1849
1563
1286
1029
798
596
424
281
163
67
-11
-76
-130
-176
-215
-248
-275
-296
-312
-321
-323
-317
-302
-279
-248
-210
-168
-124
-83
-47
-21
-6
-2
-8
-20
-36
-51
-63
-68
-66
-58
-45
-31
-17
-4
5
10
13
13
12
9
5
-2
-10
-22
-35
-50
-64
-74
-77
-74
-64
-47
-27
-7
10
23
29
29
23
15
6
-2
-9
-15
-21
-27
-36
-45
-55
-62
-63
-57
-44
-25
-3
17
28
26
8
-24
-67
-111
-150
-173
-175
-151
-105
-40
34
104
159
191
195
172
126
67
5
-47
-82
-92
-78
-42
10
66
119
158
179
181
166
141
113
92
83
92
116
154
195
233
256
258
237
192
132
65
3
-42
-63
-56
-22
32
96
158
208
239
248
237
213
183
158
143
142
154
175
199
219
230
229
217
197
175
157
148
150
160
176
191
201
204
197
185
171
163
166
183
215
260
311
361
404
433
445
443
430
413
399
392
398
417
446
481
517
548
573
589
596
596
593
590
589
590
593
598
604
611
618
625
636
650
668
693
721
752
784
814
842
864
882
896
904
909
910
908
903
896
888
883
883
891
910
941
982
1030
1080
1124
1157
1174
1173
1157
1129
1100
1077
1070
1083
1118
1171
1236
1303
1362
1404
1425
1424
1403
1370
1333
1300
1278
1270
1277
1296
1322
1348
1369
1382
1383
1373
1354
1328
1299
1271
1246
1227
1216
1211
1211
1215
1219
1218
1210
1193
1163
1121
1069
1009
947
887
834
793
764
746
738
734
731
723
708
685
653
614
570
524
478
434
392
353
318
286
259
238
223
213
209
206
203
195
179
153
115
68
15
-39
-88
-128
-154
-166
-166
-158
-146
-136
-132
-137
-151
-172
-197
-223
-245
-261
-268
-269
-265
-258
-251
-245
-244
-246
-252
-260
-270
-280
-289
-297
-305
-313
-322
-332
-344
-357
-368
-378
-383
-382
-374
-358
-336
-310
-285
-262
-246
-238
-241
-253
-273
-299
-325
-346
-361
-367
-363
-352
-336
-322
-313
-315
-329
-355
-389
-427
-462
-489
-501
-497
-476
-440
-396
-351
-311
-283
-273
-280
-304
-340
-380
-418
-447
-462
-461
-446
-420
-388
-359
-337
-327
-331
-347
-370
-394
-414
-425
-424
-408
-382
-349
-315
-285
-262
-251
-250
-258
-272
-290
-309
-326
-341
-354
-365
-375
-383
-389
-390
-385
-373
-353
-327
-297
-268
-245
-232
-232
-246
-271
-305
-342
-376
-401
-414
-414
-403
-385
-365
-350
-345
-351
-368
-393
-420
-442
-454
-449
-428
-390
-340
-285
-232
-188
-157
-144
-147
-163
-189
-218
-246
-268
-284
-293
-298
-302
-310
-322
-341
-365
-394
-421
-443
-456
-456
-444
-419
-386
-348
-313
-286
-270
-268
-277
-296
-319
-340
-352
-351
-335
-307
-269
-228
-193
-170
-167
-187
-229
-287
-355
-424
-483
-525
-542
-534
-503
-452
-391
-326
-268
-223
-195
-185
-193
-213
-242
-273
-302
-324
-338
-344
-343
-337
-329
-320
-313
-307
-304
-302
-302
-304
-307
-312
-319
-328
-340
-354
-369
-382
-392
-397
-398
-394
-388
-381
-376
-374
-377
-384
-394
-405
-413
-416
-412
-402
-385
-364
-341
-320
-301
-288
-281
-279
-280
-283
-288
-292
-296
-299
-303
-308
-316
-326
-337
-351
-365
-379
-390
-397
-399
-396
-386
-371
-351
-330
-307
-288
-273
-267
-271
-286
-312
-346
-386
-426
-461
-486
-497
-492
-470
-432
-381
-323
-263
-205
-157
-123
-105
-104
-119
-148
-186
-228
-270
-308
-338
-359
-369
-370
-363
-351
-338
-327
-320
-319
-325
-338
-355
-373
-391
-404
-411
-411
-405
-393
-379
-366
-356
-352
-354
-363
-376
-391
-402
-410
-411
-405
-394
-379
-365
-353
-346
-345
-352
-363
-376
-389
-397
-398
-392
-379
-361
-340
-320
-304
-292
-287
-288
-294
-302
-310
-317
-320
-321
-319
-316
-315
-315
-320
-327
-335
-341
-343
-339
-327
-308
-285
-260
-237
-220
-213
-216
-230
-253
-280
-311
-341
-368
-391
-411
-429
-445
-460
-472
-479
-479
-469
-446
-413
-370
-324
-279
-243
-221
-218
-234
-266
-310
-357
-400
-431
-443
-435
-408
-366
-316
-266
-223
-194
-181
-184
-201
-226
-253
-274
-285
-283
-268
-245
-218
-194
-180
-181
-198
-229
-268
-310
-346
-369
-376
-366
-342
-310
-278
-254
-245
-253
-278
-315
-358
-400
-433
-453
-457
-448
-431
-409
-389
-374
-366
-363
-363
-362
-355
-341
-318
-289
-258
-230
-210
-201
-206
-222
-247
-276
-303
-322
-333
-333
-324
-310
-295
-283
-278
-282
-296
-317
-343
-370
-394
-410
-418
-415
-402
-378
-348
-313
-278
-244
-216
-194
-181
-179
-186
-201
-222
-247
-272
-293
-306
-309
-303
-288
-268
-245
-225
-211
-206
-212
-227
-250
-277
-306
-330
-347
-356
-354
-343
-324
-300
-273
-244
-217
-192
-170
-153
-140
-131
-128
-129
-134
-141
-149
-155
-158
-154
-144
-128
-106
-83
-62
-48
-45
-56
-82
-122
-171
-223
-272
-309
-331
-333
-314
-277
-226
-169
-112
-62
-24
-2
4
-7
-29
-57
-87
-113
-133
-143
-143
-132
-114
-90
-64
-39
-16
2
15
23
28
30
32
33
33
34
33
30
24
14
0
-18
-40
-65
-90
-115
-140
-162
-183
-202
-217
-229
-236
-237
-234
-226
-216
-205
-196
-192
-194
-204
-220
-242
-267
-292
-314
-333
-346
-355
-361
-363
-364
-364
-364
-361
-355
-344
-326
-303
-275
-243
-211
-183
-161
-146
-140
-143
-154
-171
-192
-214
-236
-255
-271
-281
-285
-283
-276
-267
-258
-251
-248
-251
-259
-272
-286
-300
-308
-311
-306
-296
-284
-273
-267
-269
-280
-299
-323
-347
-366
-375
-373
-359
-335
-306
-278
-255
-241
-238
-245
-256
-269
-280
-284
-280
-268
-250
-231
-213
-201
-197
-199
-209
-223
-239
-253
-264
-270
-271
-267
-260
-250
-239
-228
-218
-210
-205
-205
-211
-224
-244
-270
-301
-335
-367
-395
-417
-431
-439
-442
-441
-438
-432
-423
-410
-388
-353
-303
-234
-143
-32
101
252
420
600
790
990
1196
1409
1626
1846
2067
2284
2493
2688
2861
3003
3105
3157
3154
3090
2963
2774
2531
2244
1928
1599
1276
974
709
490
320
198
118
70
41
18
-7
-42
-87
-141
-196
-246
-283
-300
-297
-274
-235
-189
-143
-105
-78
-65
-63
-69
-76
-77
-68
-49
-20
14
45
68
77
69
45
10
-29
-65
-89
-95
-81
-48
-1
52
102
142
164
167
148
111
62
6
-51
-102
-142
-170
-183
-183
-172
-152
-125
-96
-68
-44
-26
-17
-18
-29
-48
-71
-96
-117
-128
-129
-117
-93
-61
-24
11
41
61
69
66
52
32
11
-8
-22
-29
-28
-21
-12
-2
3
3
-2
-11
-22
-34
-42
-45
-43
-37
-28
-20
-16
-17
-27
-44
-67
-94
-118
-137
-146
-143
-127
-98
-60
-15
31
75
112
142
162
174
179
181
180
180
182
185
190
195
200
205
206
203
196
185
170
154
137
121
107
98
94
96
105
119
137
159
182
205
225
240
252
259
261
259
254
247
239
232
225
220
217
217
221
227
235
245
257
271
288
307
332
361
395
431
467
500
526
541
544
535
515
489
462
441
429
432
448
476
513
551
587
614
629
633
628
616
601
589
584
586
599
620
648
681
717
755
793
830
866
899
930
958
982
1002
1017
1030
1040
1048
1055
1062
1067
1072
1075
1076
1076
1076
1076
1080
1088
1100
1118
1140
1162
1181
1194
1199
1194
1182
1166
1151
1143
1148
1168
1204
1254
1314
1374
1428
1469
1490
1491
1472
1437
1392
1344
1298
1260
1231
1213
1203
1197
1189
1178
1160
1134
1102
1067
1031
1000
975
959
953
956
964
976
987
994
992
979
954
917
867
808
743
675
608
545
490
446
412
389
374
364
358
350
338
318
290
252
206
154
99
45
-6
-49
-83
-106
-117
-117
-110
-97
-83
-73
-68
-72
-85
-108
-138
-171
-203
-231
-251
-262
-264
-260
-254
-250
-253
-265
-288
-320
-356
-392
-420
-435
-433
-414
-380
-337
-292
-252
-223
-211
-215
-234
-263
-294
-323
-345
-356
-357
-352
-344
-338
-338
-345
-359
-378
-398
-414
-422
-420
-409
-392
-372
-354
-345
-346
-357
-379
-406
-435
-459
-474
-479
-472
-455
-432
-407
-383
-364
-352
-346
-345
-348
-352
-357
-362
-369
-378
-390
-406
-425
-444
-459
-466
-463
-448
-421
-387
-351
-320
-299
-292
-302
-325
-356
-389
-416
-431
-429
-411
-380
-344
-309
-283
-272
-279
-301
-336
-375
-411
-438
-452
-449
-432
-404
-371
-339
-311
-293
-287
-292
-307
-330
-358
-386
-413
-434
-447
-449
-439
-417
-384
-344
-299
-257
-222
-200
-192
-200
-223
-257
-294
-330
-358
-377
-383
-379
-369
-359
-354
-357
-372
-398
-429
-462
-487
-498
-492
-467
-425
-371
-312
-258
-216
-191
-187
-201
-230
-267
-304
-335
-356
-364
-361
-348
-332
-318
-310
-312
-323
-344
-373
-404
-434
-458
-473
-476
-469
-452
-427
-398
-369
-342
-322
-308
-302
-304
-313
-328
-344
-361
-376
-386
-391
-389
-381
-367
-348
-327
-307
-290
-279
-277
-286
-306
-337
-375
-417
-458
-491
-511
-514
-498
-464
-414
-354
-291
-235
-192
-168
-168
-192
-239
-301
-370
-438
-493
-528
-539
-524
-485
-429
-367
-309
-265
-243
-248
-279
-330
-391
-453
-502
-531
-535
-514
-473
-423
-373
-336
-319
-326
-356
-401
-451
-496
-525
-531
-513
-474
-420
-362
-309
-272
-256
-262
-288
-327
-371
-412
-442
-458
-457
-444
-423
-401
-384
-377
-384
-403
-431
-464
-495
-519
-530
-528
-513
-490
-462
-436
-414
-398
-390
-386
-383
-378
-366
-349
-326
-301
-279
-263
-256
-260
-274
-294
-315
-333
-347
-354
-357
-359
-364
-377
-398
-428
-461
-491
-513
-520
-509
-481
-439
-390
-342
-303
-279
-272
-281
-302
-328
-354
-373
-382
-380
-369
-353
-336
-323
-318
-321
-332
-349
-371
-393
-415
-433
-447
-455
-458
-454
-444
-427
-405
-379
-351
-325
-303
-289
-285
-290
-303
-323
-346
-369
-389
-404
-413
-418
-421
-422
-424
-428
-434
-442
-450
-457
-460
-457
-449
-433
-411
-384
-354
-322
-289
-259
-234
-215
-203
-200
-206
-221
-243
-271
-301
-330
-354
-370
-377
-374
-360
-339
-313
-286
-259
-238
-223
-217
-219
-230
-247
-268
-292
-316
-340
-363
-383
-400
-415
-427
-437
-444
-448
-450
-447
-442
-433
-421
-407
-392
-378
-366
-359
-356
-358
-365
-374
-384
-392
-395
-391
-381
-364
-342
-318
-296
-280
-270
-268
-275
-286
-299
-311
-318
-318
-310
-298
-282
-267
-257
-254
-260
-272
-290
-308
-323
-330
-327
-314
-293
-268
-243
-225
-218
-223
-241
-272
-310
-352
-392
-425
-448
-461
-464
-457
-444
-428
-410
-392
-373
-353
-332
-307
-279
-248
-218
-192
-173
-166
-171
-188
-217
-251
-285
-313
-327
-325
-305
-269
-223
-173
-128
-96
-82
-89
-116
-158
-206
-254
-294
-319
-329
-323
-306
-281
-254
-229
-209
-194
-183
-173
-162
-147
-131
-113
-98
-87
-83
-87
-96
-108
-118
-124
-122
-112
-96
-78
-63
-54
-55
-67
-86
-108
-126
-134
-129
-108
-73
-29
18
64
100
126
138
137
127
109
87
60
31
-3
-43
-88
-138
-192
-244
-291
-329
-356
-370
-372
-364
-350
-335
-323
-316
-314
-317
-323
-326
-326
-319
-305
-284
-259
-231
-204
-180
-163
-152
-151
-157
-170
-189
-211
-236
-260
-283
-305
-324
-340
-354
-365
-373
-378
-379
-376
-367
-353
-337
-321
-307
-299
-300
-312
-334
-365
-399
-431
-454
-463
-456
-432
-397
-356
-319
-296
-292
-310
-351
-405
-466
-521
-560
-575
-562
-522
-462
-392
-322
-263
-223
-203
-204
-221
-248
-278
-304
-324
-334
-337
-334
-328
-323
-319
-316
-314
-310
-303
-295
-286
-276
-270
-269
-276
-289
-307
-328
-348
-365
-376
-379
-376
-368
-356
-342
-328
-314
-302
-291
-283
-279
-280
-288
-306
-335
-375
-423
-478
-534
-584
-623
-646
-649
-632
-593
-537
-467
-386
-296
-200
-98
13
133
266
413
572
745
926
1113
1301
1487
1670
1848
2021
2189
2349
2498
2628
2731
2797
2814
2773
2669
2501
2274
2000
1693
1373
1056
761
499
277
100
-37
-137
-208
-257
-292
-317
-338
-357
-377
-398
-422
-447
-471
-492
-506
-507
-494
-463
-416
-356
-287
-218
-157
-111
-85
-80
-94
-121
-154
-183
-203
-208
-197
-173
-142
-111
-87
-76
-81
-101
-134
-173
-211
-241
-258
-260
-247
-222
-189
-155
-124
-103
-93
-96
-111
-134
-162
-191
-216
-234
-243
-244
-236
-221
-201
-178
-155
-134
-116
-101
-91
-86
-85
-87
-92
-99
-108
-117
-127
-135
-141
-145
-147
-145
-140
-132
-122
-111
-101
-93
-88
-86
-90
-97
-107
-120
-133
-145
-154
-158
-154
-142
-122
-95
-61
-26
7
32
46
44
25
-10
-59
-115
-172
-221
-257
-273
-269
-246
-208
-162
-115
-73
-41
-22
-16
-20
-29
-37
-41
-38
-26
-5
20
48
73
91
100
99
87
67
42
13
-15
-39
-57
-69
-73
-69
-58
-42
-21
2
27
53
78
103
126
147
165
178
185
185
179
168
152
136
122
116
122
142
176
224
281
340
395
438
462
465
446
408
361
312
271
249
251
282
337
412
494
574
638
678
688
667
621
557
488
427
384
366
375
410
463
526
587
639
674
689
686
672
655
644
647
667
707
763
828
892
946
981
994
984
955
913
869
834
814
816
840
883
939
998
1052
1095
1121
1131
1126
1112
1095
1082
1077
1082
1095
1116
1139
1159
1173
1178
1172
1159
1141
1122
1107
1097
1094
1100
1112
1128
1145
1160
1170
1173
1168
1154
1131
1098
1059
1013
964
913
866
824
790
769
762
768
784
807
828
842
842
822
781
719
641
553
465
383
314
261
225
204
194
191
189
185
179
168
155
141
125
109
89
63
30
-13
-65
-123
-182
-236
-282
-315
-331
-331
-317
-293
-265
-238
-217
-203
-198
-202
-214
-233
-258
-288
-323
-359
-394
-426
-452
-468
-471
-461
-439
-409
-377
-349
-332
-330
-343
-369
-405
-442
-476
-497
-504
-496
-476
-450
-425
-407
-402
-411
-433
-465
-501
-535
-560
-575
-578
-572
-560
-548
-538
-535
-538
-546
-556
-563
-565
-557
-540
-514
-484
-455
-431
-416
-413
-421
-437
-457
-477
-491
-496
-491
-476
-456
-433
-414
-401
-398
-404
-419
-440
-463
-483
-498
-504
-501
-490
-472
-450
-428
-408
-391
-379
-374
-375
-382
-396
-414
-437
-463
-489
-513
-532
-543
-544
-533
-510
-479
-441
-401
-365
-337
-320
-317
-330
-356
-392
-434
-477
-518
-550
-573
-583
-581
-565
-539
-505
-467
-430
-398
-374
-362
-362
-375
-398
-426
-457
-484
-505
-516
-516
-507
-491
-472
-454
-439
-430
-426
-426
-429
-432
-434
-433
-430
-426
-419
-412
-405
-397
-387
-375
-361
-344
-327
-311
-300
-297
-303
-317
-338
-360
-381
-395
-401
-397
-385
-368
-353
-344
-347
-363
-392
-428
-468
-504
-530
-540
-535
-513
-479
-440
-401
-369
-349
-341
-345
-359
-379
-402
-425
-445
-463
-478
-492
-505
-517
-529
-538
-541
-536
-521
-497
-465
-428
-394
-366
-350
-348
-360
-382
-409
-435
-452
-457
-446
-421
-387
-351
-322
-305
-307
-327
-363
-408
-454
-492
-516
-522
-509
-482
-445
-407
-375
-353
-344
-346
-356
-371
-385
-396
-403
-406
-407
-410
-415
-423
-435
-448
-458
-463
-461
-452
-436
-418
-400
-388
-385
-392
-412
-441
-477
-517
-554
-585
-607
-615
-611
-595
-569
-535
-498
-461
-427
-401
-383
-374
-376
-386
-402
-420
-436
-449
-454
-453
-445
-432
-417
-403
-393
-389
-392
-403
-419
-437
-454
-467
-472
-469
-455
-434
-406
-377
-351
-331
-321
-323
-338
-363
-395
-431
-463
-489
-504
-508
-500
-483
-458
-431
-405
-384
-368
-360
-359
-364
-377
-394
-416
-441
-468
-494
-520
-542
-558
-566
-565
-556
-540
-518
-494
-469
-447
-429
-415
-406
-400
-396
-393
-390
-388
-387
-386
-388
-392
-400
-411
-427
-446
-468
-491
-512
-529
-539
-540
-529
-506
-474
-433
-388
-345
-308
-282
-269
-269
-281
-301
-325
-348
-366
-378
-384
-384
-380
-376
-371
-368
-366
-363
-359
-352
-345
-337
-332
-333
-343
-364
-395
-436
-482
-527
-567
-597
-613
-613
-597
-569
-533
-492
-450
-413
-383
-362
-351
-351
-360
-377
-398
-419
-437
-447
-449
-439
-420
-393
-361
-331
-307
-294
-295
-309
-334
-365
-394
-417
-428
-426
-411
-386
-359
-337
-325
-329
-348
-381
-423
-466
-502
-525
-531
-518
-489
-450
-407
-367
-339
-326
-330
-350
-384
-425
-468
-506
-533
-546
-542
-520
-485
-439
-390
-343
-305
-282
-276
-287
-315
-353
-395
-435
-465
-481
-482
-467
-438
-400
-358
-319
-287
-266
-256
-259
-272
-293
-319
-347
-372
-392
-404
-406
-398
-381
-359
-334
-311
-296
-293
-305
-329
-364
-404
-442
-472
-489
-491
-477
-452
-420
-387
-359
-339
-328
-326
-328
-329
-327
-319
-303
-280
-255
-230
-210
-197
-193
-197
-207
-220
-232
-242
-247
-246
-240
-230
-217
-205
-194
-187
-185
-187
-193
-203
-216
-228
-240
-247
-249
-244
-233
-219
-202
-187
-176
-171
-172
-180
-192
-207
-221
-232
-239
-241
-240
-235
-228
-220
-212
-204
-195
-184
-169
-150
-128
-104
-77
-51
-28
-7
11
25
36
43
45
41
27
3
-34
-83
-143
-211
-282
-348
-403
-442
-461
-459
-437
-400
-354
-306
-265
-234
-219
-218
-230
-250
-273
-294
-307
-313
-312
-308
-304
-307
-318
-339
-368
-400
-428
-446
-448
-433
-401
-359
-313
-272
-246
-239
-255
-289
-337
-390
-436
-468
-479
-469
-439
-396
-347
-301
-267
-251
-252
-270
-302
-341
-382
-420
-451
-473
-485
-489
-486
-479
-467
-453
-436
-417
-396
-373
-352
-333
-320
-315
-321
-338
-364
-396
-431
-461
-482
-488
-478
-450
-407
-357
-305
-260
-230
-218
-228
-257
-301
-351
-399
-440
-466
-476
-469
-450
-424
-397
-373
-355
-344
-337
-332
-324
-311
-292
-267
-240
-216
-198
-194
-205
-233
-277
-333
-397
-463
-526
-581
-625
-653
-664
-657
-632
-588
-525
-445
-347
-232
-99
50
214
392
582
783
990
1200
1411
1617
1815
2004
2181
2344
2490
2619
2725
2805
2850
2854
2810
2712
2558
2350
2095
1806
1497
1185
887
619
391
208
71
-27
-92
-134
-163
-189
-216
-249
-285
-324
-363
-397
-422
-436
-438
-427
-404
-371
-331
-285
-238
-192
-151
-116
-89
-72
-64
-65
-75
-91
-112
-135
-157
-175
-189
-196
-196
-188
-174
-156
-136
-118
-102
-91
-84
-82
-82
-83
-81
-78
-71
-63
-56
-52
-54
-64
-81
-106
-135
-165
-193
-215
-229
-233
-229
-216
-199
-179
-159
-141
-127
-116
-109
-104
-99
-95
-89
-84
-79
-74
-70
-71
-76
-86
-102
-121
-140
-158
-170
-174
-168
-152
-130
-104
-81
-65
-61
-72
-98
-134
-175
-212
-238
-247
-235
-203
-156
-100
-45
2
33
45
39
19
-7
-33
-51
-56
-48
-28
-3
22
38
40
26
-4
-43
-86
-125
-151
-160
-151
-125
-86
-41
1
33
51
56
49
34
18
6
3
12
34
66
102
137
168
189
201
202
195
183
171
160
152
148
147
148
149
149
148
148
149
153
161
173
189
205
221
234
242
245
243
238
234
232
237
250
271
300
335
371
407
438
462
476
481
477
466
451
436
423
417
420
432
455
485
521
559
596
631
660
683
700
711
720
726
731
737
744
750
756
763
770
777
786
797
810
828
849
873
899
927
955
983
1007
1028
1045
1058
1066
1070
1070
1067
1061
1055
1050
1046
1044
1046
1051
1058
1067
1080
1095
1114
1139
1169
1204
1243
1283
1320
1351
1371
1378
1370
1350
1321
1290
1261
1238
1224
1216
1212
1206
1194
1168
1128
1074
1010
942
878
825
788
770
769
779
794
806
809
798
772
732
682
625
567
512
460
414
373
336
301
270
241
216
195
178
163
149
134
115
90
58
22
-16
-53
-85
-109
-124
-129
-128
-124
-123
-129
-144
-169
-203
-243
-286
-326
-360
-385
-400
-404
-400
-390
-376
-360
-346
-333
-322
-312
-306
-304
-306
-314
-330
-353
-383
-419
-459
-500
-538
-568
-587
-591
-579
-553
-514
-467
-417
-370
-331
-305
-293
-297
-313
-340
-373
-405
-434
-457
-473
-482
-489
-496
-508
-527
-555
-589
-626
-662
-690
-705
-703
-682
-644
-593
-535
-476
-425
-386
-363
-356
-365
-385
-412
-440
-466
-485
-497
-500
-497
-488
-476
-462
-451
-442
-438
-438
-443
-452
-463
-474
-483
-489
-491
-486
-477
-463
-448
-436
-428
-427
-433
-448
-470
-497
-523
-547
-563
-571
-568
-555
-532
-504
-473
-443
-417
-398
-389
-389
-397
-411
-429
-448
-464
-475
-479
-478
-471
-462
-454
-447
-444
-445
-450
-457
-461
-462
-458
-450
-439
-427
-419
-417
-424
-439
-459
-480
-497
-505
-500
-480
-448
-407
-364
-328
-304
-297
-310
-341
-384
-432
-479
-517
-541
-551
-546
-530
-508
-486
-468
-456
-451
-452
-458
-465
-473
-481
-488
-495
-502
-509
-516
-521
-522
-519
-508
-491
-467
-440
-411
-384
-362
-344
-334
-331
-334
-343
-358
-378
-402
-431
-464
-499
-533
-564
-587
-599
-599
-586
-560
-525
-484
-443
-405
-374
-350
-335
-327
-325
-329
-335
-345
-358
-375
-394
-416
-439
-460
-477
-488
-491
-487
-477
-465
-453
-445
-442
-447
-458
-472
-487
-500
-507
-507
-501
-490
-476
-462
-451
-445
-444
-446
-452
-459
-466
-471
-473
-472
-469
-465
-461
-457
-456
-457
-460
-463
-465
-464
-460
-451
-436
-417
-394
-371
-351
-338
-336
-348
-374
-414
-464
-519
-574
-621
-653
-666
-656
-625
-577
-517
-453
-393
-345
-316
-308
-322
-356
-402
-454
-504
-544
-569
-577
-566
-539
-501
-459
-418
-384
-360
-350
-352
-365
-385
-409
-434
-458
-479
-496
-510
-520
-526
-530
-530
-527
-519
-507
-493
-477
-461
-444
-430
-419
-410
-404
-400
-396
-393
-392
-391
-393
-398
-404
-412
-421
-430
-437
-443
-447
-450
-451
-453
-456
-459
-461
-461
-456
-445
-428
-407
-385
-366
-353
-351
-359
-378
-403
-429
-450
-460
-456
-440
-414
-385
-361
-347
-350
-369
-403
-445
-486
-517
-533
-529
-507
-471
-429
-389
-360
-345
-348
-364
-389
-416
-436
-445
-442
-425
-399
-369
-341
-321
-312
-315
-330
-354
-383
-413
-440
-462
-478
-488
-490
-486
-478
-466
-452
-439
-426
-414
-406
-400
-397
-394
-393
-392
-392
-391
-392
-397
-407
-424
-447
-475
-506
-536
-561
-576
-579
-568
-543
-506
-463
-418
-377
-345
-326
-323
-336
-361
-396
-433
-467
-493
-506
-506
-492
-467
-437
-405
-377
-356
-344
-341
-344
-351
-358
-363
-362
-357
-350
-340
-333
-330
-332
-339
-350
-360
-367
-369
-363
-350
-331
-309
-286
-266
-252
-246
-249
-261
-281
-308
-339
-374
-410
-445
-478
-505
-524
-533
-532
-518
-493
-460
-421
-381
-345
-316
-298
-292
-297
-311
-331
-354
-375
-391
-399
-399
-389
-373
-352
-328
-306
-288
-278
-275
-282
-297
-319
-345
-371
-395
-413
-422
-422
-413
-397
-376
-353
-332
-315
-305
-301
-304
-311
-320
-328
-334
-335
-332
-326
-317
-310
-306
-307
-314
-327
-344
-361
-376
-386
-387
-378
-358
-331
-298
-263
-229
-201
-180
-169
-167
-173
-186
-203
-220
-236
-246
-250
-246
-233
-213
-187
-158
-130
-109
-97
-97
-112
-140
-179
-226
-273
-316
-348
-364
-362
-342
-306
-259
-208
-158
-116
-86
-70
-70
-83
-106
-134
-159
-178
-185
-177
-153
-116
-69
-17
34
77
106
118
112
89
54
10
-37
-80
-118
-148
-172
-193
-213
-234
-259
-288
-318
-347
-370
-385
-388
-379
-361
-338
-313
-293
-280
-276
-283
-297
-316
-336
-355
-369
-377
-380
-379
-375
-369
-361
-353
-345
-336
-326
-316
-307
-299
-294
-291
-290
-291
-291
-288
-283
-273
-260
-246
-235
-230
-235
-251
-280
-318
-363
-408
-450
-481
-498
-499
-484
-455
-418
-376
-337
-303
-280
-269
-270
-282
-303
-328
-355
-381
-401
-415
-420
-417
-406
-389
-369
-346
-325
-307
-292
-283
-278
-278
-279
-279
-277
-271
-261
-248
-233
-221
-214
-215
-227
-250
-285
-327
-371
-413
-444
-461
-459
-437
-396
-342
-279
-217
-164
-128
-115
-128
-166
-226
-302
-386
-469
-542
-600
-637
-651
-641
-611
-565
-507
-441
-372
-304
-239
-176
-113
-47
28
118
226
358
515
699
906
1133
1373
1619
1864
2100
2324
2528
2710
2866
2991
3081
3131
3133
3082
2973
2807
2587
2319
2017
1698
1378
1075
802
570
382
236
127
47
-16
-68
-116
-163
-207
-246
-276
-294
-297
-287
-266
-239
-211
-187
-170
-160
-156
-156
-154
-148
-135
-117
-93
-68
-47
-31
-25
-28
-38
-52
-65
-74
-75
-67
-49
-25
1
24
37
40
29
6
-28
-67
-106
-140
-163
-175
-172
-156
-129
-94
-56
-20
10
30
38
34
19
-4
-32
-61
-87
-105
-113
-112
-102
-86
-66
-46
-29
-16
-9
-7
-8
-11
-13
-15
-14
-12
-11
-10
-13
-20
-30
-44
-58
-71
-79
-81
-77
-66
-50
-33
-16
-2
6
8
5
0
-5
-9
-7
0
14
35
58
80
101
116
124
126
122
115
107
101
97
97
101
106
112
115
114
109
99
87
73
62
55
53
56
63
73
82
90
94
93
90
86
85
88
98
115
140
169
199
228
251
266
272
269
261
250
241
234
232
234
242
251
261
268
272
272
267
260
252
246
243
246
256
276
304
341
385
434
484
531
569
595
604
596
571
535
492
452
419
402
402
420
453
496
541
582
612
631
636
633
625
618
617
626
645
674
710
750
790
826
857
882
902
916
926
932
933
929
923
913
904
898
899
910
932
968
1015
1068
1122
1170
1207
1228
1231
1217
1189
1153
1115
1082
1059
1050
1058
1081
1117
1164
1218
1273
1325
1372
1409
1435
1449
1449
1437
1414
1386
1355
1325
1300
1282
1273
1270
1271
1273
1271
1260
1239
1208
1168
1123
1080
1041
1013
997
992
998
1008
1019
1026
1025
1013
990
956
913
863
809
753
697
643
593
548
509
477
451
432
418
404
389
371
346
315
277
235
193
154
121
96
80
73
73
78
83
87
86
80
66
44
14
-22
-64
-110
-157
-202
-240
-267
-278
-273
-250
-214
-169
-124
-86
-62
-58
-75
-111
-160
-216
-269
-313
-340
-348
-339
-317
-287
-258
-236
-225
-227
-241
-266
-297
-329
-358
-383
-401
-413
-419
-420
-416
-411
-404
-395
-385
-376
-367
-361
-357
-357
-360
-364
-369
-373
-372
-366
-356
-341
-323
-306
-292
-283
-281
-286
-296
-309
-322
-333
-340
-341
-337
-328
-316
-305
-296
-291
-291
-297
-309
-327
-350
-374
-398
-417
-429
-429
-416
-389
-349
-299
-245
-194
-152
-126
-121
-137
-171
-220
-277
-334
-383
-417
-435
-435
-419
-392
-358
-324
-292
-267
-249
-238
-234
-235
-239
-247
-257
-269
-283
-296
-308
-317
-321
-320
-313
-303
-290
-279
-273
-272
-277
-289
-305
-321
-332
-337
-331
-316
-293
-264
-234
-209
-192
-188
-195
-215
-245
-282
-321
-357
-387
-407
-416
-413
-399
-378
-353
-328
-305
-289
-280
-278
-280
-284
-288
-287
-279
-266
-248
-229
-213
-205
-206
-217
-238
-266
-296
-323
-342
-349
-344
-327
-300
-270
-239
-214
-198
-193
-200
-219
-246
-279
-314
-347
-375
-395
-404
-403
-389
-365
-334
-299
-263
-231
-206
-189
-183
-185
-195
-209
-226
-243
-259
-271
-281
-287
-292
-295
-297
-299
-300
-300
-300
-299
-296
-291
-283
-273
-260
-244
-226
-210
-196
-188
-188
-198
-217
-243
-274
-305
-332
-352
-363
-363
-357
-346
-337
-332
-335
-345
-360
-377
-391
-397
-393
-378
-353
-323
-292
-267
-250
-245
-251
-264
-280
-294
-302
-301
-290
-272
-249
-226
-208
-198
-195
-200
-212
-227
-241
-253
-261
-265
-268
-271
-275
-282
-292
-304
-315
-324
-328
-325
-315
-300
-281
-261
-245
-233
-229
-233
-243
-258
-273
-286
-294
-296
-291
-280
-265
-248
-231
-215
-202
-193
-188
-185
-185
-188
-194
-205
-221
-243
-271
-303
-334
-363
-384
-394
-393
-378
-352
-319
-284
-254
-232
-222
-227
-244
-270
-300
-329
-351
-361
-359
-346
-323
-298
-274
-256
-248
-251
-264
-283
-304
-322
-332
-332
-322
-304
-283
-266
-257
-259
-275
-303
-337
-370
-398
-411
-409
-390
-357
-315
-271
-232
-203
-185
-179
-181
-187
-191
-189
-180
-166
-147
-129
-116
-112
-117
-132
-154
-181
-209
-236
-259
-278
-294
-308
-323
-337
-350
-360
-365
-360
-346
-321
-285
-244
-201
-163
-132
-113
-108
-115
-133
-157
-181
-203
-219
-228
-231
-229
-227
-228
-235
-251
-273
-300
-328
-351
-365
-367
-356
-331
-298
-261
-226
-198
-181
-177
-186
-203
-224
-245
-261
-269
-269
-261
-248
-235
-223
-217
-216
-218
-223
-226
-227
-222
-213
-200
-186
-173
-165
-162
-167
-177
-192
-209
-225
-240
-251
-260
-268
-278
-291
-308
-330
-355
-382
-406
-424
-432
-429
-413
-385
-346
-301
-253
-207
-166
-133
-111
-99
-97
-105
-120
-137
-154
-169
-180
-186
-187
-184
-179
-173
-168
-166
-169
-177
-190
-208
-229
-251
-272
-288
-297
-299
-291
-274
-250
-222
-192
-163
-139
-121
-110
-107
-109
-115
-121
-126
-129
-127
-122
-113
-103
-92
-82
-73
-67
-63
-63
-66
-72
-82
-97
-116
-137
-159
-179
-193
-199
-197
-186
-167
-143
-118
-93
-71
-53
-39
-25
-10
7
26
46
64
79
86
82
68
43
13
-20
-49
-71
-82
-82
-72
-56
-36
-17
-3
6
9
4
-6
-20
-38
-58
-82
-110
-141
-174
-208
-239
-266
-284
-292
-289
-277
-258
-235
-212
-193
-180
-173
-173
-177
-184
-190
-195
-197
-197
-195
-195
-198
-205
-215
-229
-245
-261
-276
-288
-296
-299
-299
-295
-289
-281
-273
-266
-259
-256
-256
-262
-274
-292
-315
-341
-368
-390
-404
-407
-398
-376
-344
-306
-266
-230
-204
-189
-186
-195
-213
-235
-257
-275
-287
-292
-291
-284
-275
-267
-260
-256
-255
-257
-261
-266
-273
-279
-286
-292
-298
-302
-303
-300
-293
-281
-266
-248
-230
-214
-200
-191
-188
-189
-195
-203
-215
-230
-247
-267
-289
-312
-336
-358
-378
-395
-408
-415
-417
-415
-412
-410
-408
-410
-415
-421
-426
-427
-421
-405
-375
-329
-264
-180
-74
53
201
367
548
741
941
1145
1349
1550
1746
1934
2115
2286
2444
2585
2701
2784
2826
2817
2754
2632
2455
2227
1962
1673
1378
1091
827
598
409
262
154
77
24
-16
-50
-85
-124
-168
-216
-265
-311
-350
-381
-402
-413
-413
-406
-393
-375
-354
-330
-305
-277
-250
-223
-197
-175
-158
-145
-136
-129
-121
-110
-93
-70
-41
-10
21
47
66
74
70
56
32
4
-27
-56
-81
-101
-116
-126
-131
-132
-128
-120
-109
-94
-78
-61
-45
-32
-23
-19
-20
-23
-27
-29
-29
-27
-23
-19
-16
-17
-23
-33
-46
-59
-72
-80
-84
-83
-79
-75
-74
-78
-86
-99
-113
-125
-129
-124
-106
-77
-40
0
36
62
75
73
57
32
2
-25
-44
-52
-48
-33
-12
8
24
31
28
16
-1
-17
-27
-27
-15
8
37
68
95
112
117
110
96
78
63
57
63
81
107
136
162
178
180
168
142
108
72
41
21
17
30
57
94
138
182
223
257
283
299
305
303
292
274
250
222
191
162
138
123
119
128
151
184
224
267
307
343
371
392
406
416
424
433
443
454
467
479
488
495
499
501
503
505
510
517
525
531
535
534
529
519
508
500
498
507
528
561
602
649
694
733
760
775
777
770
758
749
747
758
782
819
863
910
951
982
997
996
980
953
920
890
869
863
875
905
948
999
1051
1096
1130
1149
1152
1141
1121
1099
1083
1077
1085
1110
1148
1196
1246
1291
1328
1352
1362
1359
1345
1326
1306
1291
1284
1284
1291
1301
1312
1317
1314
1299
1272
1234
1191
1145
1102
1066
1042
1030
1028
1035
1046
1057
1061
1054
1035
1003
959
904
844
783
723
668
619
576
540
509
483
463
449
439
433
431
430
429
423
410
388
356
314
264
209
153
98
50
9
-22
-44
-57
-61
-60
-55
-50
-46
-47
-53
-66
-86
-112
-141
-171
-199
-223
-239
-249
-253
-254
-253
-254
-259
-266
-274
-279
-279
-270
-252
-226
-197
-170
-152
-147
-158
-184
-224
-269
-314
-350
-376
-388
-388
-383
-377
-377
-387
-409
-440
-475
-509
-533
-542
-534
-508
-468
-419
-367
-318
-278
-248
-228
-218
-216
-219
-225
-233
-242
-251
-262
-275
-289
-302
-315
-325
-331
-334
-333
-328
-321
-313
-305
-301
-302
-310
-324
-344
-369
-393
-414
-426
-427
-414
-387
-350
-306
-265
-232
-214
-215
-236
-273
-319
-367
-408
-435
-445
-438
-417
-389
-361
-338
-325
-322
-327
-336
-343
-343
-334
-316
-290
-263
-237
-218
-210
-212
-222
-238
-255
-271
-282
-288
-291
-292
-294
-298
-305
-314
-323
-328
-326
-316
-298
-273
-246
-221
-202
-195
-202
-221
-249
-284
-318
-347
-364
-369
-358
-334
-299
-259
-220
-186
-163
-152
-155
-171
-196
-228
-262
-294
-320
-337
-345
-342
-329
-308
-281
-250
-218
-187
-159
-138
-123
-117
-118
-128
-146
-170
-200
-233
-269
-305
-337
-364
-383
-392
-389
-374
-347
-311
-269
-226
-188
-160
-146
-149
-169
-204
-250
-301
-348
-385
-407
-409
-392
-359
-314
-265
-219
-182
-159
-151
-159
-180
-209
-242
-275
-302
-322
-333
-334
-328
-316
-300
-282
-265
-251
-244
-245
-256
-277
-307
-343
-381
-414
-437
-446
-436
-407
-362
-307
-249
-197
-158
-137
-136
-154
-186
-224
-261
-290
-306
-306
-291
-266
-235
-204
-179
-165
-164
-175
-198
-230
-265
-300
-330
-352
-362
-360
-344
-317
-280
-238
-196
-160
-135
-125
-134
-161
-204
-258
-316
-370
-413
-441
-451
-443
-418
-384
-346
-309
-279
-258
-249
-251
-261
-277
-293
-308
-319
-324
-324
-319
-310
-296
-277
-255
-231
-206
-182
-161
-145
-137
-140
-154
-178
-208
-243
-277
-307
-329
-342
-346
-341
-332
-319
-308
-300
-296
-297
-301
-305
-306
-302
-291
-273
-248
-219
-190
-162
-139
-125
-122
-128
-145
-169
-196
-223
-246
-264
-276
-280
-279
-275
-272
-270
-272
-276
-281
-284
-283
-274
-256
-232
-206
-183
-168
-168
-184
-218
-265
-319
-373
-418
-446
-452
-436
-400
-352
-300
-252
-215
-195
-191
-201
-219
-237
-250
-251
-238
-213
-180
-144
-113
-94
-91
-106
-136
-179
-228
-278
-321
-352
-368
-369
-355
-331
-299
-265
-231
-202
-178
-160
-149
-144
-146
-153
-164
-179
-195
-212
-226
-236
-241
-240
-231
-217
-199
-180
-164
-153
-148
-149
-156
-166
-176
-183
-187
-185
-178
-169
-160
-155
-156
-164
-178
-197
-218
-236
-248
-251
-245
-229
-209
-187
-168
-158
-158
-171
-194
-222
-250
-272
-285
-283
-268
-240
-203
-165
-131
-107
-98
-102
-118
-141
-165
-186
-197
-199
-191
-177
-162
-149
-143
-146
-158
-176
-195
-212
-223
-225
-217
-201
-181
-159
-141
-128
-122
-122
-128
-137
-147
-156
-162
-165
-164
-160
-154
-147
-139
-133
-131
-134
-143
-158
-181
-209
-238
-264
-284
-293
-290
-276
-254
-229
-206
-191
-188
-198
-219
-245
-269
-285
-287
-271
-239
-194
-141
-90
-48
-21
-10
-16
-32
-54
-75
-89
-91
-82
-63
-38
-13
9
23
28
24
14
1
-12
-24
-31
-37
-41
-45
-51
-60
-72
-86
-100
-110
-114
-112
-105
-92
-77
-61
-48
-37
-32
-29
-27
-25
-21
-12
1
19
39
62
83
102
118
129
135
138
139
141
146
154
166
183
206
231
257
281
299
309
308
294
266
226
175
119
60
6
-42
-81
-109
-127
-137
-141
-143
-144
-147
-150
-154
-157
-157
-156
-153
-150
-150
-156
-171
-193
-221
-252
-279
-297
-300
-286
-253
-205
-149
-92
-43
-9
6
0
-24
-60
-100
-134
-158
-165
-157
-135
-106
-75
-50
-36
-35
-49
-74
-107
-141
-172
-197
-213
-220
-218
-210
-197
-182
-166
-150
-136
-124
-115
-110
-110
-115
-125
-140
-157
-175
-190
-201
-207
-206
-199
-188
-175
-160
-145
-131
-117
-104
-90
-75
-59
-44
-32
-26
-28
-41
-65
-98
-137
-180
-219
-250
-270
-277
-270
-253
-227
-199
-172
-152
-140
-136
-140
-150
-160
-169
-175
-176
-175
-173
-176
-187
-209
-242
-284
-332
-378
-415
-436
-433
-405
-350
-271
-173
-61
60
187
318
454
598
753
922
1106
1304
1513
1729
1946
2158
2361
2551
2722
2873
2998
3093
3150
3161
3119
3016
2851
2628
2354
2043
1714
1386
1079
808
584
409
282
194
135
93
58
23
-15
-57
-98
-133
-158
-171
-171
-158
-136
-108
-78
-49
-22
2
23
42
58
73
86
95
100
99
92
80
65
47
30
16
5
-2
-5
-7
-8
-9
-13
-19
-27
-33
-36
-34
-25
-9
14
40
66
90
108
118
120
116
107
96
85
76
69
66
64
64
63
63
63
65
68
71
75
77
74
65
49
26
-1
-26
-44
-49
-37
-4
46
109
177
239
287
312
311
286
241
183
122
68
26
1
-7
0
19
42
66
88
105
118
128
138
147
157
168
179
188
194
197
196
192
186
176
164
149
132
112
92
74
62
59
67
87
119
158
200
237
264
276
273
256
230
203
184
178
190
219
263
313
362
400
421
421
401
367
324
283
250
232
231
246
271
299
325
343
350
344
331
315
302
296
302
321
350
388
428
466
497
519
531
534
529
518
505
492
480
472
467
466
468
473
480
488
497
507
516
526
537
552
572
599
634
677
724
775
824
867
900
919
926
919
902
881
860
844
836
838
849
868
890
912
932
946
954
959
960
963
967
977
994
1016
1044
1076
1111
1148
1183
1215
1243
1265
1281
1289
1291
1288
1282
1274
1267
1264
1266
1275
1289
1310
1334
1359
1382
1402
1415
1421
1419
1408
1391
1367
1340
1312
1288
1271
1265
1272
1294
1329
1373
1420
1465
1498
1513
1506
1475
1419
1343
1253
1158
1065
984
921
877
853
847
852
863
872
873
862
836
795
742
682
619
558
505
461
429
408
395
387
381
374
361
343
318
287
250
209
166
122
79
40
7
-18
-33
-35
-26
-6
20
49
74
89
89
72
37
-14
-74
-136
-192
-234
-256
-255
-235
-198
-152
-105
-67
-43
-39
-55
-91
-139
-195
-250
-298
-335
-358
-366
-361
-346
-327
-306
-286
-271
-260
-255
-255
-260
-269
-282
-298
-315
-332
-349
-361
-366
-362
-349
-326
-296
-262
-229
-201
-182
-176
-182
-199
-223
-252
-279
-300
-311
-310
-298
-278
-253
-228
-208
-199
-203
-223
-259
-306
-359
-414
-462
-499
-518
-518
-498
-463
-417
-367
-322
-288
-268
-264
-273
-290
-309
-324
-332
-328
-314
-293
-268
-246
-228
-219
-219
-225
-236
-248
-257
-263
-265
-265
-265
-266
-270
-278
-286
-293
-295
-290
-279
-260
-238
-216
-199
-190
-191
-203
-224
-250
-275
-295
-305
-302
-288
-265
-236
-208
-186
-175
-175
-187
-209
-236
-262
-282
-292
-288
-272
-246
-213
-180
-153
-135
-131
-143
-170
-207
-252
-300
-344
-382
-409
-424
-425
-415
-393
-361
-323
-281
-238
-198
-165
-144
-137
-146
-171
-207
-251
-296
-333
-358
-363
-347
-315
-272
-226
-189
-170
-174
-202
-251
-315
-382
-440
-477
-488
-467
-420
-351
-273
-197
-134
-94
-81
-94
-131
-183
-242
-298
-343
-371
-380
-370
-345
-309
-269
-233
-206
-193
-197
-217
-251
-294
-340
-382
-412
-427
-423
-402
-366
-322
-276
-236
-207
-193
-195
-210
-234
-261
-285
-303
-310
-308
-297
-280
-261
-242
-225
-214
-207
-205
-206
-209
-214
-219
-225
-232
-240
-250
-262
-277
-294
-314
-334
-353
-368
-377
-377
-368
-350
-324
-295
-267
-246
-235
-238
-255
-282
-315
-347
-370
-381
-376
-356
-324
-288
-253
-229
-219
-226
-247
-279
-315
-347
-370
-381
-376
-360
-335
-308
-282
-264
-255
-254
-261
-272
-285
-297
-306
-312
-313
-313
-311
-309
-308
-308
-307
-306
-302
-297
-291
-284
-276
-271
-268
-269
-274
-283
-293
-303
-312
-317
-317
-312
-302
-289
-276
-265
-259
-259
-265
-276
-289
-302
-312
-315
-311
-299
-280
-259
-237
-219
-208
-207
-214
-229
-248
-268
-284
-293
-291
-278
-255
-225
-193
-165
-147
-142
-154
-181
-222
-272
-322
-365
-396
-411
-408
-390
-362
-331
-303
-283
-274
-277
-289
-304
-316
-319
-311
-290
-262
-230
-203
-185
-181
-192
-218
-252
-288
-319
-341
-349
-343
-325
-300
-271
-244
-222
-206
-195
-191
-193
-199
-210
-229
-255
-288
-326
-365
-399
-423
-430
-418
-387
-342
-289
-239
-200
-179
-179
-198
-230
-266
-297
-313
-311
-291
-258
-221
-190
-174
-178
-203
-245
-294
-341
-375
-390
-382
-352
-306
-254
-204
-164
-140
-134
-146
-171
-204
-238
-270
-296
-315
-324
-324
-316
-300
-277
-252
-225
-202
-187
-183
-191
-213
-245
-284
-322
-354
-374
-379
-369
-346
-314
-279
-248
-224
-212
-211
-218
-231
-247
-262
-275
-283
-288
-289
-288
-285
-281
-277
-274
-273
-276
-283
-294
-309
-328
-347
-364
-377
-382
-378
-366
-346
-321
-296
-274
-258
-247
-242
-242
-245
-249
-251
-252
-252
-252
-253
-255
-257
-258
-257
-251
-240
-222
-199
-175
-152
-136
-128
-132
-147
-172
-204
-238
-271
-296
-314
-321
-319
-308
-290
-268
-243
-219
-198
-180
-166
-157
-152
-151
-153
-158
-164
-169
-174
-176
-174
-169
-161
-150
-138
-127
-118
-113
-113
-117
-125
-137
-151
-165
-178
-188
-195
-198
-198
-196
-191
-183
-173
-161
-147
-130
-111
-92
-76
-64
-57
-58
-67
-81
-99
-116
-129
-134
-127
-108
-77
-38
5
48
84
110
124
125
114
95
74
54
39
32
32
37
45
50
49
39
19
-10
-45
-82
-116
-145
-164
-174
-175
-171
-167
-168
-177
-195
-223
-258
-295
-328
-352
-362
-356
-331
-293
-244
-193
-146
-109
-88
-85
-100
-130
-170
-212
-251
-278
-291
-287
-267
-235
-198
-164
-139
-129
-137
-163
-205
-255
-307
-352
-384
-398
-392
-367
-327
-277
-224
-173
-130
-99
-81
-78
-87
-109
-139
-178
-221
-267
-312
-354
-390
-416
-432
-435
-428
-410
-387
-360
-335
-314
-300
-292
-290
-291
-293
-293
-287
-275
-258
-238
-218
-203
-195
-197
-208
-228
-253
-278
-299
-313
-317
-309
-291
-266
-236
-206
-178
-156
-140
-132
-132
-140
-155
-177
-203
-233
-264
-295
-325
-350
-371
-386
-397
-403
-405
-404
-399
-389
-372
-347
-311
-262
-200
-121
-27
84
211
356
518
698
894
1104
1324
1549
1771
1986
2186
2369
2530
2667
2781
2871
2936
2973
2975
2936
2851
2715
2527
2289
2013
1711
1401
1101
829
597
411
271
173
108
61
23
-15
-60
-110
-164
-215
-258
-286
-297
-289
-266
-231
-191
-151
-115
-88
-69
-57
-52
-50
-49
-48
-44
-39
-34
-29
-24
-21
-21
-22
-23
-24
-24
-21
-18
-14
-11
-12
-16
-23
-34
-45
-55
-62
-64
-60
-51
-39
-25
-13
-3
4
8
10
12
15
18
19
17
8
-11
-39
-77
-121
-165
-202
-226
-231
-214
-176
-121
-57
9
65
106
127
127
108
76
39
4
-21
-34
-33
-19
3
28
51
66
72
67
54
37
21
10
10
22
45
78
115
150
178
194
196
186
164
135
105
80
61
52
49
52
56
58
57
50
41
33
29
35
52
79
112
149
181
202
207
194
166
126
82
43
18
14
33
75
133
199
263
312
339
338
306
249
175
96
26
-24
-45
-32
13
84
170
260
342
404
442
455
447
424
397
372
357
354
365
384
406
424
433
430
415
391
363
336
317
313
324
353
396
449
505
560
607
643
664
670
663
644
619
590
563
543
534
538
555
585
626
674
724
771
810
839
855
859
854
842
829
820
817
825
842
866
895
923
946
962
969
969
965
963
967
981
1010
1053
1107
1166
1222
1269
1300
1311
1303
1277
1242
1203
1170
1148
1141
1150
1172
1204
1241
1277
1309
1334
1353
1365
1372
1377
1380
1381
1380
1376
1368
1354
1334
1311
1287
1264
1243
1225
1212
1203
1197
1192
1186
1176
1161
1142
1117
1086
1052
1015
978
941
907
877
850
827
806
786
763
735
700
658
610
557
504
455
412
377
352
334
321
309
294
274
246
212
173
134
98
68
47
33
25
19
14
6
-6
-22
-41
-60
-77
-90
-97
-99
-98
-97
-100
-107
-120
-139
-162
-188
-211
-231
-243
-247
-245
-237
-229
-223
-223
-230
-246
-269
-295
-320
-341
-352
-352
-340
-319
-292
-265
-244
-234
-238
-256
-286
-324
-365
-403
-433
-451
-457
-451
-436
-415
-391
-367
-343
-319
-294
-267
-238
-207
-177
-152
-136
-133
-146
-173
-213
-261
-310
-354
-387
-405
-408
-397
-377
-354
-334
-322
-321
-331
-351
-375
-398
-415
-420
-411
-389
-354
-313
-272
-236
-212
-204
-213
-238
-276
-323
-371
-415
-450
-471
-476
-466
-443
-410
-373
-335
-302
-277
-263
-262
-272
-293
-322
-355
-388
-416
-435
-444
-439
-421
-391
-354
-314
-275
-242
-219
-207
-205
-213
-227
-242
-256
-267
-273
-276
-276
-276
-277
-280
-286
-294
-301
-305
-304
-297
-285
-270
-255
-244
-240
-245
-259
-280
-304
-327
-346
-356
-358
-351
-336
-318
-301
-286
-276
-271
-271
-274
-278
-283
-287
-293
-301
-313
-328
-348
-370
-390
-406
-412
-405
-384
-351
-308
-261
-217
-180
-156
-146
-149
-162
-180
-197
-210
-214
-208
-194
-176
-161
-155
-161
-183
-221
-271
-328
-384
-431
-462
-474
-464
-436
-393
-343
-293
-250
-221
-207
-208
-223
-247
-275
-301
-322
-336
-341
-338
-331
-322
-315
-312
-316
-327
-346
-370
-398
-427
-453
-474
-487
-489
-480
-459
-427
-386
-339
-293
-250
-216
-195
-188
-196
-216
-243
-272
-297
-313
-315
-304
-281
-250
-218
-193
-179
-183
-203
-238
-282
-328
-368
-395
-404
-394
-368
-329
-288
-250
-221
-208
-211
-228
-255
-286
-317
-342
-357
-361
-357
-346
-334
-322
-312
-307
-303
-301
-297
-290
-276
-259
-238
-218
-201
-190
-189
-199
-220
-250
-286
-322
-354
-378
-391
-394
-385
-368
-348
-326
-308
-295
-289
-288
-291
-293
-293
-288
-279
-265
-251
-239
-234
-238
-251
-274
-303
-332
-357
-372
-376
-368
-350
-326
-301
-280
-267
-265
-273
-288
-307
-326
-340
-345
-341
-328
-308
-286
-263
-243
-225
-211
-200
-190
-179
-168
-157
-148
-143
-144
-154
-173
-200
-234
-269
-302
-326
-340
-340
-326
-301
-270
-237
-210
-193
-191
-204
-233
-273
-320
-366
-403
-428
-434
-422
-391
-347
-295
-242
-195
-159
-138
-133
-143
-164
-191
-219
-243
-258
-262
-255
-238
-214
-186
-159
-138
-124
-119
-125
-141
-165
-194
-226
-256
-282
-303
-318
-327
-332
-334
-335
-337
-341
-347
-353
-358
-361
-359
-352
-338
-319
-295
-268
-241
-213
-186
-162
-140
-122
-109
-101
-102
-113
-134
-167
-209
-257
-306
-351
-388
-412
-420
-412
-389
-355
-314
-273
-234
-200
-176
-159
-151
-149
-153
-161
-171
-185
-200
-217
-234
-249
-262
-270
-273
-270
-260
-246
-229
-209
-190
-172
-157
-148
-144
-146
-153
-165
-180
-197
-212
-223
-228
-226
-216
-202
-185
-170
-163
-166
-181
-208
-241
-275
-301
-314
-307
-282
-238
-184
-128
-81
-53
-47
-65
-102
-150
-199
-237
-256
-253
-229
-189
-143
-101
-74
-67
-82
-116
-163
-212
-256
-287
-299
-292
-271
-242
-211
-186
-171
-169
-178
-195
-216
-234
-247
-251
-243
-225
-198
-163
-124
-84
-45
-11
15
31
34
24
0
-34
-76
-119
-157
-185
-198
-193
-170
-132
-84
-32
16
56
84
96
93
76
48
14
-21
-55
-83
-102
-111
-108
-94
-70
-38
-1
37
70
96
111
115
106
88
65
41
22
13
15
28
52
81
113
141
161
173
176
171
160
144
127
108
89
69
49
26
1
-25
-51
-75
-95
-110
-119
-121
-118
-111
-100
-88
-78
-68
-61
-57
-57
-61
-70
-84
-102
-125
-148
-170
-188
-200
-203
-198
-186
-171
-154
-141
-133
-133
-139
-151
-165
-178
-187
-191
-190
-186
-182
-180
-184
-194
-211
-230
-248
-259
-259
-246
-218
-180
-137
-96
-66
-55
-65
-97
-146
-204
-262
-309
-339
-345
-328
-290
-240
-187
-141
-110
-98
-107
-131
-166
-204
-237
-259
-268
-264
-251
-232
-214
-199
-190
-187
-187
-187
-183
-174
-160
-142
-122
-102
-86
-77
-75
-79
-87
-96
-104
-111
-114
-116
-119
-123
-131
-144
-161
-181
-202
-222
-238
-249
-254
-253
-249
-244
-240
-240
-243
-250
-259
-267
-269
-263
-245
-212
-162
-93
-5
105
235
384
551
735
932
1139
1351
1562
1767
1962
2143
2306
2449
2570
2667
2740
2785
2797
2772
2705
2594
2438
2238
2000
1735
1457
1180
917
683
484
328
211
130
76
40
12
-16
-49
-90
-137
-186
-233
-271
-296
-305
-297
-274
-239
-195
-149
-105
-66
-35
-12
3
13
18
21
23
26
30
35
40
44
47
49
49
50
51
53
56
58
59
58
52
42
27
9
-12
-33
-50
-62
-66
-61
-48
-27
-2
24
46
63
73
73
66
53
38
25
15
13
19
30
43
55
63
63
56
43
28
14
6
5
11
23
36
45
47
37
17
-11
-40
-66
-80
-78
-61
-28
15
59
96
118
124
111
84
50
17
-7
-18
-12
10
44
83
122
152
172
181
179
171
162
156
157
165
180
197
214
226
231
226
213
195
174
156
143
139
143
155
173
193
212
227
236
239
237
231
224
218
215
214
217
221
225
229
231
231
227
222
216
211
206
203
200
199
200
202
205
212
224
240
262
287
315
343
367
385
396
398
394
385
376
369
368
375
391
415
443
472
499
521
539
550
558
563
569
576
587
601
618
636
655
673
692
711
733
756
782
808
834
856
874
884
886
882
872
861
850
843
841
845
853
863
874
884
893
902
913
927
948
976
1011
1051
1092
1132
1166
1190
1204
1208
1203
1192
1178
1164
1154
1150
1153
1163
1181
1206
1237
1272
1309
1346
1380
1406
1421
1423
1411
1387
1352
1313
1275
1245
1226
1223
1236
1261
1295
1329
1355
1367
1359
1329
1279
1215
1144
1074
1015
973
951
950
966
994
1024
1048
1059
1050
1020
969
902
825
746
673
612
566
538
526
525
531
537
538
528
505
467
415
353
284
214
151
98
60
39
35
45
66
91
113
126
126
109
76
29
-25
-83
-137
-183
-217
-238
-247
-247
-240
-232
-225
-221
-221
-224
-229
-232
-233
-230
-225
-218
-212
-209
-211
-219
-235
-257
-285
-315
-345
-370
-390
-401
-402
-394
-377
-352
-324
-293
-263
-238
-219
-210
-211
-222
-243
-271
-303
-335
-362
-383
-393
-391
-378
-356
-329
-302
-278
-261
-255
-259
-273
-295
-319
-342
-361
-372
-375
-369
-356
-340
-324
-313
-308
-312
-324
-340
-359
-375
-385
-386
-376
-356
-330
-302
-275
-255
-246
-249
-263
-285
-311
-335
-353
-360
-356
-342
-321
-298
-277
-263
-257
-260
-270
-284
-298
-308
-314
-314
-309
-303
-298
-297
-302
-312
-327
-343
-358
-368
-373
-373
-366
-357
-346
-336
-328
-322
-320
-318
-316
-315
-314
-314
-317
-323
-333
-345
-359
-372
-379
-380
-371
-353
-326
-295
-262
-233
-211
-199
-196
-202
-215
-232
-250
-268
-285
-302
-319
-336
-354
-371
-385
-394
-394
-383
-361
-329
-291
-252
-217
-193
-182
-185
-202
-228
-257
-284
-303
-310
-302
-282
-253
-219
-187
-162
-149
-151
-168
-198
-238
-282
-324
-358
-380
-387
-378
-356
-324
-288
-252
-223
-205
-200
-208
-226
-250
-276
-301
-320
-333
-340
-344
-347
-351
-358
-369
-381
-391
-397
-394
-382
-360
-330
-296
-264
-238
-223
-220
-230
-252
-281
-314
-346
-374
-395
-408
-413
-410
-402
-390
-373
-354
-333
-311
-289
-271
-258
-254
-260
-276
-303
-337
-373
-406
-431
-441
-435
-411
-371
-320
-262
-206
-159
-127
-113
-118
-142
-181
-228
-278
-323
-358
-380
-387
-381
-365
-342
-318
-297
-283
-276
-278
-285
-295
-304
-310
-312
-308
-299
-287
-274
-262
-253
-248
-246
-249
-255
-265
-278
-292
-309
-327
-343
-355
-362
-360
-350
-330
-303
-273
-244
-219
-201
-194
-197
-209
-227
-249
-270
-289
-306
-322
-335
-348
-361
-371
-378
-379
-371
-354
-330
-303
-279
-263
-260
-273
-301
-339
-380
-416
-438
-440
-423
-389
-347
-308
-281
-276
-297
-341
-402
-467
-524
-560
-565
-535
-474
-389
-293
-199
-121
-68
-45
-53
-86
-136
-193
-245
-286
-309
-315
-304
-283
-255
-229
-209
-197
-195
-203
-219
-239
-260
-278
-290
-297
-297
-292
-284
-276
-270
-267
-270
-276
-285
-292
-296
-292
-280
-259
-231
-200
-171
-149
-138
-143
-164
-198
-241
-287
-331
-365
-387
-392
-382
-359
-327
-291
-255
-223
-201
-188
-186
-195
-212
-233
-256
-277
-294
-303
-305
-298
-282
-262
-241
-221
-206
-199
-201
-211
-228
-249
-270
-286
-294
-291
-276
-249
-213
-173
-133
-100
-79
-73
-84
-111
-153
-203
-257
-309
-353
-384
-399
-398
-382
-353
-317
-278
-240
-208
-183
-168
-163
-167
-178
-193
-211
-229
-244
-254
-258
-253
-239
-217
-190
-161
-132
-110
-99
-101
-116
-144
-181
-225
-269
-307
-335
-351
-355
-348
-332
-312
-290
-270
-251
-235
-220
-204
-184
-160
-134
-107
-84
-70
-68
-81
-111
-155
-209
-266
-318
-358
-379
-378
-355
-314
-263
-209
-162
-128
-113
-118
-140
-172
-208
-239
-259
-265
-255
-232
-199
-162
-126
-94
-69
-51
-38
-30
-26
-26
-29
-36
-51
-72
-98
-125
-149
-166
-171
-162
-139
-103
-61
-19
16
39
46
37
13
-22
-60
-97
-126
-145
-153
-149
-136
-116
-92
-66
-40
-15
7
26
40
51
55
55
49
39
27
13
1
-9
-14
-13
-6
8
26
49
74
99
124
144
160
170
174
169
156
135
105
68
24
-23
-72
-118
-160
-193
-215
-224
-219
-205
-185
-162
-143
-131
-130
-139
-158
-183
-209
-230
-243
-246
-239
-224
-204
-183
-166
-156
-152
-154
-158
-162
-164
-161
-155
-146
-139
-135
-138
-147
-163
-181
-200
-213
-219
-215
-201
-180
-155
-132
-114
-107
-111
-128
-155
-190
-228
-265
-298
-322
-337
-341
-336
-323
-305
-283
-261
-243
-230
-224
-226
-234
-246
-259
-270
-275
-272
-258
-235
-205
-170
-137
-110
-95
-93
-106
-130
-163
-196
-226
-245
-249
-239
-215
-183
-149
-120
-104
-105
-123
-157
-203
-252
-298
-330
-344
-338
-310
-265
-211
-155
-108
-74
-60
-67
-94
-137
-191
-250
-308
-360
-403
-434
-453
-458
-450
-429
-395
-346
-280
-198
-97
23
162
320
492
679
874
1075
1277
1479
1679
1876
2070
2261
2449
2631
2803
2957
3082
3166
3195
3160
3053
2872
2622
2317
1974
1614
1262
937
658
432
264
148
77
37
15
0
-19
-45
-81
-125
-172
-217
-256
-282
-294
-290
-269
-232
-182
-122
-57
9
69
118
153
171
172
158
134
106
79
59
49
50
59
74
86
93
91
79
57
31
6
-11
-17
-9
14
45
79
110
129
133
120
92
54
14
-24
-53
-71
-79
-80
-78
-78
-83
-94
-108
-121
-127
-122
-105
-75
-37
4
39
63
71
64
44
17
-8
-23
-25
-10
20
59
99
133
156
163
156
137
113
89
71
64
67
81
100
120
137
145
144
133
114
89
62
38
20
11
11
23
43
71
102
132
158
176
182
177
161
138
113
90
75
71
79
99
129
165
201
234
260
276
282
279
269
254
235
215
195
178
164
156
155
163
179
200
227
254
279
299
310
312
306
295
279
263
247
235
226
221
220
222
228
238
255
277
307
342
380
416
447
468
477
474
460
442
424
413
413
426
452
487
524
557
580
589
585
570
549
529
516
516
530
557
594
635
673
703
725
738
744
748
754
767
789
820
856
892
923
944
953
947
932
911
890
877
874
885
909
944
983
1024
1060
1089
1111
1126
1136
1144
1153
1164
1178
1194
1212
1229
1243
1255
1264
1272
1279
1287
1298
1310
1322
1333
1342
1346
1344
1336
1321
1303
1283
1263
1247
1238
1237
1247
1268
1299
1337
1380
1422
1457
1480
1488
1479
1450
1406
1348
1282
1216
1156
1107
1072
1052
1045
1048
1055
1062
1064
1056
1038
1007
967
919
866
811
758
706
658
612
570
530
494
462
433
408
388
372
357
343
325
303
274
239
199
156
114
76
47
26
15
11
13
15
14
9
-1
-15
-31
-43
-51
-50
-43
-32
-19
-11
-14
-30
-61
-106
-159
-214
-266
-305
-328
-332
-320
-294
-261
-227
-199
-180
-174
-179
-195
-219
-247
-276
-304
-328
-348
-363
-373
-380
-383
-382
-377
-368
-356
-340
-322
-300
-277
-254
-233
-213
-199
-190
-190
-198
-214
-238
-268
-299
-328
-352
-367
-372
-366
-353
-334
-316
-303
-297
-301
-314
-335
-358
-378
-392
-394
-384
-362
-331
-295
-259
-228
-206
-196
-197
-209
-228
-251
-274
-294
-308
-314
-312
-305
-294
-282
-274
-272
-278
-294
-318
-347
-377
-403
-418
-419
-402
-367
-316
-255
-191
-132
-88
-65
-66
-92
-140
-202
-268
-331
-381
-413
-422
-409
-379
-337
-289
-245
-209
-185
-176
-179
-193
-213
-235
-256
-273
-284
-290
-290
-288
-285
-283
-284
-289
-297
-308
-320
-332
-341
-346
-343
-333
-316
-295
-270
-247
-228
-219
-220
-233
-255
-280
-306
-327
-337
-332
-312
-278
-236
-193
-154
-129
-123
-137
-171
-222
-281
-342
-395
-433
-451
-447
-424
-386
-340
-294
-255
-227
-214
-215
-229
-251
-276
-300
-318
-329
-332
-327
-317
-304
-290
-277
-267
-259
-255
-253
-254
-257
-262
-269
-277
-286
-294
-301
-305
-303
-297
-285
-269
-252
-235
-222
-216
-219
-232
-253
-280
-311
-341
-366
-382
-387
-380
-362
-335
-303
-270
-240
-217
-205
-204
-215
-234
-261
-292
-324
-355
-381
-402
-417
-426
-428
-423
-413
-399
-381
-362
-344
-329
-319
-314
-314
-318
-323
-327
-328
-323
-313
-298
-282
-267
-258
-255
-260
-272
-289
-308
-325
-338
-346
-349
-346
-341
-335
-330
-325
-319
-313
-304
-294
-283
-274
-269
-272
-284
-306
-334
-365
-392
-410
-412
-399
-370
-330
-285
-243
-211
-196
-199
-220
-252
-289
-323
-347
-356
-348
-326
-297
-267
-246
-240
-253
-285
-334
-393
-453
-504
-539
-551
-539
-502
-445
-377
-305
-239
-184
-147
-129
-129
-144
-170
-202
-234
-264
-289
-310
-325
-338
-347
-355
-361
-365
-368
-369
-369
-370
-372
-375
-381
-387
-392
-393
-388
-374
-350
-318
-281
-244
-211
-188
-178
-183
-203
-233
-270
-307
-338
-361
-372
-374
-366
-353
-339
-326
-315
-307
-301
-296
-290
-282
-274
-267
-264
-267
-278
-296
-320
-346
-370
-385
-388
-377
-352
-318
-279
-243
-216
-203
-205
-220
-245
-273
-298
-314
-316
-305
-284
-256
-230
-210
-202
-208
-227
-256
-287
-314
-332
-336
-323
-295
-257
-214
-174
-142
-124
-122
-135
-163
-201
-244
-286
-323
-350
-367
-373
-370
-360
-344
-327
-309
-294
-280
-270
-261
-255
-250
-246
-244
-245
-249
-257
-271
-289
-311
-335
-361
-386
-407
-422
-430
-429
-421
-406
-386
-362
-337
-312
-290
-270
-253
-240
-231
-226
-226
-230
-238
-250
-265
-282
-301
-318
-333
-344
-350
-349
-343
-332
-315
-295
-273
-250
-227
-208
-194
-185
-184
-190
-203
-221
-241
-261
-276
-285
-285
-276
-258
-236
-214
-196
-187
-190
-207
-236
-274
-316
-356
-387
-403
-401
-381
-346
-298
-245
-193
-150
-122
-113
-123
-151
-192
-241
-290
-331
-359
-370
-362
-338
-301
-258
-215
-180
-158
-150
-158
-179
-209
-240
-267
-285
-291
-283
-262
-231
-195
-159
-127
-103
-90
-90
-101
-121
-147
-175
-201
-221
-232
-230
-216
-191
-157
-118
-81
-53
-37
-36
-52
-81
-119
-159
-194
-216
-222
-209
-182
-147
-110
-79
-63
-63
-80
-110
-146
-177
-197
-199
-181
-145
-97
-45
3
37
53
49
29
-3
-38
-69
-87
-90
-75
-45
-6
39
83
121
148
165
170
164
149
127
99
67
31
-7
-45
-83
-118
-149
-171
-184
-189
-184
-174
-161
-148
-140
-138
-143
-155
-173
-194
-215
-231
-241
-245
-242
-234
-224
-215
-209
-207
-210
-218
-230
-244
-257
-268
-276
-280
-282
-280
-277
-273
-268
-263
-257
-250
-241
-231
-220
-210
-202
-196
-195
-199
-209
-221
-234
-245
-250
-246
-233
-210
-181
-151
-123
-106
-102
-116
-147
-192
-246
-302
-351
-388
-407
-407
-390
-361
-324
-287
-254
-230
-216
-211
-212
-215
-218
-218
-216
-211
-206
-204
-205
-211
-221
-233
-245
-255
-260
-260
-253
-243
-231
-219
-210
-205
-203
-204
-206
-208
-209
-207
-202
-196
-190
-187
-188
-196
-212
-235
-265
-298
-333
-366
-395
-416
-428
-429
-420
-400
-373
-338
-298
-252
-198
-134
-57
39
158
302
472
665
877
1100
1326
1549
1760
1956
2136
2301
2452
2591
2720
2835
2931
2999
3027
3005
2925
2782
2578
2320
2024
1707
1390
1089
820
592
407
263
154
73
10
-41
-86
-125
-160
-190
-213
-227
-234
-232
-222
-205
-181
-151
-115
-75
-32
9
45
71
85
86
72
48
19
-9
-32
-46
-49
-42
-31
-19
-12
-13
-23
-41
-64
-86
-104
-112
-108
-92
-65
-31
6
42
74
99
113
118
114
100
80
53
24
-5
-32
-53
-67
-72
-67
-55
-36
-14
7
25
38
44
45
40
32
23
16
11
8
8
9
10
10
8
5
0
-6
-13
-21
-28
-34
-37
-38
-35
-29
-19
-6
8
23
37
49
59
66
72
75
78
80
82
85
87
88
87
85
80
73
64
55
46
39
36
37
43
55
72
93
118
144
169
190
205
212
210
200
182
160
135
113
96
87
87
99
120
148
182
216
250
280
304
322
333
338
337
333
325
313
300
284
266
246
224
204
187
173
165
164
170
183
201
223
247
271
295
318
341
366
392
421
450
476
496
507
504
487
455
415
371
334
312
311
337
390
463
550
639
717
775
806
809
789
753
712
677
659
661
684
722
769
813
845
859
854
830
796
760
732
719
728
759
809
871
938
1002
1055
1095
1120
1134
1138
1136
1132
1129
1126
1123
1119
1112
1101
1090
1079
1072
1072
1081
1101
1130
1165
1203
1240
1273
1297
1314
1322
1325
1324
1322
1320
1320
1321
1322
1323
1322
1320
1317
1313
1311
1309
1310
1310
1309
1305
1295
1278
1251
1212
1164
1107
1045
979
914
852
797
749
712
687
673
670
675
684
693
698
694
677
645
600
543
480
416
358
312
279
261
254
254
254
248
233
204
164
116
65
18
-19
-43
-52
-49
-37
-22
-10
-5
-10
-26
-50
-79
-109
-135
-153
-165
-171
-173
-174
-179
-188
-202
-220
-238
-254
-264
-265
-260
-250
-238
-228
-226
-236
-257
-288
-326
-365
-399
-425
-440
-441
-432
-416
-396
-378
-367
-363
-368
-378
-391
-404
-414
-419
-417
-410
-399
-385
-372
-363
-358
-358
-365
-377
-395
-415
-436
-455
-470
-478
-479
-470
-453
-430
-403
-377
-354
-338
-330
-330
-335
-344
-354
-362
-366
-366
-363
-359
-356
-356
-360
-367
-376
-384
-388
-388
-382
-373
-362
-355
-354
-363
-382
-409
-440
-470
-492
-500
-491
-465
-422
-370
-314
-264
-228
-210
-214
-238
-279
-330
-381
-426
-458
-473
-471
-455
-429
-400
-373
-353
-343
-343
-351
-364
-378
-389
-394
-392
-383
-371
-358
-348
-343
-344
-351
-362
-375
-386
-391
-388
-376
-357
-333
-309
-291
-282
-286
-302
-331
-368
-407
-443
-469
-480
-474
-452
-418
-378
-337
-304
-281
-272
-278
-294
-317
-342
-364
-380
-388
-387
-380
-369
-357
-347
-340
-337
-339
-342
-346
-349
-347
-338
-324
-305
-282
-259
-240
-229
-230
-243
-271
-309
-355
-402
-445
-479
-497
-499
-486
-462
-433
-404
-381
-367
-362
-365
-372
-378
-378
-369
-352
-329
-304
-285
-278
-285
-310
-351
-402
-457
-511
-556
-588
-604
-603
-589
-564
-533
-497
-461
-426
-394
-366
-344
-329
-324
-328
-339
-357
-376
-394
-406
-408
-398
-378
-350
-321
-295
-279
-276
-289
-315
-352
-395
-435
-469
-492
-502
-501
-491
-476
-461
-449
-443
-444
-448
-454
-459
-460
-454
-443
-428
-413
-399
-392
-393
-402
-421
-447
-477
-508
-538
-562
-580
-588
-587
-574
-550
-515
-470
-419
-365
-314
-274
-249
-244
-262
-300
-356
-420
-484
-537
-571
-583
-571
-539
-495
-447
-406
-377
-365
-369
-385
-408
-430
-448
-457
-457
-451
-444
-441
-445
-459
-482
-510
-539
-561
-573
-572
-557
-531
-497
-461
-427
-399
-380
-370
-369
-373
-381
-389
-398
-404
-410
-415
-420
-425
-431
-435
-437
-435
-429
-416
-399
-379
-357
-339
-325
-319
-322
-334
-354
-379
-406
-433
-458
-478
-493
-503
-511
-515
-516
-513
-508
-498
-483
-464
-443
-424
-408
-398
-396
-400
-411
-426
-440
-451
-455
-454
-448
-439
-432
-429
-434
-445
-460
-475
-487
-490
-483
-464
-436
-405
-377
-358
-353
-367
-397
-440
-490
-540
-581
-608
-616
-604
-575
-532
-482
-430
-383
-346
-322
-309
-308
-314
-324
-335
-346
-355
-363
-369
-377
-385
-396
-407
-418
-426
-428
-423
-411
-393
-371
-349
-333
-324
-325
-334
-350
-368
-386
-398
-402
-399
-391
-382
-375
-375
-385
-405
-432
-462
-489
-508
-516
-509
-490
-462
-428
-396
-367
-345
-331
-323
-319
-318
-318
-322
-329
-342
-362
-389
-421
-455
-484
-503
-508
-497
-470
-433
-390
-351
-321
-307
-308
-324
-349
-376
-401
-418
-426
-426
-420
-414
-411
-415
-426
-444
-465
-486
-502
-511
-510
-499
-480
-456
-428
-400
-372
-347
-324
-306
-292
-285
-287
-296
-313
-337
-363
-388
-407
-417
-415
-401
-378
-349
-318
-291
-270
-258
-253
-253
-255
-255
-251
-242
-228
-213
-202
-196
-199
-211
-233
-260
-288
-312
-329
-333
-326
-307
-279
-246
-214
-186
-166
-156
-156
-163
-176
-191
-204
-213
-214
-206
-190
-167
-139
-110
-84
-64
-51
-47
-52
-65
-82
-101
-120
-135
-146
-154
-161
-170
-184
-207
-239
-280
-330
-384
-438
-486
-526
-554
-568
-570
-559
-539
-513
-485
-456
-431
-410
-396
-388
-388
-393
-404
-417
-431
-443
-449
-449
-441
-427
-409
-393
-380
-375
-381
-397
-422
-451
-481
-505
-522
-527
-521
-506
-486
-464
-446
-434
-431
-435
-446
-460
-473
-482
-486
-483
-476
-466
-456
-448
-444
-445
-450
-456
-462
-464
-459
-449
-432
-411
-388
-369
-355
-349
-353
-365
-383
-403
-423
-439
-448
-449
-445
-438
-433
-431
-437
-453
-477
-508
-540
-568
-587
-591
-579
-549
-505
-450
-391
-336
-292
-265
-257
-269
-297
-337
-380
-420
-452
-470
-473
-463
-443
-419
-397
-383
-382
-394
-420
-457
-500
-543
-580
-606
-617
-611
-586
-544
-485
-410
-321
-219
-103
27
172
332
507
695
895
1106
1322
1541
1757
1966
2165
2347
2507
2637
2731
2781
2780
2722
2603
2425
2191
1912
1601
1273
948
644
375
151
-22
-144
-222
-266
-287
-299
-310
-328
-356
-393
-435
-477
-512
-535
-542
-532
-507
-470
-424
-376
-330
-289
-258
-237
-226
-223
-228
-239
-254
-272
-291
-308
-323
-335
-342
-343
-337
-323
-304
-280
-255
-230
-209
-194
-188
-188
-195
-206
-218
-228
-233
-233
-228
-220
-214
-211
-212
-220
-231
-245
-256
-260
-257
-244
-223
-196
-168
-143
-126
-119
-122
-135
-155
-178
-201
-221
-236
-246
-251
-250
-245
-236
-225
-210
-195
-179
-166
-158
-159
-168
-187
-215
-247
-278
-302
-313
-308
-285
-246
-198
-146
-100
-68
-54
-61
-87
-128
-176
-223
-262
-286
-295
-288
-270
-244
-218
-196
-180
-173
-172
-176
-180
-182
-181
-174
-162
-146
-129
-112
-97
-84
-73
-64
-57
-51
-46
-43
-42
-45
-51
-60
-69
-78
-82
-80
-71
-55
-34
-9
15
36
51
57
55
45
30
11
-8
-24
-35
-37
-31
-17
6
36
72
110
147
179
203
218
220
211
194
171
150
133
127
134
154
185
224
265
302
330
345
346
334
313
287
263
244
236
240
256
283
317
353
388
420
444
462
473
481
488
498
513
535
564
600
642
685
726
762
788
803
805
796
778
754
727
703
684
673
671
679
695
718
746
778
812
846
879
909
935
956
969
975
974
968
958
949
944
944
951
967
991
1019
1050
1079
1105
1125
1139
1146
1149
1147
1143
1137
1129
1118
1103
1083
1057
1028
995
962
930
900
876
856
840
826
813
798
