-250
-70
-438
-409
39
-21
-224
-228
-117
-244
-274
-51
-247
-291
-40
-24
-183
-258
-133
-199
-338
-158
-172
-180
67
-36
-162
-90
95
225
45
-71
-35
68
247
227
54
96
94
-111
129
302
-107
-308
-92
-11
-262
-351
-217
-281
-376
-208
-285
-421
-164
-84
-335
-276
269
887
1779
2832
2930
2211
1189
137
-113
124
232
-22
-186
-33
-159
-212
-31
-45
-159
-163
-174
-286
-227
-19
-74
-277
-169
-175
-428
-227
69
-24
-78
-24
-23
-85
-19
60
-34
12
144
12
-108
206
257
39
156
261
184
260
474
362
328
530
392
306
551
623
458
514
555
363
322
233
64
149
61
-146
-135
-101
1
-131
-247
-34
-34
-289
-180
-31
-256
-186
-27
-213
-237
-118
-196
-287
-267
-277
-318
-154
79
-135
-390
-167
-80
-143
-19
20
-189
-309
-144
-166
-243
-43
-164
-312
16
-30
-248
-86
-168
-332
-204
-21
6
-188
-170
-53
-267
-251
-45
-160
-312
-155
-133
-315
-123
-13
-114
-128
-110
-250
-290
-126
-218
-282
-56
66
-208
-252
-32
-163
-379
-151
85
-154
-176
-67
-378
-306
19
-137
-218
12
-64
-268
-62
-64
-270
-67
115
-1
-61
95
68
-133
142
320
150
180
160
48
40
77
97
102
133
32
-158
-135
-164
-384
-303
-107
-124
-176
-251
-275
-255
-147
46
-135
-197
486
1365
2349
2962
2242
892
-1
-93
69
-53
-31
-2
-101
-72
-143
-137
-61
-116
-316
-313
22
-102
-289
-110
-100
-244
-202
30
-39
-154
-50
-225
-298
57
1
-207
127
76
-180
94
255
-18
-66
160
264
110
176
390
52
145
592
447
160
238
486
390
336
513
323
291
427
129
4
182
153
-32
10
48
-207
-312
-115
-34
-185
-210
-66
-211
-377
-213
-288
-324
27
80
-311
-344
-103
-279
-256
-52
-170
-164
-143
-252
-281
-97
-138
-429
-133
62
-177
-193
-29
-22
-385
-356
48
-93
-285
-160
-146
-202
-99
-194
-399
-189
-107
-271
-209
-155
-239
-235
-97
-93
-342
-362
-176
-184
-262
-280
-274
-277
-229
-93
-225
-267
-133
-358
-297
-24
-164
-392
-291
-259
-431
-137
-15
-216
-189
-170
-218
-337
-178
-114
-237
-95
13
-210
-140
207
-13
-112
234
245
26
98
96
-83
13
212
-65
-306
17
-110
-447
-169
-213
-486
-172
-84
-386
-338
-176
-213
-387
-251
-74
35
877
1980
2608
2675
1856
487
-184
-112
32
56
96
33
-309
-316
-101
-193
-302
-152
-35
-363
-340
-62
-159
-130
-141
-204
-186
-85
-42
-315
-287
-9
-236
-235
238
137
-233
-82
32
-77
35
204
146
-39
100
204
92
203
368
310
308
465
413
269
497
645
266
380
602
245
221
437
235
-102
5
112
-132
-60
-28
-405
-299
20
-90
-205
-188
-180
-211
-208
-209
-315
-303
-78
-134
-341
-248
-176
-316
-220
-77
-206
-181
-52
-189
-349
-188
-116
-272
-158
-41
-295
-171
53
-194
-196
-122
-318
-250
43
-20
-341
-271
-171
-201
-181
-252
-170
-150
-154
-198
-329
-176
-112
-356
-300
-107
-284
-256
-54
-136
-272
-233
-130
-174
-317
-236
22
-141
-337
-215
-315
-385
-25
9
-323
-191
-61
-241
-124
0
-368
-421
-33
-65
-157
-51
-246
-377
-50
104
-99
-224
67
256
-26
55
281
57
129
328
23
-44
192
133
-16
23
-135
-395
-256
-121
-192
-238
-95
-160
-346
-179
-94
-241
-322
-144
-199
103
1276
2192
2828
2872
1771
476
65
395
245
14
146
-66
-162
-127
-254
-285
-212
-270
-239
-41
38
-76
-229
-66
-94
-285
-132
-18
-107
-210
-280
-109
-95
-65
113
1
123
143
-159
21
266
8
-18
179
234
255
158
335
339
237
570
528
453
650
506
402
502
545
463
333
400
352
202
331
284
-34
-30
48
-45
-80
-216
-350
-151
156
29
-364
-308
22
-81
-186
-105
-276
-205
-48
-139
-227
-218
-81
-165
-368
-153
-103
-246
-96
-145
-215
-25
22
-222
-158
-14
-215
-213
-111
-95
-153
-117
10
-123
-194
-214
-238
-223
-129
71
-115
-98
-8
-440
-375
77
-101
-306
-15
-60
-298
-198
-101
-192
-258
-70
-32
-272
-311
-81
-79
-105
-68
-243
-153
-24
-230
-316
-88
-51
-319
-93
23
-431
-258
95
-94
-287
-162
-14
-199
-241
-61
-74
-142
-23
17
-59
89
139
-109
1
366
89
-33
258
94
82
272
184
61
63
92
-124
-329
-177
-306
-397
-89
-189
-392
-229
-129
-157
-151
-146
-117
-45
683
1680
2370
3011
2744
1282
203
284
319
86
109
18
-168
-124
-173
-290
-131
-98
-249
-198
-72
-80
-159
-142
-133
-284
-144
145
-27
-195
-107
-56
31
-144
-185
-14
-49
194
220
-45
71
102
103
310
305
165
202
238
119
356
626
424
375
614
603
393
466
639
592
443
284
377
415
211
122
64
-10
45
61
-72
-44
-42
-189
-123
-10
-319
-421
-74
-171
-269
-104
-104
-186
-181
-101
-306
-277
27
-66
-165
-263
-280
-281
-262
4
-61
-160
-28
-80
-142
-44
-129
-321
-320
-119
-30
-203
-42
-132
-418
-40
77
-180
-62
-33
-242
-223
-131
-197
-222
-224
-271
-246
-101
74
-54
-222
-185
-173
-210
-111
-54
-214
-174
-87
-207
-167
-132
-142
-152
-112
27
-116
-145
-22
-323
-357
-67
-89
-173
-96
-81
-51
18
-4
-99
-311
-168
17
-98
-18
89
23
-35
71
222
267
332
24
-96
255
293
121
47
72
-79
-106
-35
-248
-338
-183
-99
-195
-273
-187
-231
-178
41
-82
-296
-131
543
1508
2566
3254
2784
1423
278
81
210
120
61
-97
-58
190
-32
-348
-188
-120
-118
80
-88
-428
-228
66
-81
-225
2
118
-161
-206
-3
-113
-40
127
-158
-236
145
187
-59
-23
104
29
118
290
106
207
443
340
206
475
508
63
447
628
282
475
585
550
410
448
522
288
251
272
172
13
15
17
-112
-2
2
-250
-226
-19
-67
-177
-93
-113
-175
-70
-111
-302
-154
68
-145
-240
-107
-168
-103
-19
-204
-189
3
56
-154
-238
-7
-101
-307
-72
69
-139
-116
-65
-217
-184
46
-117
-378
-25
51
-217
-126
11
-3
-198
-206
-31
-220
-326
-90
-54
-86
-118
-289
-236
-34
-69
-154
-154
-77
-96
-229
-112
-117
-289
-60
23
-184
-94
-41
-171
-259
-188
-83
-36
38
-141
-282
-107
-33
-118
-95
-7
-41
-35
26
54
15
29
205
239
265
338
102
-54
96
231
173
58
68
-96
-207
-13
-120
-376
-112
-40
-263
-255
-220
-182
-216
-39
72
-191
372
1532
2306
2864
2557
1295
268
-114
27
162
60
70
1
-42
-31
-175
-269
32
4
-284
-6
56
-174
-143
-7
-55
-238
-20
80
-224
-57
52
-172
29
186
-64
59
168
-104
-34
99
176
139
35
336
429
250
307
364
297
420
527
291
434
661
369
411
558
319
310
553
474
242
324
255
-36
-8
63
-45
-133
-66
-25
-228
-171
-1
-242
-198
52
-160
-316
-115
-27
-229
-253
-83
-120
-53
26
-93
-220
-153
-79
-286
-257
-63
-15
-15
51
-18
-149
-83
-204
-240
-30
1
-131
-56
118
-91
-205
-166
-202
-239
-145
34
-89
-119
-61
-160
-202
-220
-140
-150
-148
-8
-150
-160
-134
-267
-227
-101
-29
-179
-316
-127
37
-43
-180
-112
-43
-183
-195
-175
-126
-68
-145
-179
-119
-98
-159
-174
-122
-181
-142
69
-63
-75
186
-39
-106
197
86
32
283
421
128
-200
119
319
139
147
158
-117
-194
-80
-381
-298
105
-65
-213
-130
-104
-254
-187
8
-215
-145
-21
422
1654
2680
2986
2440
1489
457
-73
140
385
175
-147
11
88
-193
-220
-44
-148
-117
122
-109
-295
-51
-24
-189
-80
-13
-182
-105
45
-92
-192
8
114
-149
-83
243
120
-77
117
197
10
107
255
168
118
275
344
146
375
612
347
486
677
478
440
613
498
412
614
539
348
332
254
69
93
-10
-150
2
-5
-105
-129
0
-153
-468
-171
-29
-273
-129
-20
-263
-379
-147
-56
-369
-307
-22
-268
-296
-40
-188
-219
-125
-243
-369
-192
-24
-238
-161
-33
-151
-218
-157
-210
-481
-230
79
-126
-233
-171
-202
-183
-143
-286
-373
-239
-57
-153
-247
-95
-239
-354
-191
-132
-143
-234
-228
-215
-282
-149
-232
-391
-246
-182
-250
-149
-130
-370
-234
-107
-334
-335
-160
-58
-175
-295
-165
-181
-361
-248
-188
-323
-208
-266
-314
39
49
-131
-96
48
22
-112
123
250
64
88
64
-29
70
157
-31
-178
-29
-73
-285
-244
-352
-498
-278
-95
-158
-341
-237
-164
-325
-381
-241
-58
273
1260
2309
2841
2829
1735
244
-20
322
61
-122
31
-95
-225
-183
-150
-268
-231
-89
-234
-227
-158
-302
-418
-221
-71
-291
-329
-52
-128
-246
-147
-133
-75
-77
-76
-207
-185
145
68
-122
103
107
3
196
260
126
251
420
210
193
484
416
322
568
665
483
337
477
567
409
451
381
108
96
46
-96
3
6
-414
-344
86
-97
-277
-148
-184
-359
-226
-75
-208
-304
-200
-116
-291
-304
-268
-342
-210
-224
-436
-297
70
-78
-324
-120
-177
-411
-295
-62
-121
-201
-122
-174
-184
-183
-199
-165
-272
-292
-278
-319
-129
23
-116
-167
-47
-276
-426
-79
-167
-417
-178
-16
-283
-276
-53
-262
-243
-110
-272
-262
-54
-115
-311
-295
-184
-219
-285
-257
-239
-129
8
-147
-370
-180
-40
-378
-315
-15
-297
-336
-39
-156
-313
-181
-53
-145
-91
47
18
51
41
-10
21
227
328
68
-104
163
76
-198
98
68
-150
-89
-186
-259
-199
-242
-319
-182
-128
-273
-350
-254
-134
-370
-290
103
508
1683
2839
3027
2424
1357
356
-6
190
293
52
-215
-102
-62
-406
-256
15
-165
-190
-129
-325
-382
-123
-81
-200
-51
-104
-302
-110
-3
-125
-173
-65
-27
-282
-158
109
-63
-14
179
33
-130
208
392
46
77
300
294
360
413
362
290
444
563
451
419
450
469
459
473
395
296
337
245
49
67
87
-118
-88
83
-77
-225
-140
-183
-361
-172
11
-327
-378
-39
-83
-249
-164
-205
-425
-215
-47
-253
-157
-120
-313
-307
-206
-140
-184
-83
-135
-419
-164
60
-158
-293
-158
-142
-225
-58
-77
-292
-291
-166
-117
-181
-169
-158
-332
-247
-46
-208
-257
-147
-246
-202
-44
-187
-305
-207
-266
-323
-191
-82
-185
-259
-151
-146
-228
-260
-203
-207
-209
-125
-174
-221
-139
-160
-211
-123
-83
-288
-334
-115
-175
-285
-135
-50
-116
26
90
-134
16
101
25
156
117
171
23
-55
257
91
-98
63
-108
-317
-141
-186
-420
-268
-85
-200
-213
-209
-360
-315
-122
-182
-324
-153
501
1449
2261
2821
2440
1023
50
-68
-83
68
112
-245
-236
-9
-193
-303
-15
-162
-530
-170
45
-252
-287
-222
-291
-268
-81
-13
-260
-184
-64
-218
-31
75
-80
-179
-12
133
-97
3
44
-145
86
223
81
110
331
198
114
474
505
220
301
543
358
349
674
491
282
409
389
265
211
179
-13
-76
128
-35
-389
-85
136
-298
-266
-26
-239
-282
-51
-138
-409
-230
-30
-212
-257
-72
-244
-384
-123
-97
-164
-181
-149
-156
-275
-146
-50
-153
5
33
-306
-189
123
-111
-333
-51
-46
-379
-160
52
-172
-99
-70
-293
-129
114
-201
-397
-26
34
-234
-248
-49
-130
-372
-110
-32
-300
-95
-71
-332
-216
-51
-187
-246
-119
-156
-333
-242
-32
-110
-212
-134
-151
-194
-52
-160
-307
-153
-93
-260
-191
-26
-219
-345
-139
40
-123
-60
123
22
60
132
5
4
229
126
43
170
161
55
131
172
-105
-117
-52
-191
-205
-67
-155
-315
-251
-224
-293
-240
-130
-174
-274
-100
5
2
937
2155
2780
2844
2110
784
83
248
99
-51
106
30
-206
-201
-121
-183
-226
-33
-94
-481
-223
-18
-290
-209
-23
-113
-191
-101
-49
-192
-151
-65
-234
-144
199
27
-342
-54
163
-150
-3
266
60
150
277
144
216
428
409
232
369
561
441
323
470
566
462
516
594
437
395
349
109
42
167
49
-156
116
114
-144
-123
-189
-238
-185
-122
-147
-232
-205
-141
-244
-166
-76
-371
-360
-7
-120
-372
-160
-101
-201
-105
-76
-245
-205
36
-190
-317
-17
-111
-286
-80
-54
-198
-184
-84
-74
-140
-69
-74
-329
-260
9
-167
-337
-145
-50
-205
-111
9
-278
-261
-61
-253
-204
27
-171
-286
-82
-187
-394
-223
-67
-197
-138
64
-194
-316
-158
-185
-243
-169
-61
-329
-331
-39
-70
-92
-170
-249
-359
-242
-18
-165
-171
-126
-209
-117
-55
62
-7
-124
123
8
-39
234
147
123
143
47
-19
31
256
-55
-230
28
-184
-319
-110
-212
-341
-256
-180
-341
-381
-116
-222
-294
-174
-110
367
1363
2386
2837
2628
1876
636
8
343
284
-113
-94
-25
-218
-266
-80
-159
-281
-112
-186
-368
-199
-76
-313
-322
65
-54
-288
-81
-124
-337
-105
76
-181
-134
114
-52
-253
-85
25
-101
58
198
75
62
204
189
104
411
476
288
363
474
444
383
617
474
320
614
527
375
449
423
134
50
235
107
-184
-114
55
-242
-215
95
-269
-349
-83
-341
-404
-137
-67
-198
-211
-120
-193
-207
-189
-244
-239
-208
-179
-232
-209
-52
-158
-285
-212
-167
-232
-141
-53
-370
-328
10
-146
-136
-106
-424
-294
63
22
-199
-133
-48
-228
-356
-230
-61
-220
-345
-250
-177
-115
-186
-219
-214
-279
-348
-358
-37
25
-284
-150
62
-246
-357
-108
-261
-376
-93
-87
-329
-225
-79
-264
-308
-162
-228
-360
-136
-2
-351
-282
60
-183
-307
-21
-78
-258
13
136
-21
31
130
137
28
2
74
64
137
202
36
-90
-32
-198
-329
-60
-344
-651
-154
-79
-243
-126
-206
-329
-419
-358
-72
-26
350
1438
2442
3041
2828
1510
355
166
107
25
51
-52
-135
-136
-116
-137
-152
-58
-174
-349
-252
-143
-239
-266
-77
-181
-267
-62
-57
-239
-278
-59
-2
-213
-145
-124
-247
91
185
-41
15
79
78
51
153
99
76
383
394
247
428
487
221
469
597
379
467
558
514
415
481
430
150
171
276
41
-9
67
-38
-213
-232
-47
-128
-185
7
-148
-378
-181
-240
-412
-124
-116
-348
-160
-4
-311
-451
-165
-87
-242
-131
-99
-274
-238
-162
-183
-205
-196
-126
-174
-210
-97
-238
-174
84
-243
-295
-25
-226
-197
-104
-293
-236
-43
-77
-195
-256
-200
-56
-224
-232
-26
-210
-259
-140
-181
-172
-139
-223
-279
-111
-81
-195
-230
-271
-219
-191
-125
-7
-207
-275
-10
-261
-417
-12
-77
-279
-124
-18
-146
-169
-90
-308
-150
100
-175
-158
125
107
-9
176
371
94
27
288
8
-39
343
102
-154
-6
-97
-225
-217
-207
-213
-349
-207
-224
-411
-158
-50
-245
-157
-160
11
1115
2184
2861
2902
2017
759
-44
-43
195
158
-97
-74
-117
-192
-100
-193
-265
-201
-61
-71
-121
-28
-136
-213
-17
-33
-235
-119
-24
-240
-207
22
-23
-71
58
-75
-267
11
164
34
82
136
150
200
294
305
217
176
335
349
234
543
525
307
537
543
355
340
463
391
332
445
288
93
-7
-44
-30
71
97
-153
-256
-99
-83
-314
-286
36
-100
-251
-46
-180
-351
-168
-116
-209
-181
-181
-218
-160
-90
-120
-85
-189
-310
-227
-52
-64
-269
-115
-5
-169
-179
-73
-99
-297
-178
51
-271
-356
-94
-129
-92
-7
-186
-351
-160
-43
-201
-305
-215
-70
-116
-127
-128
-225
-181
-216
-355
-251
-137
-329
-297
0
-186
-340
-118
-106
-281
-273
-122
-192
-263
-164
-147
-305
-260
-60
-226
-236
-98
-208
-114
-68
-301
-111
124
36
24
84
178
78
-29
228
152
-200
98
196
-107
-145
-138
-197
-360
-275
-203
-341
-246
-102
-274
-418
-171
-177
-292
-103
-131
62
1132
2176
2733
2743
1761
557
17
139
275
-72
-127
76
-198
-316
-80
-98
-255
-174
-162
-256
-143
-113
-274
-269
-80
-90
-345
-267
-78
-259
-201
40
-31
-19
-80
-258
-5
219
3
-109
95
212
53
20
249
173
104
352
337
327
450
302
343
488
560
316
182
630
588
323
440
383
94
69
179
122
-34
-114
-54
-159
-232
-147
-248
-270
-98
-85
-346
-308
-102
-284
-218
-61
-288
-348
-81
-49
-193
-89
-162
-379
-203
-59
-267
-168
42
-167
-228
-42
-37
-268
-228
1
-229
-388
-109
-71
-154
-98
-327
-310
-1
8
-88
-284
-199
-20
-225
-297
-233
-180
-42
-73
-259
-204
-114
-256
-359
-169
-79
-310
-233
-70
-239
-184
-15
-232
-362
-124
-72
-212
-164
-160
-212
-164
-35
-140
-380
-195
-33
-247
-144
-69
-483
-294
157
48
-92
87
64
-193
69
287
94
179
291
39
-47
222
140
-154
19
77
-179
-174
-89
-307
-442
-172
-124
-340
-169
-113
-323
-161
-88
-346
-217
655
1638
2443
2971
2686
1488
456
285
191
60
120
61
-158
-160
-86
-225
-139
17
-162
-323
-286
-205
-151
-19
44
-182
-417
-135
30
-207
-82
76
-214
-170
183
18
-217
-17
88
19
166
152
29
138
217
179
165
286
373
345
467
485
359
440
528
426
356
506
524
355
437
334
113
291
264
30
42
163
81
-194
-97
75
-107
-129
-71
-260
-219
-30
-106
-155
-169
-258
-317
-250
-82
-103
-161
-49
-122
-189
-254
-201
35
-36
-145
-167
-156
-34
-32
-144
-11
70
-180
-189
-100
-222
-175
-8
-52
-151
-59
-226
-401
-66
120
-44
-167
-155
-130
-185
-112
-41
-135
-138
-111
-321
-437
-73
-46
-213
-33
-77
-198
-140
-96
-249
-270
-39
-65
-293
-196
-113
-211
-3
-13
-269
-254
-7
-4
-294
-119
-19
-389
-252
116
-75
-231
57
-54
-210
177
147
71
335
362
141
17
261
212
-62
240
230
-148
0
38
-160
-182
-127
-144
-231
-243
-215
-252
-170
-42
-243
-292
44
-41
237
1449
2339
2852
2983
1946
492
75
347
281
43
120
55
-194
-113
-134
-290
-221
-147
-232
-158
32
-59
-202
-135
-91
-169
-133
12
-27
-174
-32
49
-147
-187
13
61
-43
93
59
-75
119
77
-62
183
359
282
271
363
338
303
424
337
279
544
688
448
373
639
496
273
402
365
56
90
241
-12
-89
134
62
-315
-225
-6
-247
-262
-148
-184
-128
-132
-305
-304
-94
-105
-286
-269
-111
-173
-258
-115
-139
-277
-150
-116
-247
-83
-22
-219
-168
43
-103
-327
-191
-218
-409
-290
-30
-54
-292
-128
81
-139
-204
-219
-268
-174
-164
-254
-250
-137
-157
-215
-184
-252
-297
-305
-329
-167
-142
-188
-169
-218
-141
-170
-405
-280
-6
-219
-297
-16
-117
-408
-232
-83
-336
-216
-27
-280
-300
-120
-147
-210
-294
-201
-60
-94
-123
-157
-49
177
30
-218
92
291
133
171
246
58
8
212
78
-90
2
-62
-241
-276
-197
-321
-432
-276
-192
-277
-183
-35
-366
-381
54
-39
275
1387
2268
2900
2989
1881
454
20
193
51
9
171
-44
-166
-23
-146
-188
-97
-205
-241
-213
-177
-134
-156
-77
-80
-213
-82
56
-167
-341
8
184
-142
-108
-4
-173
-91
129
71
71
197
146
83
190
260
58
167
416
264
215
417
520
407
390
567
391
246
516
487
313
327
292
92
134
264
-40
-123
87
-45
-295
-221
-50
-215
-196
10
-147
-246
-209
-164
-141
-69
-36
-230
-272
-88
-168
-244
-2
-113
-332
-146
-52
-162
-136
-153
-286
-142
-59
-240
-227
-29
-71
-304
-51
115
-311
-307
-21
-166
-163
-43
-331
-398
-113
-105
-216
-83
-49
-244
-265
-144
-227
-334
-160
-37
-199
-194
-91
-258
-213
-85
-210
-225
-100
-103
-240
-285
-203
-150
-231
-181
-127
-287
-237
-168
-218
-145
-109
-183
-267
-84
-77
-263
-73
-45
-93
59
186
67
-25
218
153
-50
130
164
-146
-48
205
-60
-190
-46
-208
-324
-137
-187
-415
-304
-209
-290
-265
-226
-320
-360
-95
210
757
1875
2790
2723
1974
875
-8
10
297
213
-49
-30
-4
-230
-214
-123
-154
-349
-320
-34
-166
-230
-103
-170
-146
-17
-179
-245
58
-122
-268
12
100
-167
-291
94
191
-61
-22
177
-45
-153
244
271
178
320
272
166
281
415
253
352
600
557
464
493
496
325
430
486
250
287
383
-40
-221
144
62
-106
17
-28
-229
-166
33
-174
-320
-121
-172
-352
-222
-77
-152
-133
-59
-164
-233
-124
-165
-232
-126
-142
-187
-150
-85
-217
-296
-65
-2
-107
-205
-82
-73
-164
12
-104
-192
-1
-95
-257
-152
-133
-250
-138
-8
-178
-319
-217
-71
-153
-199
-42
-276
-333
-50
-218
-266
-76
-157
-193
-50
-138
-313
-199
-142
-333
-367
-71
-130
-346
-144
-50
-280
-336
-111
-141
-268
-61
-156
-431
-90
-13
-323
-181
-10
-145
-271
-146
-37
-106
-81
-47
-54
113
240
88
95
271
197
19
137
216
-7
-29
2
-42
27
-9
-196
-297
-173
-111
-318
-308
-91
-249
-330
-78
-127
-326
-189
253
997
2143
3040
2938
1914
741
234
75
166
220
-180
-116
144
-123
-319
-118
-114
-316
-146
-27
-260
-326
-65
-83
-283
-160
-111
-153
-100
-107
-225
-253
-15
-53
-223
63
79
-138
28
119
-40
41
134
-16
111
385
402
188
191
411
423
401
343
289
426
504
513
468
446
379
284
277
155
121
166
6
-84
-5
-95
-135
-145
-170
-70
-244
-311
-139
-188
-263
-158
-116
-235
-145
-163
-418
-373
-109
-13
-133
-156
-161
-280
-70
86
-230
-293
-68
-75
-324
-389
-161
-44
-91
-218
-198
-126
-96
-107
-244
-180
-115
-261
-232
-99
-181
-220
-62
-116
-340
-196
-83
-233
-328
-279
-206
-315
-143
-127
-183
-4
-119
-248
-212
-105
-183
-260
-99
-99
-227
-171
-61
-216
-254
-118
-223
-251
-200
-219
-203
-95
-92
-226
-137
-77
-226
-154
94
126
18
66
165
133
104
207
148
-20
101
152
-126
-193
105
30
-211
-41
-107
-320
-161
-114
-277
-237
-255
-369
-205
-62
-197
-218
132
609
1490
2775
3281
2513
1197
419
164
58
311
178
-225
-141
-7
-157
-302
-149
-112
-296
-159
-49
-212
-234
-257
-201
-52
-43
-127
-191
-70
-81
-149
-48
-65
-85
-39
-7
18
9
113
207
46
31
230
170
132
308
309
241
447
539
226
312
621
453
393
613
495
320
470
458
263
249
303
76
-59
120
43
-125
-11
-59
-336
-264
-160
-167
-77
-237
-238
-142
-298
-175
-6
-24
-35
-210
-231
-31
-93
-259
-109
-50
-251
-147
14
-117
-155
-26
-97
-227
-61
-25
-305
-304
-129
-92
-109
-127
-74
-119
-119
-47
-224
-153
-31
-226
-136
7
-163
-273
-98
-82
-281
-171
-55
-210
-191
-43
-185
-334
-168
-93
-210
-250
-178
-225
-164
72
15
-151
-136
-158
-296
-154
13
-185
-200
-55
-129
-155
-9
-16
-75
87
148
-31
72
133
52
237
200
38
51
152
138
-73
-27
110
-154
-385
-240
-96
-223
-280
-139
-200
-271
-109
-118
-353
-201
82
358
1434
2710
3041
2464
1408
258
-153
183
210
-118
6
172
-177
-248
-57
-132
-253
-388
-281
-113
-41
-12
-280
-306
-48
-78
-223
-94
-32
-188
-114
17
-79
-111
-14
-64
-82
46
42
-29
75
212
66
0
243
221
105
339
435
335
277
178
251
459
572
440
334
449
421
200
335
487
-307
-427
298
91
-171
7
-24
-203
-137
-71
-182
-94
-213
-507
-334
-51
-80
-247
-189
-57
-202
-228
-49
-109
-287
-199
-196
-305
-100
45
-62
-239
-55
-77
-762
-510
150
-10
-102
-8
-76
-152
-138
-148
-162
-98
-150
-251
-128
-66
-239
-266
-127
-161
-247
-132
-91
-273
-309
-222
-273
-243
-130
-203
-234
-70
-158
-328
-155
-311
-565
-185
-8
-232
-289
-121
-93
-261
-180
-102
-236
-308
-199
-140
-203
-42
-10
-113
112
94
-97
28
78
0
14
207
56
-110
122
44
-117
-72
-27
-156
-341
-283
-283
-412
-267
-108
-244
-337
-228
-277
-305
-98
293
921
2158
3244
2625
1377
525
43
40
111
94
-63
-167
-146
-305
-337
-107
-142
-272
-111
-90
-239
-264
-123
-121
-276
-146
-44
-159
-175
-134
-206
-160
-34
-95
-108
-3
-24
-44
104
137
49
133
184
67
129
292
194
237
446
358
277
421
460
357
322
469
501
358
435
432
221
298
342
4
-249
-184
-147
-152
55
53
-291
-236
-38
-292
-335
-53
-188
-430
-221
-115
-271
-198
-73
-269
-360
-125
-47
-263
-234
-139
-338
-232
81
-123
-311
-67
-186
-307
-33
-64
-307
-244
-28
-140
-329
-137
-147
-302
-156
-113
-215
-161
-105
-272
-305
-65
-54
-303
-293
-145
-188
-210
-133
-243
-323
-94
-103
-269
-270
-226
-193
-178
-76
-209
-297
-158
-190
-362
-239
-19
-281
-280
-111
-313
-256
-51
-169
-339
-52
156
-109
-167
6
57
19
142
255
178
167
73
-92
17
182
131
-35
-127
-221
-373
-211
-81
-352
-238
-18
-277
-464
-360
-200
-206
-152
-108
38
826
1978
2815
2940
2270
965
6
47
320
132
-35
-43
-198
-211
-80
-125
-289
-110
-74
-404
-359
-116
-169
-236
-85
-71
-297
-254
37
-88
-269
-70
-75
-201
21
61
-137
-27
34
-151
-38
219
92
76
255
192
9
131
383
280
356
603
515
438
536
555
388
318
421
193
214
474
177
83
263
-23
-197
11
-41
-191
-140
-78
-262
-275
-2
-236
-440
-191
-62
-201
-201
-30
-175
-211
-146
-463
-518
-19
49
-338
-163
42
-308
-275
43
-188
-294
-94
-297
-325
-38
-56
-187
-175
-22
-138
-322
-195
-173
-235
-213
-104
-162
-195
-64
-166
-234
-101
-113
-261
-239
-96
-168
-249
-133
-235
-282
-92
-132
-210
-152
-71
-234
-392
-30
-102
-449
-193
-71
-232
-196
-135
-184
-254
-100
8
-127
-145
-255
-348
-132
103
-23
-97
55
22
-123
72
310
62
-16
251
121
-68
161
112
-38
47
-43
-160
-178
-108
-178
-265
-127
-211
-319
-140
-216
-403
-158
-75
-198
67
870
1836
2656
3157
2414
796
164
372
267
95
122
75
-94
-202
-213
-251
-192
-43
-155
-206
-153
-294
-244
-51
-73
-234
-201
36
-13
-170
-5
105
-214
-182
106
-90
-143
59
77
44
180
186
-20
83
292
153
293
398
77
239
588
429
284
615
636
339
374
507
476
326
304
374
270
220
270
-48
-216
42
-8
-186
30
-4
-248
-45
-3
-312
-285
-66
-176
-229
-31
-46
-179
-77
-118
-252
-97
-103
-150
-55
-110
-170
-177
-143
-75
-129
-87
4
-127
-173
-53
-285
-313
74
32
-160
-147
-12
-41
-226
-101
-1
-134
-105
-134
-289
-150
50
-146
-220
9
-71
-223
-56
-93
-333
-145
-43
-260
-124
-4
-52
-182
-198
-38
-184
-160
-26
-155
-145
-12
-193
-330
-55
34
-57
-53
111
106
9
141
50
-6
251
357
141
-15
-2
75
140
142
12
-173
-112
-82
-205
-225
-169
-179
-318
-320
-235
-215
-48
-88
-236
-5
625
1541
2601
3040
2075
650
-31
-18
70
159
169
-142
-249
-81
-135
-297
-275
-148
-125
-98
-205
-306
-76
21
-130
-201
-75
37
-56
-67
-66
-193
-114
-28
-67
-71
3
164
-16
-62
228
83
-27
230
256
156
258
310
209
395
587
416
335
327
353
448
557
584
324
198
366
331
84
24
97
9
-71
-84
-46
7
-62
-241
-286
-62
-149
-265
-139
-189
-273
-186
-51
-218
-351
-101
1
-255
-260
-72
-225
-350
-204
-119
-150
-33
-28
-233
-136
-49
-265
-176
13
-167
-264
-105
-108
-285
-238
-153
-230
-159
-56
-213
-220
-105
-266
-225
-56
-156
-243
-173
-111
-273
-372
-60
-48
-346
-163
-165
-374
-205
-125
-220
-330
-232
-122
-281
-167
-201
-385
-167
-43
-213
-216
-49
-100
-176
-137
-52
-109
-26
167
94
62
64
34
-24
43
89
-108
-136
35
-67
-241
-121
-198
-432
-329
-187
-331
-420
-202
-262
-510
-218
-112
-256
375
1323
2160
2839
2604
1394
160
-86
56
-61
47
69
-160
-252
-112
-136
-295
-231
-175
-250
-266
-199
-328
-369
-91
-160
-217
-38
-225
-310
-92
-64
-256
-212
36
-17
-168
-86
-69
-166
72
123
-154
98
290
38
46
332
337
237
417
471
317
384
526
336
270
509
533
347
363
408
192
129
185
4
-151
-39
9
-218
-235
-241
-339
-121
-78
-207
-248
-214
-269
-337
-143
-199
-373
-223
-85
-174
-279
-92
-106
-416
-232
-81
-285
-198
-97
-206
-220
-102
-172
-244
-115
-176
-304
-198
-34
-125
-192
-120
-186
-270
-107
-101
-312
-179
-26
-127
-233
-153
-105
-199
-306
-290
-136
-179
-97
-108
-408
-164
-15
-277
-103
-13
-246
-217
-86
-208
-343
-133
-49
-253
-195
-35
-167
-224
-54
-247
-344
44
-17
-246
-63
117
-49
-101
230
236
77
226
255
-41
-83
132
26
-74
-119
-225
-124
-74
-177
-317
-326
-204
-278
-281
-148
-347
-338
-133
-295
-213
516
1257
2092
3082
2908
1660
520
197
313
58
-94
-4
-109
-166
-86
-177
-239
-186
-210
-212
-256
-211
-270
-239
15
-201
-334
-94
-72
-206
-140
-94
-184
-155
-150
-167
-111
88
45
-148
93
168
-20
43
151
124
166
368
299
59
387
673
435
440
662
526
347
603
644
318
429
500
215
154
197
120
-113
-9
100
-296
-159
89
-244
-260
-13
-224
-313
-50
-170
-271
-105
-152
-261
-145
-89
-322
-313
-26
-129
-343
-343
-155
-38
-151
-71
-133
-312
-113
-51
-195
-109
-115
-292
-217
-72
-193
-224
-65
-100
-310
-89
74
-270
-191
4
-212
-278
-81
-72
-223
-174
-241
-293
-144
-75
-230
-308
-102
-99
-285
-265
-62
-108
-222
-93
-255
-308
-29
-86
-228
-187
-36
-238
-381
-103
-99
-93
33
-101
-219
-39
66
-35
7
241
264
156
307
208
-39
64
217
-29
-255
45
64
-209
-143
-122
-315
-289
-126
-331
-395
-88
-87
-270
-177
-41
-146
283
1418
2522
3143
2880
1714
406
99
333
114
78
150
-137
-341
-321
-107
-65
-53
-55
-283
-203
-71
-149
-123
-68
-147
-208
-105
-98
-226
-187
49
-42
-252
-2
87
-80
63
69
-117
32
198
31
-27
242
251
136
243
382
335
320
551
477
408
594
570
422
417
561
482
467
470
226
113
219
151
-29
33
-4
-186
-117
-33
-173
-194
-112
-111
-196
-159
-136
-268
-130
-2
-174
-191
-66
-188
-381
-231
-77
-144
-110
-66
-151
-244
-185
-133
-184
-54
-84
-296
-205
-21
-123
-275
-65
-50
-229
-95
-7
-223
-260
-8
-95
-255
-124
-133
-279
-183
-137
-218
-141
-150
-348
-249
41
-48
-202
-134
-138
-238
-241
-180
-177
-196
-84
-111
-281
-148
-104
-302
-153
-3
-229
-285
-83
-49
-87
-16
35
-8
31
151
65
173
333
-74
-220
137
264
33
-63
140
-85
-294
-83
-194
-506
-324
14
-120
-288
-228
-240
-324
-357
-327
-159
183
773
1706
2737
3007
2027
627
91
96
14
159
-13
-277
-65
3
-125
-213
-205
-193
-285
-145
-85
-310
-178
-87
-250
-129
-83
-156
-211
-162
41
-120
-273
-51
-4
-10
112
4
-146
27
151
9
105
223
39
63
240
211
256
478
413
283
463
499
295
359
586
401
241
449
395
138
148
183
-29
-32
155
-53
-309
-130
-44
-230
-183
-24
-131
-322
-162
-137
-312
-167
-147
-220
-135
-122
-179
-184
-125
-113
-235
-272
-133
-197
-206
21
-94
-241
14
12
-386
-149
104
-184
-184
-201
-244
-207
-107
12
-148
-98
59
-201
-242
10
-173
-306
-56
-77
-253
-199
-102
-151
-120
-38
-179
-208
-110
-238
-273
-121
-47
-274
-324
17
-151
-229
42
-116
-237
-33
-40
-212
26
282
-49
-80
247
103
-14
162
238
57
17
179
53
-101
88
42
-195
-104
-49
-330
-575
-256
-58
-263
-142
-160
-328
-154
-123
-256
-46
569
1268
2210
2952
2431
1132
200
-45
-48
134
85
-257
-168
-51
-159
-188
-133
-146
-292
-209
-31
-235
-221
-51
-189
-263
-151
-114
-252
-162
40
-79
-196
-36
-37
-171
-10
96
-35
26
107
-56
-83
117
167
127
330
444
296
343
475
324
274
505
430
208
362
600
469
325
417
304
174
188
29
-120
-112
-124
-115
-54
-61
-221
-238
-46
-108
-296
-184
-153
-329
-253
-100
-229
-211
-159
-368
-275
-33
-77
-233
-219
-135
-147
-206
-93
-78
-208
-164
-258
-218
-27
-56
-144
-216
-163
-131
-166
-65
-90
-280
-223
-106
-201
-177
-102
-237
-290
-58
61
-168
-215
-109
-279
-293
-35
-67
-202
-128
-106
-196
-251
-165
-189
-186
-33
-183
-230
-116
-104
-146
-229
-143
-124
-200
-101
-55
-222
-208
-95
-79
128
223
61
-4
116
194
66
138
258
74
30
146
0
-52
100
-71
-212
-243
-241
-256
-314
-67
-133
-371
-184
-111
-259
-201
-115
-199
296
1366
2255
2853
2847
1786
455
153
276
74
54
101
-168
-244
-57
-170
-298
-98
-83
-330
-213
-65
-172
-135
-95
-194
-170
-39
-61
-198
-198
-111
-149
-108
54
53
-91
-32
-6
-165
23
203
53
27
229
248
33
269
493
181
345
606
382
465
664
507
412
541
564
416
356
457
331
99
160
55
-117
49
105
-76
-121
-57
-236
-298
-67
-99
-281
-177
-43
-127
-197
-144
-130
-174
-86
-151
-262
-124
-116
-348
-328
-82
-104
-144
-146
-202
-230
-49
59
-231
-201
-16
-196
-214
-34
-203
-403
-137
106
-106
-267
-92
-54
-170
-95
-67
-237
-249
-90
-176
-147
31
-227
-338
-145
-118
-228
-123
-89
-269
-168
-62
-201
-208
-133
-186
-175
-139
-137
-308
-238
44
-127
-233
-29
-67
-197
-60
-2
-156
-74
114
30
-29
108
221
178
71
101
-33
-117
124
69
-166
-8
-26
-345
-274
-141
-230
-182
-151
-270
-267
-207
-179
-286
-344
-75
235
939
2200
3025
2900
1964
777
155
238
348
62
-132
-65
-141
-280
-182
-85
-231
-211
-102
-263
-193
-54
-281
-304
-94
-159
-275
-171
-91
-179
-189
-115
-103
-137
-42
48
-234
-148
167
-13
46
225
58
-18
142
242
146
204
438
335
261
575
494
331
568
480
383
585
566
349
289
405
271
4
-2
43
-18
-77
-208
-151
-18
-52
-126
-260
-101
5
-250
-234
-130
-288
-267
-179
-220
-195
-145
-136
-219
-204
-149
-220
-217
-319
-367
-187
-76
-106
-113
-17
-111
-379
-225
113
-119
-297
-31
-38
-289
-184
-2
-197
-269
-37
-155
-285
-51
-40
-284
-231
-46
-261
-239
-27
-283
-394
-123
-36
-194
-112
-33
-246
-242
-151
-211
-253
-123
-128
-306
-156
-105
-258
-159
-46
-116
-202
-110
-97
-291
-145
-54
-166
-87
86
55
-31
170
230
73
94
243
79
-52
131
113
12
36
6
-210
-287
-98
-135
-400
-314
-93
-216
-158
-88
-251
-249
-210
-184
-147
378
1471
2412
3067
2848
1482
370
197
117
113
176
-43
-239
-128
-19
-229
-236
-105
-265
-275
-172
-312
-282
6
57
-228
-246
-17
-79
-192
-19
48
-292
-232
182
-90
-149
198
-16
-90
194
113
-7
243
239
7
147
400
239
176
423
387
330
478
576
453
429
573
420
333
400
318
214
157
155
-51
-76
104
-104
-209
12
-66
-304
-146
-49
-195
-198
-189
-306
-210
-67
-177
-178
-33
-107
-284
-198
-79
-175
-215
-118
-127
-307
-187
49
-150
-248
-130
-117
-172
-129
-108
-142
3
-49
-248
-182
-40
-89
-216
-249
-146
-33
-9
-110
-319
-194
-61
-233
-201
-88
-118
-155
-97
-137
-208
-48
-4
-252
-317
-77
-73
-287
-189
-88
-327
-214
92
-142
-226
-44
-184
-308
-82
-38
-311
-196
11
-73
-55
149
134
-96
36
315
171
-26
85
59
-35
137
143
-40
-32
-60
-331
-384
-189
-201
-287
-166
-205
-416
-265
-130
-318
-306
-77
57
647
1801
2608
2680
2121
891
-173
-150
219
98
-161
-59
-33
-247
-182
-91
-254
-211
-177
-377
-325
-158
-122
-160
-151
-104
-190
-213
-108
-119
-224
-56
-15
-242
-60
106
-150
-147
57
-146
-106
283
-17
-174
268
292
161
343
491
314
261
484
469
312
432
529
404
441
501
352
255
246
210
102
53
61
-127
-255
-215
-230
-239
-123
-41
-155
-117
-21
-227
-270
-99
-260
-371
-137
-130
-305
-208
-83
-247
-302
-143
-199
-343
-192
-95
-249
-195
-43
-208
-325
-52
-53
-338
-176
-20
-217
-241
-61
-130
-337
-225
-153
-274
-151
-144
-272
-87
-67
-219
-138
-133
-289
-296
-129
-164
-238
-147
-137
-232
-265
-137
-119
-224
-173
-166
-287
-168
-218
-401
-126
-22
-264
-334
-153
-131
-270
-142
-95
-313
-250
-27
-199
-340
-96
-76
-134
108
102
-145
-96
178
225
168
169
29
-52
106
184
-71
-70
114
-294
-429
-59
-140
-361
-273
-202
-434
-362
-92
-233
-267
-134
-187
-217
425
1453
2251
2857
2838
1656
318
157
316
49
-135
13
-46
-200
-96
-195
-261
-71
-220
-379
-155
-254
-354
-132
-72
-229
-307
-105
-47
-195
-164
-86
-154
-61
108
-161
-225
57
-31
-160
44
205
75
33
220
205
78
369
455
130
264
471
483
490
481
445
413
565
599
453
409
449
294
152
210
68
-53
61
-25
-214
-139
-43
-146
-120
-51
-133
-176
-131
-148
-260
-227
-89
-147
-284
-276
-208
-222
-151
-45
-239
-231
8
-118
-264
-143
-140
-205
-50
-68
-249
-122
-15
-206
-252
-25
-99
-300
-124
-40
-336
-304
-58
-229
-299
-68
0
-261
-126
90
-173
-191
-82
-198
-200
-51
-165
-325
-136
-80
-249
-171
-101
-210
-167
-8
-134
-313
-221
-123
-195
-95
-5
-352
-260
55
-143
-256
-109
-99
-221
-173
-116
-239
-102
20
-209
-127
101
-9
-71
129
247
105
9
240
221
-4
169
182
10
95
166
-159
-246
-43
-199
-292
-183
-135
-312
-335
-170
-354
-397
-115
-119
-299
24
881
1759
2772
3256
2396
1053
299
220
208
184
119
-137
-137
-45
-201
-117
-14
-229
-333
-55
-87
-492
-221
57
-200
-206
-20
-100
-156
-47
-38
-95
-101
-29
-169
-187
89
44
-12
90
207
106
-46
220
170
106
352
371
229
242
549
364
260
690
540
362
580
560
416
469
466
174
225
391
99
-5
35
16
-80
-222
-82
-78
-164
-96
-119
-186
-93
-19
-238
-240
-92
-212
-159
2
-130
-264
-107
-138
-223
-43
-87
-177
-105
-16
-188
-397
-71
-113
-321
57
50
-292
-152
41
-95
-151
-66
-82
-171
-165
-94
-200
-165
100
-143
-302
1
-250
-452
-114
-97
-204
-89
-28
-156
-286
-132
-95
-313
-214
-36
-209
-173
-74
-241
-218
-60
-115
-304
-140
-46
-221
-182
-143
-184
-156
-126
-263
-253
-75
-135
-192
-119
-55
-49
-51
-41
-88
17
92
44
98
223
354
192
-127
-1
141
7
202
225
-181
-231
-113
-250
-220
-120
-215
-241
-140
-91
-268
-262
-44
-214
-278
-15
316
1124
2352
3153
2736
1677
709
116
105
241
62
-137
-27
-46
-189
-241
-269
-177
-131
-101
-72
-182
-113
7
-182
-314
-118
-174
-232
34
12
-121
-78
-10
-143
-103
95
-95
-126
97
132
9
79
244
82
114
375
359
194
143
343
418
471
542
293
309
548
492
344
452
464
229
235
297
80
-40
183
103
-143
78
97
-196
-188
-186
-327
-150
-34
-186
-199
-123
-131
-234
-144
-96
-276
-182
-83
-235
-214
-46
-210
-275
28
123
-111
-236
-34
-74
-182
-83
-17
-179
-267
-58
-144
-187
13
-105
-213
-91
-88
-173
-141
-64
-213
-230
-50
-141
-245
-93
-92
-363
-296
-29
-108
-230
-109
-211
-288
-60
-93
-317
-275
-46
-174
-170
-12
-212
-315
-177
-61
-163
-179
-98
-218
-233
-119
-144
-270
-134
81
-139
-87
244
37
-165
112
217
129
177
124
-33
-21
155
127
0
91
-16
-221
-136
-129
-307
-180
-3
-370
-401
-41
-199
-355
-134
-75
-202
173
1111
1983
2658
2784
1705
427
139
51
-50
42
95
12
-230
-108
-78
-292
-151
-114
-258
-202
-64
-120
-202
-41
-111
-293
-8
26
-251
-77
30
-159
-76
64
-29
-1
112
65
5
33
102
141
77
127
171
124
371
375
143
373
498
237
291
591
458
164
400
606
382
457
494
115
97
223
-31
-95
102
35
-211
-258
-116
-49
-64
-40
-169
-257
-69
-64
-212
-70
-193
-435
-94
72
-99
-179
-96
-82
-258
-115
111
-111
-215
-77
-155
-75
86
-51
-239
-149
-7
-162
-168
42
-85
-235
-134
-49
-87
-203
-179
-208
-204
0
-85
-283
-114
-79
-333
-183
-52
-275
-253
-85
-160
-160
-64
-217
-242
-142
-162
-212
-197
-102
-167
-212
-68
-157
-397
-235
-28
-206
-161
7
-113
-153
-98
-132
-180
-58
39
-76
9
216
85
53
250
186
2
56
229
100
-130
23
44
-179
-160
-230
-375
-251
-215
-282
-202
-72
-234
-515
-206
-87
-311
1
779
1569
2364
3109
2473
875
181
139
108
140
175
36
-156
-31
-82
-286
-151
-132
-277
-188
-56
-92
-173
-223
-230
-203
-33
-17
-209
-228
-247
-184
22
84
-49
-116
46
133
44
51
61
25
102
224
154
93
323
268
83
309
420
349
420
579
623
364
321
523
351
301
421
287
188
154
106
-62
-65
-6
-283
-157
41
-152
-212
-49
-16
-270
-222
-102
-231
-273
-235
-225
-222
-95
-98
-232
-116
-90
-270
-301
-234
-223
-189
-71
-98
-246
-117
-3
-230
-215
-32
-160
-275
-66
-57
-288
-167
-86
-231
-113
-3
-169
-149
-37
-238
-385
-118
-57
-368
-247
46
-168
-350
-186
-190
-214
-110
-93
-305
-361
-52
-128
-227
-57
-111
-193
-207
-87
-222
-378
-82
-176
-364
-89
-75
-317
-185
-64
-235
-156
-71
-162
-132
1
25
-90
70
132
-58
85
278
120
29
157
92
-135
-71
159
-107
-313
-28
-124
-343
-187
-181
-295
-196
-202
-305
-307
-191
-58
-249
-32
878
1792
2760
3109
2313
1065
230
47
119
240
80
-218
-104
-46
-259
-251
-66
-86
-205
-95
-128
-331
-269
-112
-198
-235
-31
-96
-245
-63
-86
-259
-46
14
-203
-90
66
-56
-151
-47
57
22
81
215
135
100
241
190
136
318
419
288
370
626
357
287
688
404
150
460
377
139
221
250
80
-40
-35
-126
-278
-110
-13
-270
-245
-106
-283
-329
-127
-192
-336
-178
-112
-279
-261
-131
-326
-297
-85
-244
-187
-34
-218
-288
-132
-111
-237
-200
8
-70
-232
-43
-37
-283
-335
-248
-255
-197
13
-135
-309
-147
-189
-242
-59
-75
-244
-187
-55
-114
-170
-74
22
-116
-281
-289
-475
-422
-95
-193
-272
15
17
-257
-150
-160
-394
-294
-109
-163
-239
-70
-56
-273
-230
-100
-221
-228
-62
-131
-214
-25
43
-95
18
167
18
19
190
179
137
225
252
28
78
251
-18
-224
-100
-120
-293
-156
-143
-335
-128
-67
-306
-241
-306
-335
-180
-187
-168
-133
564
1735
2590
3161
2780
1259
187
252
274
103
129
62
-232
-258
-7
-66
-250
-165
-108
-226
-156
-46
-214
-182
42
-139
-231
-78
-96
-133
-18
-12
-205
-204
-5
-35
-47
208
115
-253
15
284
118
219
363
286
262
358
364
304
396
515
355
345
588
526
411
573
371
109
399
408
123
152
223
56
-80
24
28
-159
-117
0
-188
-216
-82
-238
-309
-52
-83
-266
-116
-35
-189
-198
-80
-182
-264
-53
13
-134
-113
-31
-138
-211
-166
-238
-138
64
-30
-168
-127
17
-86
-228
-25
-33
-157
2
-109
-320
-84
-22
-250
-111
-32
-227
-192
30
41
-155
-164
-76
-214
-146
-2
-180
-280
-136
5
-115
-118
-67
-214
-83
-41
-322
-226
-28
-191
-229
-87
-62
-105
-152
-62
-33
-115
11
91
-1
34
133
19
52
294
171
46
191
203
-27
-78
288
191
-76
42
-127
-270
-65
-61
-334
-303
-82
-248
-326
15
-119
-481
-225
33
178
1080
2301
2871
2807
1948
374
-253
101
144
-17
-37
158
-81
-293
35
-66
-283
-114
-63
-183
-192
-68
-126
-166
5
-95
-256
-87
13
-111
-42
66
-123
-101
48
-132
-156
130
170
-1
138
236
63
141
352
243
162
419
330
140
349
502
386
385
591
445
264
398
447
293
208
282
220
37
28
7
-144
12
85
-260
-174
101
-334
-446
29
-65
-283
-115
-55
-258
-201
-87
-97
115
-178
-546
-322
-151
-89
-145
-146
-12
-118
-197
-31
-54
-200
-34
14
-175
209
319
-399
-554
-180
-164
-243
-95
-38
-217
-207
-10
-93
-287
-141
-50
-252
-182
-39
-212
-109
57
-278
-361
-88
-116
-234
-58
-9
-305
-406
-184
-241
-303
-30
-99
-305
-69
-26
-236
-173
-158
-202
-240
-111
10
-128
33
140
-92
7
198
57
29
175
121
-13
121
191
-149
-148
29
-297
-394
-125
-248
-462
-326
-192
-309
-350
-189
-267
-374
-139
3
296
1397
2569
2812
2264
1333
249
-158
97
89
-110
-51
-8
-235
-330
-190
-194
-316
-176
-83
-208
-217
-245
-330
-254
-100
-200
-272
-26
-105
-404
-156
16
-199
-110
-16
-185
-70
142
29
-128
15
154
7
25
249
200
185
436
300
66
343
523
330
391
530
245
212
520
389
153
311
343
71
22
115
-25
-205
8
-16
-502
-299
0
-205
-234
-172
-287
-341
-50
-123
-448
-230
-83
-291
-307
-140
-143
-241
-162
-166
-289
-110
21
-221
-208
53
-130
-303
-67
6
-235
-203
-90
-248
-178
-41
-153
-221
-127
-90
-218
-252
-111
-190
-289
-111
-85
-161
-126
-238
-359
-187
-51
-181
-178
-116
-320
-332
-102
-143
-298
-168
-76
-312
-289
-111
-184
-232
-124
-123
-433
-321
-28
-219
-207
-94
-170
-161
-59
-139
-278
-61
144
-59
-142
114
86
11
170
107
27
149
219
67
0
118
-153
-356
-90
-93
-371
-319
-156
-254
-294
-181
-253
-321
-120
-123
-289
-149
522
1338
2318
3241
2845
1500
547
197
44
148
165
-119
-136
-21
-249
-340
-95
-28
-185
-230
-83
-168
-230
-68
-159
-231
-44
-74
-320
-176
54
-131
-184
-15
-81
-79
114
12
-181
-48
133
12
-2
248
149
-15
281
452
194
278
473
307
417
578
476
466
566
490
307
358
499
296
163
366
178
-110
75
64
-269
-227
1
-222
-250
16
-112
-221
-105
-132
-313
-255
-118
-249
-247
-105
-217
-277
-130
-82
-251
-288
-113
-207
-320
-116
-84
-365
-233
83
-141
-178
6
-218
-231
-37
-204
-198
6
-179
-291
-130
-37
-166
-286
-68
-52
-296
-123
-40
-247
-150
-77
-134
-128
-91
-212
-263
-121
-187
-204
-117
-211
-358
-330
-130
-77
-183
-104
-38
-197
-208
-113
-208
-242
-17
-62
-306
-183
-111
-257
-79
28
-231
-212
65
84
6
51
13
-2
144
242
124
23
212
154
-49
135
106
-203
-135
-87
-384
-327
-117
-183
-247
-287
-279
-304
-261
-114
-226
-319
-118
302
1090
2224
3073
2868
1851
791
134
94
228
26
-154
-30
-38
-186
-155
-386
-530
-181
-30
-208
-291
-72
-48
-226
-164
-157
-277
-231
-58
-85
-212
-76
40
-15
-57
-186
-207
24
167
84
36
142
169
112
254
337
230
162
162
354
479
543
609
435
428
576
433
377
457
404
269
250
352
131
43
154
-52
-122
-2
-99
-285
-160
-21
-247
-313
-154
-170
-194
-68
-94
-273
-168
-41
-211
-221
-114
-270
-225
61
-198
-368
-23
11
-220
-176
35
-104
-279
-147
-117
-221
-104
48
-133
-199
3
-114
-312
-134
-116
-209
-107
-76
-217
-202
-17
-173
-310
-103
-107
-349
-128
-50
-310
-165
-55
-194
-192
-62
-154
-303
-142
-71
-274
-214
-43
-218
-282
-36
-46
-259
-216
-143
-239
-261
-133
-151
-208
-109
-15
-31
-13
134
45
17
161
76
93
289
172
31
121
73
24
82
71
-112
-175
-5
-150
-389
-142
-64
-447
-323
86
-186
-326
-68
-199
-279
69
896
1783
2541
2969
2221
901
131
13
51
134
144
-71
-197
-30
-74
-339
-85
12
-233
-132
-22
-138
-239
-70
-30
-204
-223
-91
-73
-93
45
-190
-191
228
9
-166
108
67
25
195
38
-80
158
254
173
76
292
440
175
267
545
307
295
645
520
368
510
472
313
276
306
266
229
173
-21
-89
22
-9
-144
-47
13
-275
-285
-97
-239
-226
-51
-116
-261
-171
-96
-243
-264
-78
-114
-308
-182
-105
-209
-72
-87
-291
-239
-96
-70
-117
-15
-85
-234
-73
-25
-141
-21
71
-118
-332
-240
-82
-195
-48
6
-191
-185
-105
-137
-193
-151
-156
-194
-274
-218
-193
-198
2
-165
-341
-70
-24
-339
-350
-55
-204
-306
-21
-86
-284
-179
-98
-247
-204
-99
-276
-174
-56
-346
-328
11
60
-126
-88
-21
-184
-99
154
110
90
235
181
20
37
135
-8
-32
124
-60
-257
-128
-164
-422
-273
-86
-227
-254
-175
-240
-343
-148
-137
-370
-77
547
1184
2097
2881
2472
1195
271
-59
-96
80
45
-226
-205
-81
-160
-259
-131
-75
-171
-183
-147
-324
-353
-56
-165
-287
-40
6
-189
-230
-39
-141
-229
39
13
-166
-43
-4
-246
-108
283
144
-90
117
157
71
231
308
207
311
493
316
347
603
377
193
478
506
274
327
410
241
144
198
6
-182
-62
-131
-240
-24
40
-202
-259
-87
-170
-245
-160
-262
-348
-190
-105
-285
-256
-65
-140
-295
-159
-155
-408
-292
-97
-157
-276
-323
-292
-137
-2
-22
-199
-153
10
-239
-219
71
-105
-369
-175
-64
-279
-258
-186
-210
-142
-71
-151
-278
-101
-133
-421
-274
-88
-232
-314
-115
-146
-250
-47
-156
-389
-189
-55
-258
-220
-202
-274
-244
-216
-94
-237
-200
-109
-302
-242
-243
-231
-130
-126
-103
-244
-217
81
-68
-293
37
140
-101
31
240
121
211
249
-188
-170
207
15
-201
59
57
-296
-306
-69
-148
-364
-273
-328
-432
-147
-177
-362
-210
-96
-229
18
1038
1999
2709
2968
2103
653
-32
183
129
8
121
-67
-216
-99
-151
-207
-162
-300
-359
-271
-75
-103
-228
-63
-143
-303
-88
-71
-254
-153
-145
-294
-220
95
171
-148
-110
78
-33
-7
103
77
-10
44
177
163
267
340
214
271
412
448
367
502
665
464
452
642
514
385
435
345
158
172
161
-89
-47
82
-147
-260
-76
-100
-210
-188
-224
-221
-219
-162
-142
-230
-86
-146
-380
-144
-38
-250
-125
-29
-238
-180
-167
-332
-232
-119
-143
-289
-244
-53
-219
-257
-49
-112
-240
-139
-52
-212
-253
-37
-144
-262
-54
-167
-373
-191
-17
-180
-243
-161
-273
-261
-98
-120
-320
-221
-96
-362
-259
-59
-272
-222
1
-128
-285
-138
-120
-352
-264
-74
-295
-316
-43
-121
-290
-171
-149
-248
-154
4
-86
-320
-187
-165
-359
-125
-137
-289
-43
173
57
-57
77
62
40
192
267
-7
-124
83
46
96
51
-155
-153
-115
-84
-222
-361
-195
-160
-238
-129
-186
-352
-249
-184
-222
-218
-60
757
1889
2834
3137
2406
1218
288
83
230
161
-5
-145
-92
-115
-229
-50
-103
-405
-266
-47
-178
-234
-151
-168
-249
-138
-118
-328
-193
-19
-167
-261
-55
47
-197
-189
95
33
-131
14
-9
-60
157
131
82
244
371
299
263
429
330
303
570
545
387
583
690
318
385
729
276
68
434
245
39
117
-113
-175
57
20
-120
-153
-167
-271
-383
-165
-4
-153
-193
-151
-253
-353
-128
-29
-267
-184
-74
-392
-352
-58
-191
-259
-26
-87
-296
-176
-172
-304
-222
-56
-138
-250
-44
-75
-342
-102
-16
-244
-206
-90
-108
-265
-62
25
-275
-212
-90
-203
-150
-105
-292
-299
-49
-46
-244
-115
-93
-366
-226
-25
-186
-211
-99
-152
-210
-110
-70
-193
-243
-184
-199
-121
-36
-314
-478
-109
59
-175
-153
-38
-145
-215
-109
-75
-113
-20
36
-21
31
112
27
211
376
-17
-90
219
226
88
109
38
-186
-206
-139
-125
-113
-177
-223
-234
-197
-68
-181
-326
-156
-135
-202
-16
328
1109
2229
2913
2501
1347
389
-1
30
194
80
-167
-110
-63
-162
-167
-37
-43
-160
-147
-30
-109
-283
-53
-112
-289
-75
-174
-153
0
-111
-100
-121
-44
15
-37
104
72
-66
79
173
-44
-4
306
174
-18
325
415
181
281
381
397
431
552
437
176
475
531
356
491
442
236
223
355
124
-42
86
17
-56
-190
-116
-54
-280
-198
-154
-246
-88
-128
-340
-169
-38
-229
-189
-40
-340
-321
59
-92
-310
-144
-39
-254
-236
-52
-161
-252
-59
-118
-274
-54
-129
-266
-177
-27
-43
-145
4
-169
-197
-53
-188
-265
-165
73
-69
-248
17
-94
-423
-201
-38
-194
-160
-79
-189
-165
-102
-185
-218
-198
-230
-278
-130
12
-86
-206
-122
-111
-287
-129
-32
-256
-207
-153
-243
-220
-114
-60
-225
-90
110
-172
-138
57
-120
-135
119
169
31
132
292
140
-17
97
87
-38
113
80
-304
-207
16
-228
-335
-161
-193
-445
-379
-245
-232
-35
-88
-315
-234
102
764
1639
2556
2766
1865
748
185
69
78
171
-10
-168
-34
-80
-309
-170
-75
-327
-229
-56
-170
-310
-135
-75
-209
-80
-137
-323
-204
-55
-149
-78
63
-55
-144
-56
60
-156
-153
205
47
-47
184
228
134
156
270
147
124
402
408
313
523
577
416
487
601
398
312
431
322
252
257
151
9
75
78
-187
-205
-107
-129
-158
-42
-128
-313
-107
-20
-359
-377
11
-145
-391
-87
-123
-385
-153
-59
-302
-262
-33
-108
-323
-223
-178
-372
-161
-27
-275
-271
-169
-148
-176
-82
-117
-344
-132
50
-169
-194
-85
-245
-335
-63
-82
-278
-137
-102
-353
-271
-34
-270
-385
-115
-57
-219
-217
-79
-191
-350
-191
-168
-191
-120
-216
-230
-204
-159
-170
-220
-167
-241
-195
-75
-167
-265
-120
-46
-262
-247
-114
-165
-266
-140
-24
-243
-210
-3
-66
-106
48
50
-66
125
115
27
150
111
41
59
217
160
7
188
64
-355
-244
-59
-265
-248
-122
-258
-250
-111
-179
-323
-275
-185
-206
-235
156
1103
2181
2898
2910
2015
731
245
236
202
229
23
-150
-35
-109
-331
-194
-69
-189
-177
-136
-295
-249
19
-115
-289
-81
-54
-207
-210
-86
-72
-166
-6
-18
-185
-153
-40
14
-100
89
226
76
160
160
-32
160
391
224
276
538
463
304
536
639
459
483
495
437
590
654
340
211
338
265
83
82
125
-119
-121
-3
-169
-237
-127
-99
-282
-152
71
-224
-379
-101
-109
-240
-93
-92
-273
-230
-157
-269
-262
-124
-159
-325
-186
-64
-203
-121
-65
-219
-209
-114
-162
-173
-111
-106
-170
-79
-47
-311
-218
37
-150
-268
-102
-83
-222
-225
-161
-199
-178
-42
-85
-189
-37
-49
-253
-188
-96
-210
-188
-10
-148
-291
-135
-133
-177
-126
-96
-173
-175
-27
-74
-171
-113
-86
-142
-63
-57
-248
-188
59
-122
-314
-19
-19
-174
-64
-140
-177
-44
-4
-123
-203
48
173
33
125
187
28
178
442
294
98
221
214
17
103
240
63
-82
-3
-34
-192
-247
-190
-299
-238
14
-161
-177
18
-169
-222
-21
91
537
1596
2769
3188
2651
1578
442
65
383
485
58
-83
49
-140
-124
119
-55
-267
-12
-6
-167
-21
11
-155
-158
-12
-61
-175
-84
4
-88
-125
82
25
-179
73
42
-164
177
173
-29
209
333
117
92
366
302
155
383
510
252
293
643
530
446
674
576
439
589
609
454
423
429
124
67
362
141
-111
-58
41
2
-8
84
-129
-221
-76
-122
-202
-39
18
-201
-123
124
-162
-346
-40
-31
-213
-121
-56
-176
-195
-53
-84
-165
-34
-51
-160
-109
-143
-180
-133
20
-70
-238
100
6
-288
-85
-34
-119
-68
-52
-177
-248
-136
-123
-108
-13
-77
-113
-80
-35
-170
-307
-34
-20
-223
-65
-63
-244
-90
24
-172
-163
-22
-78
-126
-47
-47
-220
-238
-53
-150
-202
28
-75
-291
-50
61
-190
-188
-64
-140
-221
4
-23
-285
-34
73
-52
67
211
101
50
346
308
58
192
193
-36
13
44
21
115
40
-94
-182
-258
-155
-103
-241
-227
-186
-220
-78
-99
-273
-98
-30
50
1005
2199
2743
2620
1778
466
-190
5
206
-39
-31
120
-268
-187
122
-99
-204
30
-54
-265
-91
-37
-241
-220
2
-79
-188
-11
81
-183
-325
48
61
-146
17
38
7
206
208
-25
39
216
146
97
214
241
127
312
461
280
307
484
457
448
457
397
356
436
505
299
337
367
106
152
228
67
-169
-57
105
-111
-86
21
-117
-257
-151
-157
-348
-135
-23
-259
-202
-48
-206
-225
-31
-61
-236
-147
-5
-156
-169
-57
-146
-190
-24
-34
-321
-173
105
-176
-161
104
-49
-189
-122
-75
-177
-135
-60
-236
-176
13
-146
-200
-34
-204
-327
-37
13
-163
-184
-110
-157
-209
-125
-210
-270
-111
-115
-247
-174
-86
-129
-215
-108
-85
-246
-186
-109
-201
-214
-67
-185
-303
-114
-91
-253
-169
-46
-289
-292
36
-146
-248
1
-37
-32
112
153
27
53
243
60
-6
200
49
-119
55
70
-208
-181
-26
-269
-364
-140
-165
-322
-273
-247
-420
-394
-139
-130
-305
-197
444
1328
2334
2972
2402
1270
413
-48
-33
201
7
-203
-57
-122
-236
-191
-201
-267
-255
-159
-165
-272
-123
-9
-208
-211
-115
-183
-245
-120
-62
-195
-94
-80
-239
-71
92
-27
-142
-4
74
-23
13
188
134
46
269
158
54
434
443
284
491
610
500
453
518
432
378
478
396
220
184
231
21
-54
149
-1
-173
-151
-166
-100
-109
-191
-204
-209
-170
-175
-241
-244
-203
-271
-257
-175
-236
-226
-199
-301
-302
-145
-121
-298
-245
-37
-148
-166
-10
-168
-248
-155
-127
-124
-142
-130
-273
-183
20
-271
-450
-85
-26
-285
-174
-133
-320
-303
-40
-84
-304
-152
-255
-449
-77
-31
-267
-198
-86
-98
-298
-219
-188
-346
-127
-68
-327
-296
-183
-258
-247
-47
-62
-319
-179
-67
-241
-238
-199
-221
-290
-124
-130
-398
-73
32
-261
-190
-46
-151
-254
-279
-287
-109
63
112
-25
-21
83
-107
-44
268
179
-18
137
227
81
6
84
22
-143
-80
-101
-260
-264
-219
-415
-413
-97
-142
-338
-188
-162
-364
-238
55
413
1105
2347
3138
2772
1754
466
28
329
231
3
4
-94
-158
-145
-202
-229
-260
-206
-165
-275
-198
-39
-109
-254
-283
-120
-175
-195
37
-122
-234
21
-62
-259
-2
2
-229
40
175
-65
-1
180
62
-40
137
211
28
318
602
230
311
672
481
356
598
559
340
509
647
309
184
414
263
87
151
78
-30
-47
-54
-182
-172
28
-178
-233
-68
-223
-219
-92
-98
-321
-278
-48
-213
-283
-119
-229
-362
-117
-50
-323
-288
-24
-97
-205
-77
-118
-319
-204
-30
-165
-184
-7
-71
-260
-291
-109
-42
-225
-165
-183
-263
-76
-126
-213
-95
-178
-247
-133
-207
-277
-153
-37
-145
-261
-122
-185
-235
-115
-285
-313
-60
19
-255
-448
-76
4
-329
-214
-48
-232
-193
-51
-159
-153
-76
-176
-297
-165
-21
-232
-276
-39
-223
-351
-54
-48
-149
-64
-83
-195
-161
81
40
-159
119
158
-112
125
300
144
85
183
165
128
197
101
-22
-37
-28
-196
-259
-98
-220
-228
-56
-211
-327
-184
-120
-233
-257
-81
-82
173
1274
2318
2948
3079
2038
552
67
270
215
95
120
-62
-288
-157
-26
-205
-200
-26
-193
-290
-124
-88
-257
-196
10
-95
-166
-75
-170
-241
-90
-46
-119
-6
9
-234
-239
40
-9
-131
184
307
35
79
246
128
166
324
281
252
420
477
334
360
533
461
374
535
512
231
305
322
38
138
208
-85
-127
5
-139
-238
-37
-25
-209
-134
-92
-251
-218
-152
-287
-302
-136
-136
-301
-139
-39
-251
-216
-63
-140
-312
-196
-81
-282
-207
34
-88
-235
-94
-83
-253
-210
-67
-95
-45
15
-294
-221
73
-144
-293
-54
-38
-217
-68
-62
-277
-188
-46
-155
-269
-126
-76
-295
-298
-89
-69
-191
-92
-125
-210
26
-109
-263
-54
-148
-338
-189
61
-43
-340
-209
-63
-187
-111
-66
-217
-154
-81
-159
-229
-190
-141
-219
-112
-35
-93
-29
82
13
-75
140
196
5
156
398
132
-120
51
12
15
275
195
-70
-205
-162
-148
-202
-162
-238
-255
-135
-191
-361
-154
-40
-341
-195
222
867
1787
2592
2812
1880
680
125
-92
-32
252
56
-146
-36
-133
-219
-154
-8
-128
-213
-32
-97
-205
-109
-69
-180
-122
56
-171
-304
11
-8
-160
31
54
-149
-34
143
6
-70
121
111
-80
122
230
55
198
293
191
350
446
307
243
378
434
333
430
509
353
312
374
221
171
198
121
51
-43
-6
-45
-171
-84
-86
-223
-228
-258
-241
-106
-14
-161
-256
-108
-208
-334
-162
-62
-296
-225
-33
-279
-217
-5
-171
-301
-62
51
-163
-88
-67
-251
-104
-37
-111
-64
-32
-63
-205
-192
-40
-226
-203
6
-167
-262
-110
-20
-141
-128
-23
-199
-183
-57
-154
-184
-154
-130
-211
-124
-3
-258
-266
28
-119
-250
-62
-78
-221
-202
-74
-118
-267
-119
-150
-269
-48
-128
-211
-60
-107
-373
-295
91
-93
-281
-17
-61
-200
-79
-35
-164
-180
20
-7
-97
129
116
-41
253
327
-2
14
189
91
35
180
163
-45
-114
-57
-104
-264
-290
-172
-217
-238
-132
-277
-347
-179
-224
-193
-3
261
1135
2378
2999
2622
1636
515
-92
64
191
16
-84
-62
-135
-188
-138
-101
-173
-227
-15
-121
-278
-45
-75
-267
-186
-155
-212
-80
-8
-75
-114
-1
42
-217
-112
131
-96
-62
103
-37
24
176
103
-38
133
375
201
71
376
484
253
403
566
314
345
548
421
392
533
371
214
335
212
-3
120
102
-181
-179
3
-93
-193
-56
-95
-380
-364
-160
-212
-184
-37
-151
-332
-141
20
-279
-304
-29
-168
-246
-61
-98
-227
-175
-44
-138
-151
16
-167
-275
-23
-93
-238
-91
-46
-98
-106
-75
-101
-151
-140
-175
-173
-41
13
-198
-252
-166
-244
-154
-59
-132
-302
-237
-56
-160
-112
-31
-214
-229
-74
-155
-222
-92
-121
-252
-198
-100
-197
-250
-88
-117
-248
-169
-87
-188
-186
-82
-194
-253
-175
-136
-148
-103
-59
-160
-146
-81
-185
-153
-38
-94
-50
108
72
-48
89
290
139
49
142
-10
-61
170
203
-51
-124
-35
-158
-277
-139
-143
-340
-252
-193
-246
-240
-248
-228
-276
-74
-57
95
1221
2278
2830
2906
2017
659
96
288
269
4
-23
9
-192
-189
-54
-164
-230
-106
-143
-248
-97
-63
-179
-133
-122
-259
-288
-27
78
-112
-115
-28
-147
-111
54
-65
-103
178
113
-128
138
207
-19
152
305
102
151
431
361
258
407
475
380
396
564
483
340
519
571
468
445
302
83
84
191
47
9
75
-160
-233
-58
-48
-149
-244
-151
-135
-288
-89
-82
-420
-254
-2
-210
-241
0
-118
-403
-173
-60
-264
-109
-106
-252
-124
-29
-147
-228
-30
-90
-271
-93
-39
-141
-113
-110
-271
-224
29
-128
-301
-30
70
-219
-226
-4
-180
-311
-53
-140
-346
-92
-71
-256
-157
-113
-303
-321
-77
-159
-325
-153
-203
-332
-92
17
-287
-363
-60
-158
-368
-47
36
-219
-129
-62
-261
-257
-89
-140
-214
-194
-240
-279
-123
-25
-243
-235
-45
-101
-158
1
72
-47
50
195
-2
22
248
111
64
179
157
-6
71
246
-30
-213
-8
-115
-413
-220
-111
-385
-333
-52
-135
-319
-197
-166
-296
-133
41
446
1579
2744
3069
2604
1554
400
49
196
137
-67
-12
-33
-177
-106
-72
-158
-208
-89
-111
-243
-153
-153
-276
-236
-20
-60
-284
-78
4
-194
-62
83
-215
-289
68
35
-115
102
138
-158
24
301
132
100
257
234
168
402
445
214
340
524
405
382
567
550
366
473
480
232
279
346
154
17
113
108
-77
-71
-85
-296
-221
-69
-228
-245
-87
-177
-270
-76
-92
-294
-210
-99
-297
-375
-179
-207
-314
-341
-240
-170
-387
-283
-85
-171
-90
-32
-149
-128
-66
-307
-321
40
-109
-500
-268
41
-194
-192
45
-168
-277
-162
-226
-242
-44
-70
-312
-198
-101
-260
-254
-100
-122
-266
-251
-156
-207
-199
-130
-251
-252
-176
-219
-248
-126
-62
-193
-122
-62
-248
-179
-68
-235
-178
-97
-184
-245
-161
-56
-268
-213
47
-76
-256
-120
11
-36
21
44
-62
-2
164
160
114
227
259
47
-21
132
101
-3
221
103
-244
-107
-44
-267
-253
-107
-241
-268
-146
-169
-239
-292
-242
-253
-89
360
938
1974
2921
2778
1771
697
-16
-136
250
278
-162
-162
107
-106
-293
-29
-64
-381
-206
-4
-299
-214
49
-126
-169
-4
-35
-241
-171
-2
-224
-227
121
14
-130
66
24
-144
6
150
2
39
192
25
68
358
262
141
415
498
189
255
461
390
346
292
313
381
385
304
220
266
260
87
-25
-40
-200
-141
-9
-62
-211
-206
87
-106
-358
-152
-183
-324
-214
-171
-250
-158
-76
-222
-202
-139
-205
-194
-115
-32
-113
-195
-134
-100
-141
-99
-91
-161
-151
-115
-121
-120
-58
-111
-221
-168
-116
-180
-161
-218
-281
-109
-3
-134
-264
-113
-80
-211
-98
-205
-428
-228
-95
-223
-210
-108
-156
-234
-193
-157
-294
-243
-51
-214
-229
-24
-161
-272
-129
-169
-269
-125
-81
-179
-158
-73
-252
-319
-80
-178
-343
-202
-66
-122
-15
148
-62
-152
137
164
-3
106
279
155
-28
110
150
-51
82
169
-239
-376
-126
-152
-311
-188
-186
-310
-198
-171
-398
-384
-51
-170
-301
-26
396
1339
2440
2911
2395
1275
345
-79
-41
177
72
-127
-146
-79
-86
-196
-63
-164
-533
-164
106
-299
-241
-54
-200
-212
-86
-107
-69
-20
-173
-330
-91
199
-72
-113
129
-12
-162
2
133
47
158
154
-19
122
273
227
237
462
457
330
443
416
357
504
597
479
301
381
421
186
196
301
47
-27
102
-64
-184
-80
-123
-322
-224
21
-152
-331
-150
-105
-209
-137
-95
-192
-189
-160
-348
-286
-6
-167
-345
-42
13
-293
-156
-12
-247
-231
18
-85
-308
-110
-123
-279
-50
-100
-295
-142
72
-55
-290
-144
-68
-276
-158
-10
-297
-393
-94
21
-170
-242
-143
-223
-235
-68
-201
-309
-7
-148
-407
-3
-13
-366
-149
-10
-251
-264
-53
-154
-278
-132
-154
-273
-180
-44
-11
-92
-166
-216
-257
-94
-112
-301
-225
-123
-160
-201
-64
-102
-264
-83
-59
-135
23
91
-6
4
212
224
94
225
150
-89
16
119
16
27
87
-134
-293
-140
-130
-247
-225
-192
-249
-241
-89
-296
-487
-136
-120
-198
465
1407
2311
3036
2941
1678
232
102
423
159
76
74
-98
-99
-15
-148
-317
-253
-245
-347
-215
79
-133
-309
31
-142
-363
-69
-8
-183
-66
41
-90
-26
13
-166
-203
54
117
-68
56
318
6
-263
176
397
243
290
450
324
327
585
490
388
561
479
458
611
501
366
435
415
209
299
393
17
-287
48
212
-137
-135
46
-126
-126
40
-182
-305
-340
-275
-111
-212
-165
-148
-243
-76
-94
-267
-79
45
-366
-338
-21
-176
-118
6
-186
-202
36
10
-199
-93
-122
-393
-153
86
-70
-105
-2
-68
-230
-171
-45
-307
-363
-44
-49
-127
-49
-74
-195
-110
-28
-172
-309
-326
-212
-150
-116
-59
-214
-229
5
-147
-206
-21
-179
-229
-107
-213
-443
-235
-54
-232
-51
65
-176
-244
-78
-76
-220
-151
-99
-249
-213
-81
-178
-247
-57
-64
-235
-264
-197
-115
-50
218
84
-165
177
246
74
248
290
64
89
192
17
-56
67
-23
-111
-90
-134
-279
-305
-139
-241
-351
-188
-162
-280
-194
-108
-283
-198
359
1092
2045
2997
3033
2031
852
202
114
221
257
-13
-213
13
-61
-356
-134
21
-220
-310
-127
-55
-244
-141
1
-269
-228
37
-159
-180
82
-163
-318
22
40
-134
73
134
-50
-87
54
49
-32
254
244
25
310
449
226
206
517
483
289
537
626
474
556
545
228
345
631
356
244
385
110
-24
170
116
-122
-86
6
-181
-273
-175
-137
-204
-121
-71
-285
-273
-67
-126
-383
-276
-97
-246
-183
-47
-191
-211
-49
-202
-406
-174
-146
-301
-96
11
-159
-173
-57
-128
-247
-260
-115
-209
-249
-9
-204
-230
-24
-157
-290
-215
-241
-357
-140
-40
-211
-168
-49
-149
-350
-240
-164
-359
-253
-39
-195
-198
-54
-374
-400
-15
-224
-466
-113
8
-198
-133
70
-195
-449
-150
-193
-354
-118
-28
-236
-340
-80
-93
-270
-155
-244
-257
-9
-61
-248
-154
-44
-39
-21
91
77
-33
144
269
71
-14
157
121
8
82
56
-134
-129
-24
-230
-310
-26
-103
-394
-256
-137
-330
-306
-77
-172
-267
-13
83
556
1743
2589
2750
2256
969
-118
-142
212
166
-159
-86
40
-174
-108
-34
-288
-217
52
-155
-317
-169
-106
-127
-126
-48
-186
-156
101
-69
-223
-109
-5
-95
-87
110
3
8
221
35
-86
130
88
71
238
272
285
232
257
361
362
418
347
302
492
598
459
342
446
314
163
358
370
77
7
46
-198
-188
9
-130
-253
-189
-138
-191
-185
-63
-228
-268
-91
-238
-301
-85
-138
-378
-221
-67
-264
-123
50
-283
-345
-24
42
-149
-133
-50
-206
-226
-18
-91
-215
-18
-9
-226
-174
-106
-273
-192
128
-26
-266
-134
-68
-193
-206
-134
-178
-184
-109
-123
-275
-175
-51
-289
-251
-45
-245
-282
-44
-279
-381
-48
-134
-251
-33
-34
-212
-235
-90
-97
-265
-101
-64
-287
-315
-363
-297
-189
-92
-37
-164
-63
-5
-170
-97
1
-124
-75
129
123
15
202
300
47
14
106
-17
-104
46
130
-15
-116
-217
-267
-143
-207
-347
-318
-186
-201
-346
-195
-85
-293
-228
-91
22
798
2069
2839
2646
1846
553
-228
-21
142
69
8
-13
-97
-267
-223
-181
-288
-144
-52
-286
-216
-97
-285
-185
11
-84
-268
-178
-47
-81
-231
-185
-9
-72
50
70
-175
-75
180
42
-78
142
130
-20
159
361
209
227
449
313
341
532
441
337
414
533
480
449
533
352
183
386
313
27
170
136
-224
-171
-5
-154
-223
-115
-135
-222
-127
-143
-379
-306
-137
-222
-224
-182
-269
-282
-146
-99
-222
-244
-170
-236
-291
-124
-132
-317
-190
-159
-276
-70
-10
-426
-417
83
-44
-298
-70
-87
-301
-204
-86
-131
-153
-187
-229
-141
-93
-141
-278
-234
25
-177
-327
-115
-189
-299
-316
-262
-174
-88
-37
-201
-176
-24
-115
-201
-169
-186
-258
-162
-87
-318
-248
6
-180
-369
-133
-73
-399
-247
51
-195
-170
-11
-210
-237
-82
-34
-222
-151
89
-46
-168
-5
64
-20
134
334
164
-16
102
54
122
276
60
-11
59
-105
-313
-211
-136
-336
-343
-63
-78
-266
-155
-172
-310
-174
-72
-238
-53
1046
2024
2810
3219
2244
812
212
289
181
40
14
-125
-276
-198
-82
-157
-150
-54
-158
-240
-117
-262
-409
-30
-40
-332
-94
29
-252
-176
99
-124
-267
-68
-52
-125
-8
32
-70
4
222
67
3
339
262
-8
98
354
256
235
504
435
316
628
729
347
392
735
573
324
474
446
146
158
224
-27
10
180
-137
-296
-47
-102
-283
-89
-169
-390
-180
8
-115
-271
-225
-179
-231
-214
-187
-267
-259
-124
-161
-172
-148
-246
-234
-141
-152
-298
-191
-58
-243
-237
-76
-180
-189
-22
-180
-344
-183
-186
-222
-90
-121
-216
-174
-140
-191
-227
-183
-173
-306
-200
-58
-171
-264
-242
-202
-279
-209
-129
-254
-200
-54
-166
-288
-241
-297
-318
-148
-40
-182
-264
-164
-286
-214
71
-231
-568
-243
6
-209
-206
11
-149
-300
-118
-142
-261
-146
-213
-326
-84
132
19
-97
163
234
-52
38
167
44
24
208
141
-75
134
143
-94
-111
-144
-247
-239
-186
-300
-314
-223
-234
-250
-260
-141
-219
-309
-62
125
722
1947
3014
3042
2259
1135
110
25
248
121
26
33
-45
-183
-196
-206
-264
-237
-104
-50
-199
-167
-154
-254
-137
-79
-345
-303
76
-54
-230
-43
-94
-242
-46
125
-33
-82
69
28
7
132
134
47
199
232
24
212
481
399
303
454
506
378
490
605
428
332
465
567
452
360
385
184
34
59
-51
-25
52
-92
-242
-229
-134
-214
-178
-53
-290
-278
-50
-263
-383
-60
-68
-288
-161
-41
-233
-308
-136
-252
-331
-149
-127
-218
-97
39
-244
-446
-134
-51
-162
-48
-88
-304
-219
32
-108
-274
-91
-67
-260
-117
-113
-366
-201
-60
-280
-187
-5
-343
-368
10
-145
-338
-135
-21
-182
-386
-222
-116
-249
-170
-6
-213
-331
-66
-207
-349
-43
-89
-309
-237
-227
-235
-170
-74
-193
-305
-94
-97
-274
-192
-93
-195
-209
-71
-46
-63
89
106
-74
87
240
-13
20
145
-56
64
243
22
-126
-19
-45
-284
-298
-150
-179
-324
-190
-136
-425
-325
-111
-253
-219
-131
-113
521
1620
2493
2808
2297
991
-48
-116
73
3
-60
32
-108
-227
-63
-144
-313
-175
-149
-358
-280
-14
-49
-278
-136
14
-266
-220
25
-158
-267
-38
-33
-173
17
60
-146
-105
-37
-73
5
147
132
79
145
237
151
173
416
276
272
539
311
97
384
542
367
374
548
422
319
339
136
9
-72
-52
3
-18
-1
-103
-181
-108
-130
-239
-143
-124
-291
-224
-68
-295
-352
-73
-133
-220
-105
-179
-318
-168
-183
-248
-72
-188
-160
-61
-128
-96
-196
-116
4
-179
-192
-75
-105
-192
-145
-56
-249
-262
-23
-217
-284
-2
-70
-325
-238
-87
-132
-127
-217
-335
-196
-11
-190
-354
-135
-142
-281
-124
-75
-243
-191
-98
-294
-317
-208
-205
-143
-105
-155
-196
-216
-193
-255
-310
-68
-50
-292
-211
-161
-246
-186
-151
-175
-125
-26
39
-36
-107
-15
-68
72
430
80
-163
268
205
-114
-24
28
-149
-182
0
-190
-484
-252
-171
-401
-305
-75
-296
-538
-174
-59
-372
-239
417
1247
2202
2910
2581
1320
244
-60
-119
-14
120
-70
-182
-61
-137
-312
-294
-277
-269
-221
-350
-413
-114
34
-189
-196
-36
-282
-423
-91
-62
-264
-147
-39
-107
-123
-11
-42
-158
-6
-19
-168
53
210
64
40
262
217
97
311
390
280
393
595
457
401
534
418
363
477
405
148
155
283
86
-60
30
-59
-178
-153
-204
-182
-81
-79
-221
-286
-120
-166
-267
-180
-219
-252
-196
-156
-258
-279
-181
-207
-275
-247
-126
-297
-286
-48
-175
-254
-121
-141
-312
-162
-43
-231
-111
-4
-279
-284
-37
-138
-237
-141
-299
-295
-18
-42
-312
-335
23
-99
-367
-65
-176
-426
-194
-110
-178
-336
-234
-47
-296
-278
-93
-264
-354
-206
-271
-317
-39
-139
-321
-138
-145
-221
-247
-206
-219
-375
-247
-100
-209
-194
-128
-241
-399
-244
-67
-260
-111
16
-293
-158
61
-143
-18
255
-93
-224
196
193
24
148
140
21
38
137
66
-118
-130
-212
-283
-146
-185
-400
-272
2
-265
-411
-152
-272
-384
-133
-66
2
763
1843
2684
3022
2475
1088
51
125
290
10
12
65
-206
-171
-130
-227
-159
-140
-205
-286
-147
3
-230
-266
-27
-157
-363
-214
6
-160
-328
-78
-159
-231
164
81
-204
17
135
-99
-19
238
117
-40
111
208
134
306
395
227
356
444
353
372
570
666
369
409
714
505
306
494
375
123
158
33
-129
-21
32
-178
-235
-12
-97
-197
-109
-233
-252
-33
-136
-327
-146
-99
-272
-255
-49
-103
-326
-198
-84
-308
-397
-133
-91
-217
-42
-117
-400
-158
-14
-370
-155
137
-169
-285
-140
-168
-233
-29
-24
-263
-143
-81
-198
-181
-212
-78
-180
-252
-49
-220
-217
-75
-169
-220
-125
-125
-287
-171
-41
-170
-133
-32
-226
-428
-125
-81
-265
10
-29
-232
-103
-63
-258
-270
-39
-89
-283
-204
-53
-134
-164
-71
-261
-294
-2
-19
-337
-207
88
-44
-26
63
-75
-44
170
167
16
179
291
45
81
231
-21
-64
205
58
-165
-100
-76
-144
-222
-121
-92
-222
-137
-137
-310
-214
-20
-175
-248
-34
241
1047
2264
3045
2838
2026
1028
231
69
224
199
73
162
-65
-315
11
68
-292
-255
-25
-122
-215
-54
16
-233
-302
-70
-120
-139
22
-71
-203
-7
62
-50
1
35
-15
-1
170
76
-83
109
250
127
150
257
167
286
505
374
247
492
615
440
595
737
519
443
504
512
411
419
373
86
58
185
8
-98
28
-123
-248
24
112
-204
-212
15
-129
-244
-139
-103
-152
-118
-102
-196
-143
-110
-206
-141
-98
-239
-146
23
-161
-259
-124
-193
-181
16
44
-105
-210
-39
-22
-126
-60
-25
-230
-306
-60
-106
-140
28
-80
-193
-27
-1
-278
-277
-15
-93
-275
-19
-37
-354
-83
77
-159
-87
8
-212
-255
-75
-87
-203
-140
-110
-288
-114
-29
-299
-167
-1
-155
-273
-34
9
-341
-211
31
-77
-110
-18
-112
-220
-32
-182
-329
57
100
-88
-51
86
74
-48
248
397
24
46
256
-8
-24
293
131
-149
-6
26
-264
-299
-145
-236
-244
-45
-169
-397
-171
-36
-304
-308
9
111
581
1832
2731
2756
2229
1028
-21
-20
227
82
-33
95
-58
-264
-53
-48
-342
-275
-54
-154
-217
-70
-4
-160
-200
49
-21
-136
-33
-121
-105
-9
-31
-141
-120
89
-45
-54
159
-171
-177
320
277
54
140
237
229
361
375
163
391
634
358
208
518
574
361
505
590
360
172
337
340
89
180
197
-142
-180
18
-128
-219
-36
-93
-190
-58
-54
-208
-183
-106
-166
-183
-184
-179
-221
-186
-112
-169
-139
-126
-195
-162
-28
-118
-324
-32
98
-190
-152
-110
-244
-21
143
-148
-236
-16
13
-247
-170
-12
-283
-165
72
-146
-303
-151
-35
-161
-83
-30
-263
-318
-207
-165
-183
-107
-31
-203
-190
-55
-309
-301
-60
-127
-272
-284
-190
-195
-203
-75
-129
-257
-82
-128
-362
-249
-104
-200
-268
-82
-113
-262
-56
-90
-341
-176
-32
-230
-152
-18
-276
-312
-42
27
-124
-36
197
137
65
195
137
-59
44
190
-28
-35
98
-144
-101
19
-254
-386
-209
-219
-381
-169
-112
-388
-295
-91
-262
-366
-29
196
709
1846
2704
2750
2004
886
-14
-18
328
78
-138
91
-49
-335
-164
-22
-162
-245
-98
-125
-244
-123
-143
-275
-148
-71
-279
-288
11
38
-274
-231
61
-2
-38
105
-78
-146
135
88
18
89
85
24
191
384
92
142
353
367
405
296
412
507
542
667
529
448
574
469
235
285
364
166
88
133
-66
-122
72
-33
-397
-199
-6
-239
-124
-19
-212
-296
-125
-184
-316
-144
-65
-218
-175
-13
-278
-331
-82
-164
-251
-173
-201
-200
-117
-72
-117
-329
-75
84
-234
-118
13
-187
-274
-119
-101
-206
-43
-103
-330
-130
-80
-267
-149
-1
-221
-332
-14
-60
-371
-144
5
-310
-361
-131
-133
-202
-131
-183
-307
-171
-189
-343
-187
-81
-181
-175
7
-107
-305
-121
-134
-335
-121
8
-298
-314
-69
-83
-168
-86
-134
-333
-224
22
-60
-271
-188
-113
-198
-65
43
-201
-268
-109
-69
-37
55
72
-19
143
252
63
144
276
71
4
184
68
-50
264
259
-245
-229
50
-200
-246
-90
-217
-316
-155
-142
-369
-176
-53
-190
-141
-83
374
1302
2329
3111
2894
1793
672
129
125
215
213
110
38
-32
-148
-205
-253
-216
-73
-23
-159
-211
20
-26
-379
-197
37
-169
-132
58
-92
-153
61
41
-144
-159
20
59
-43
89
105
-48
80
209
130
233
388
170
186
504
355
326
619
642
470
480
605
448
478
596
430
361
501
488
116
111
218
-136
-105
156
-38
-212
-140
-120
-220
-146
-29
-253
-278
-33
-67
-276
-290
-143
-227
-168
13
-142
-280
-149
-115
-258
-180
-83
-261
-258
19
-292
-392
91
-27
-252
-45
41
-179
-202
-127
-232
-206
-144
-224
-150
41
-63
-261
-142
-56
-234
-256
-146
-230
-289
-80
-15
-257
-258
-10
-155
-284
-109
-166
-264
-129
-45
-216
-237
-131
-335
-289
25
-101
-164
-55
-170
-271
-141
-28
-240
-262
-9
-193
-407
-80
-44
-230
-109
-155
-322
-192
-101
-219
-223
-86
7
-117
-138
79
10
-79
178
128
13
186
173
24
87
212
-14
-95
198
63
-250
-209
-152
-210
-159
-173
-321
-279
-44
-151
-447
-207
-88
-325
-198
177
790
1773
2770
3107
2354
1178
295
-74
116
259
-44
-287
-88
-60
-265
-97
-37
-296
-218
-21
-233
-346
-77
-64
-240
-46
35
-208
-201
-96
-148
-134
-75
-56
-117
-36
61
-141
-53
92
-111
-89
178
291
174
231
318
140
257
510
456
416
433
337
357
525
557
412
362
445
443
324
297
266
0
28
141
-69
-5
109
-155
-170
-48
-192
-259
-115
-69
-280
-248
-149
-264
-261
-112
-61
-208
-235
-160
-269
-171
19
-232
-278
-15
-156
-340
-78
90
-214
-269
-23
-223
-327
-22
-57
-207
-60
-40
-253
-263
-51
-102
-198
-94
-155
-251
-105
-57
-258
-224
-12
-252
-363
-100
-172
-192
-88
-31
-144
-174
-46
-284
-290
-42
-156
-293
-66
27
-251
-260
-95
-282
-251
1
-172
-235
-50
-50
-165
-135
-33
-191
-250
-30
-50
-208
-102
-13
-131
-129
11
18
4
97
110
-2
130
338
86
2
268
154
25
197
40
-162
4
-147
-371
-135
-38
-240
-315
-191
-201
-339
-129
-77
-354
-213
105
394
1083
2230
2944
2499
1470
434
-150
-73
195
101
-155
-174
-161
-135
-73
-29
-152
-213
23
-173
-400
-24
17
-207
-75
-25
-213
-158
63
-75
-165
6
-152
-190
39
60
-49
41
154
-56
0
320
184
35
212
300
232
229
403
379
326
539
553
325
393
511
424
477
578
387
269
387
192
-7
113
70
-107
-2
119
-150
-293
-65
-79
-257
-104
-27
-356
-278
-16
-221
-212
-47
-140
-187
-156
-139
-252
-182
-49
-244
-178
39
-66
-218
-96
-43
-323
-184
133
-174
-280
140
26
-402
-104
140
-193
-209
26
-62
-210
-92
-102
-221
-34
-75
-320
-132
42
-225
-312
-85
-145
-296
-74
-15
-270
-229
-58
-144
-292
-121
-23
-192
-235
-123
-194
-133
67
-249
-314
-15
-133
-265
-76
-41
-230
-189
-80
-167
-140
-10
-130
-275
-94
-66
-220
-144
-111
-132
-146
-59
30
-87
47
204
27
185
447
110
-34
238
67
-119
123
44
-118
103
88
-208
-264
-98
-145
-304
-182
-129
-231
-181
-81
-163
-344
-246
-79
269
1352
2488
2871
2636
1701
481
45
71
116
85
114
113
-316
-302
24
-156
-274
44
-79
-342
-69
5
-240
-218
-76
-190
-204
-76
-102
-142
36
104
-95
-53
22
-147
-77
159
121
-37
69
192
118
204
335
197
124
365
337
198
535
612
349
471
545
385
482
624
546
413
346
298
268
297
167
-85
-81
123
39
-204
-125
-32
-297
-272
-48
-210
-284
-118
-80
-192
-204
-199
-322
-278
-205
-326
-199
-11
-211
-341
-71
15
-220
-165
-21
-185
-229
-59
-48
-225
-161
-20
-240
-263
-47
-173
-234
16
-124
-321
-10
-25
-335
-115
3
-277
-224
-50
-188
-316
-173
-86
-280
-223
-12
-192
-264
-98
-150
-208
-50
-91
-297
-265
-86
-131
-226
-52
-98
-325
-96
-37
-311
-123
62
-337
-380
5
-61
-92
-111
-175
-187
-172
-71
-226
-270
-46
-79
-278
-239
-68
-41
-115
-46
30
-84
-114
54
106
58
121
101
169
361
129
-97
133
227
89
148
147
-173
-216
-77
-212
-233
-166
-221
-254
-128
-99
-231
-155
-182
-362
-238
206
979
1826
2698
3214
2395
1006
376
203
158
288
163
-119
-96
-98
-254
-177
-119
-254
-241
-2
-87
-373
-219
-141
-163
-31
-26
-152
-250
-7
7
-311
-55
49
-266
-73
108
-16
-108
34
146
-14
108
329
240
125
187
188
180
433
360
336
668
532
376
568
679
469
414
614
440
197
288
314
79
22
159
-18
-161
-10
-114
-237
-50
-55
-291
-235
-140
-239
-159
-62
-110
-229
-232
-136
-231
-219
-46
-172
-311
-93
-55
-344
-283
-78
-195
-170
4
-144
-396
-183
-46
-227
-42
27
-160
-133
-112
-171
-163
-25
-90
-284
-130
-43
-189
-146
-18
-63
-206
-168
-109
-243
-194
-83
-152
-182
-131
-164
-193
-79
-94
-177
-127
-110
-222
-271
-115
-137
-174
-45
-162
-233
-195
-229
-148
-17
-92
-231
-171
-6
-143
-284
-87
51
-114
-150
-5
-148
-177
9
-77
-253
-90
107
-209
-317
10
33
84
107
-78
57
354
383
239
154
227
137
44
266
139
-126
38
0
-261
-176
-149
-292
-263
-194
-152
-257
-243
-101
-333
-219
-17
-158
501
1739
2789
3234
2658
1355
278
140
367
167
-35
150
69
-254
-173
-148
-364
-225
-50
-196
-179
11
-193
-381
-132
-40
-147
-92
-40
-178
-215
46
2
-265
-111
74
-73
-41
206
-199
-295
306
225
67
226
301
258
229
408
355
158
487
641
366
589
681
409
416
483
405
375
541
362
67
235
241
-56
-67
112
-160
-251
100
-56
-358
-116
28
-235
-147
8
-185
-256
-119
-64
-177
-148
-127
-277
-195
-278
-425
-185
-101
-85
-68
-46
9
-150
-179
-56
-57
-157
-122
-116
-195
-66
-43
-183
-123
-1
-106
-187
-53
-64
-278
-136
66
-214
-273
-118
-221
-238
-132
-199
-305
-132
-51
-332
-256
125
-79
-293
-17
-84
-319
-103
23
-171
-195
-114
-231
-244
-55
-95
-223
-160
-90
-129
-209
-106
-44
-227
-80
-35
-323
-70
-62
-358
-103
64
-181
-241
21
54
-126
-30
252
115
32
240
181
178
304
160
-21
-16
74
187
97
10
-55
-169
-74
-107
-328
-127
21
-240
-209
-76
-201
-243
-159
-160
-40
518
1447
2289
2922
2787
1414
255
107
120
43
93
44
-163
-145
24
-199
-339
-29
1
-160
-147
-111
-218
-223
124
-20
-427
-89
78
-99
-24
22
-118
-180
31
87
-10
89
74
-19
129
176
28
59
242
264
213
330
380
270
441
595
337
290
475
444
432
567
479
285
380
380
205
232
225
2
-34
41
-208
-231
55
-49
-193
-62
15
-155
-179
28
-278
-528
-191
-62
-195
-215
-105
-143
-195
-113
-287
-325
-22
21
-164
-141
81
-48
-244
-25
-135
-306
-118
6
-75
-132
24
-116
-313
-72
-34
-246
-126
-164
-317
-146
-10
-120
-148
58
-101
-375
-134
-33
-243
-161
-142
-248
-192
-56
-147
-320
-160
-89
-234
-245
-100
-97
-193
-111
-223
-335
-47
28
-162
-204
-133
-232
-325
-145
-71
-204
-130
-62
-220
-214
-76
-96
-189
-114
9
25
98
121
23
76
308
243
-16
58
112
7
105
163
-95
-64
24
-389
-517
-114
-86
-342
-215
-55
-248
-330
-135
-184
-340
-95
305
902
2024
2918
2671
1675
685
-8
-100
165
126
-108
19
4
-314
-368
-247
-166
-275
-250
-119
-208
-161
-42
-105
-218
-188
-179
-244
-97
-14
-177
-77
66
-12
-61
-87
-84
-97
43
137
9
54
147
58
106
205
203
145
321
609
363
301
643
474
423
644
373
298
530
459
309
334
376
135
-72
185
68
-414
-135
51
-271
-140
-18
-272
-267
-73
-130
-388
-337
-71
-227
-172
-82
-414
-231
-22
-201
-258
-191
-149
-214
-146
-119
-288
-246
-125
-170
-168
-172
-178
-163
-212
-123
-137
-157
-12
-191
-312
-93
-105
-228
-115
-49
-183
-270
-172
-190
-299
-129
-162
-350
-171
-97
-259
-176
-173
-478
-386
-52
-96
-224
-109
-100
-263
-268
-129
-232
-396
-102
-39
-345
-292
-133
-224
-255
-79
-242
-400
-112
-136
-336
-239
-93
-198
-248
-18
-215
-331
110
-43
-288
3
104
51
85
258
207
-10
117
112
-139
83
214
-130
-132
-26
-180
-305
-151
-274
-633
-273
-123
-408
-250
-76
-263
-318
-72
20
502
1740
2759
2953
2399
1297
282
-9
258
205
-59
-14
-145
-293
-252
-162
-195
-266
-135
-128
-220
-195
-188
-241
-238
-79
-51
-158
10
-42
-273
-91
74
-167
-133
148
-237
-257
172
-6
-107
69
186
173
229
360
185
199
444
272
245
497
331
285
602
640
557
474
456
515
443
359
382
302
40
-29
-5
38
67
-52
-160
-149
-154
-283
-203
-56
-177
-288
-167
-196
-469
-273
-119
-318
-157
-25
-143
-248
-132
-74
-241
-159
-80
-281
-266
-44
-164
-309
-120
-39
-131
-200
-293
-339
-184
46
0
-176
-136
-81
-196
-255
-57
-104
-244
-88
-123
-223
-75
-123
-419
-231
9
-205
-246
-105
-156
-316
-202
-104
-235
-166
-123
-242
-182
-16
-99
-304
-139
-24
-233
-181
-202
-357
-120
28
-154
-255
-110
-59
-291
-252
-28
-225
-251
-42
-180
-157
71
153
20
-5
187
112
59
272
196
31
167
182
57
57
37
-77
-102
-74
-184
-328
-218
-143
-303
-275
-126
-211
-345
-223
-218
-228
-8
315
995
2155
3107
2917
2011
920
157
90
249
233
-112
-161
33
-212
-262
-64
-219
-287
-89
-38
-240
-232
-77
-287
-310
8
-119
-206
57
6
-299
-238
98
66
-115
-4
95
-59
49
168
43
148
226
-17
6
317
180
171
458
357
292
455
525
436
401
641
633
337
479
558
314
314
389
236
16
30
18
-102
-24
-30
-210
-103
20
-205
-274
-136
-192
-264
-115
-144
-275
-179
-89
-190
-266
-209
-243
-187
-25
-79
-250
-199
-83
-145
-177
-62
-68
-253
-140
-29
-230
-154
-43
-229
-163
42
-155
-293
-131
-101
-144
-167
-183
-255
-234
27
-80
-350
-151
-3
-219
-227
-70
-240
-253
-74
-209
-329
-149
-39
-244
-260
-121
-265
-279
-144
-213
-281
-95
-29
-264
-268
-45
-145
-245
-82
-249
-360
-12
88
-113
-58
10
-62
-1
83
60
76
216
251
41
-4
124
59
13
73
-9
-216
-232
-161
-337
-364
-98
-160
-276
-162
-258
-316
-185
-155
-223
-73
390
1121
2229
3112
2770
1388
245
-22
-35
13
183
23
-177
-112
-169
-319
-159
-193
-332
-133
-184
-273
-119
11
-102
-287
-90
37
-198
-241
-16
-83
-178
-36
-64
-48
65
-17
-129
54
174
-50
7
195
82
116
348
303
158
211
279
233
344
611
503
345
525
541
347
375
472
303
187
202
91
35
-8
-89
-189
-173
-35
-192
-324
-176
-109
-218
-197
-124
-307
-308
-104
-148
-245
-129
-200
-394
-147
-41
-345
-321
-118
-137
-149
-155
-218
-269
-92
-13
-273
-206
-79
-295
-291
-22
-171
-307
-49
0
-240
-325
-107
-192
-330
-75
-137
-334
-171
-160
-372
-281
-41
-183
-312
-79
-198
-366
-141
-128
-313
-357
-150
-132
-253
-81
-161
-425
-219
1
-268
-272
-101
-284
-254
-98
-122
-205
-211
-143
-225
-168
95
-40
-166
41
36
-106
7
141
74
143
190
8
39
145
-87
-113
79
-25
-231
-214
-112
-239
-358
-236
-288
-420
-171
-87
-292
-216
-48
-180
-126
749
1636
2413
3028
2359
1004
73
20
195
126
162
-59
-266
-93
-55
-231
-211
-88
-224
-322
-121
-21
-210
-208
-49
-252
-250
-26
-195
-251
-61
14
-182
-274
-82
-118
-137
-28
38
72
131
154
128
170
171
115
165
371
316
183
456
506
308
499
625
414
436
612
510
343
424
347
-68
193
503
43
-42
44
-189
-171
5
-92
-269
-131
-79
-231
-149
-200
-270
-169
-158
-171
-274
-234
-127
-315
-218
-42
-282
-289
-68
-63
-223
-284
-191
-215
-106
22
-198
-227
-10
-90
-283
-95
32
-214
-288
-222
-223
-116
-12
-81
-258
-194
-122
-337
-285
-93
-171
-154
-115
-199
-268
-234
-192
-335
-239
6
-86
-176
-103
-175
-311
-181
-118
-215
-169
-77
-113
-263
-229
-179
-303
-148
-10
-239
-276
-143
-174
-237
-107
-83
-258
-154
-56
-203
-236
-104
49
27
49
67
-10
154
292
157
71
181
25
-36
243
72
-135
-6
-24
-234
-209
-48
-292
-455
-207
-153
-310
-324
-216
-240
-264
-151
-216
113
1271
2320
2842
2900
2044
647
98
261
127
-92
33
48
-212
-132
-71
-268
-187
-198
-378
-228
-46
-104
-267
-157
-22
-242
-229
32
-126
-301
-30
-35
-191
-26
20
-165
-107
82
-3
-19
111
99
15
103
236
135
144
393
183
61
617
647
355
450
553
506
491
560
495
418
487
378
161
194
184
-29
-63
61
-26
-196
-64
-94
-342
-216
-108
-191
-176
-107
-275
-418
-213
-122
-105
-116
-214
-222
-245
-129
-178
-303
-86
-70
-329
-282
-42
-160
-259
-67
-134
-225
-52
-63
-284
-258
-29
-222
-311
-24
-167
-274
-30
-76
-290
-162
2
-205
-309
-111
-184
-307
-180
-158
-242
-148
-22
-178
-266
-134
-196
-218
-78
-201
-300
-76
-27
-296
-323
-98
-159
-289
-194
-196
-240
-200
-92
-197
-242
-56
-239
-289
-90
-199
-329
-141
-43
-287
-159
107
-49
-35
110
50
57
104
93
-3
26
217
125
-13
100
66
4
-31
-267
-287
-154
-124
-206
-313
-152
-115
-322
-199
-140
-312
-285
-115
-148
2
1026
2178
2858
3056
2325
862
93
281
276
50
78
15
-204
-164
-72
-142
-278
-250
-137
-212
-117
-43
-242
-149
-20
-203
-299
-207
-210
-158
84
60
-180
-86
54
-94
-78
79
-5
-89
100
149
10
160
291
113
165
389
316
251
424
471
363
484
676
460
387
600
414
304
423
357
266
142
109
-12
-217
-38
-134
-254
62
-57
-402
-190
-15
-272
-301
-108
-228
-349
-92
-119
-350
-258
-145
-232
-314
-207
-236
-313
-154
-123
-240
-194
-240
-317
-148
-70
-132
-227
-160
-117
-260
-145
-27
-266
-275
-81
-155
-270
-176
-136
-347
-270
-69
-247
-322
-167
-193
-291
-167
-138
-398
-283
47
-170
-321
-159
-291
-349
-108
-156
-302
-206
-32
-158
-302
-123
-254
-369
-125
-79
-283
-205
-38
-252
-313
-79
-127
-328
-131
-43
-307
-225
-39
-197
-180
19
-104
-241
5
128
-166
-20
254
33
36
277
244
-6
8
176
46
-21
20
-147
-284
-153
-177
-333
-172
-222
-388
-197
-94
-261
-267
-81
-150
-220
402
1478
2347
2994
2855
1488
227
66
96
-5
119
35
-199
-153
22
-194
-320
1
-155
-314
3
-97
-327
-242
-131
-208
-175
34
-59
-246
-181
-48
-166
-75
66
-118
-87
52
56
-8
111
176
-36
56
334
232
198
391
287
192
435
500
347
462
580
448
527
641
366
262
438
370
181
229
350
36
-135
169
32
-124
-16
-170
-261
-204
-63
-87
-190
-73
-178
-266
-176
-160
-192
-178
-38
-139
-272
-61
-52
-311
-188
-33
-253
-184
-34
-157
-187
-104
-154
-228
-51
24
-216
-205
-48
-201
-191
19
-55
-259
-246
-221
-213
-64
-22
-203
-250
41
-74
-366
-132
-92
-256
-234
-197
-166
-188
-84
-118
-251
-113
-89
-232
-222
-141
-204
-227
-143
-189
-244
-73
-166
-474
-238
-4
-188
-225
-81
-173
-311
-67
12
-185
-44
130
-60
-6
246
111
1
101
182
102
84
152
-3
-50
47
-148
-293
-104
-93
-331
-286
-99
-253
-271
-32
-240
-491
-277
-208
-296
26
821
1710
2578
2988
2267
717
-236
-151
-60
77
190
-89
-241
-53
-79
-233
-18
-29
-334
-264
-184
-314
-204
-38
-185
-245
-34
17
-173
-182
-40
-111
-148
-12
-42
-159
4
72
-171
12
139
-135
-94
95
311
104
-15
331
267
271
493
485
443
523
450
354
594
587
302
407
498
190
87
196
62
-93
16
55
-217
-160
17
-189
-235
-164
-214
-274
-294
-218
-201
-211
-134
-187
-272
-191
-219
-256
-109
-167
-303
-166
-56
-175
-263
-176
-195
-224
-165
-239
-302
-138
19
-136
-248
-146
-183
-242
-112
-82
-233
-250
-78
-116
-343
-199
-204
-361
-107
-69
-265
-213
-117
-208
-294
-143
-55
-238
-175
-60
-287
-388
-186
-202
-293
-98
-142
-295
-159
-130
-239
-138
-40
-215
-282
-177
-174
-257
-243
-96
-115
-155
-83
-194
-218
-65
-80
-157
1
32
-146
47
274
85
-32
189
244
47
100
181
-35
-35
37
-115
-1
-49
-264
-239
-220
-67
-144
-350
-144
-174
-299
-114
-189
-314
-111
288
974
2120
3023
2850
1874
787
200
35
96
195
-55
-134
24
-151
-312
-113
-116
-278
-92
-44
-236
-136
-63
-262
-264
-83
-112
-232
-86
21
-189
-204
55
-73
-304
-42
7
-113
66
78
-153
-22
447
305
64
299
359
225
320
504
351
381
609
496
407
570
643
485
484
521
363
383
405
168
5
189
128
-196
-139
-66
-215
-346
-68
25
-210
-17
-11
-298
-267
-172
-147
-89
-105
-163
-199
-135
-129
-232
-154
-94
-185
-132
-84
-201
-184
-97
-134
-236
-100
132
-156
-275
-7
-207
-308
-41
-42
-229
-148
19
-217
-240
4
-152
-236
-56
-52
-212
-181
-46
-210
-145
-7
-244
-258
-46
-67
-232
-138
-54
-251
-254
-67
-115
-329
-229
26
-138
-141
-6
-264
-248
29
-86
-202
-14
-35
-245
-156
-21
-183
-226
-6
-70
-237
-37
10
-146
18
168
94
34
86
114
52
258
298
16
88
239
51
-40
103
-19
-226
-80
-66
-387
-372
-97
-258
-371
-87
-173
-324
-205
-234
-235
2
679
1521
2457
3283
2827
1472
517
193
95
175
201
-89
-175
-33
-124
-271
-171
-133
-240
-274
-172
-173
-195
4
-57
-268
-181
-161
-288
-45
86
-208
-182
-33
-147
-144
20
93
15
18
139
18
-43
134
126
132
335
348
201
365
486
313
331
575
580
399
555
594
407
458
419
309
353
317
142
51
52
-86
-185
-91
-46
-197
-253
-34
-63
-299
-196
-101
-364
-321
-60
-156
-211
-157
-241
-236
-135
-155
-221
-189
-145
-253
-306
-141
-113
-242
-103
-77
-259
-144
-49
-201
-267
-224
-211
-195
-169
-169
-216
-127
-7
-165
-270
-78
-131
-285
-146
-158
-276
-183
-50
-148
-313
-133
-81
-298
-152
-60
-283
-237
-82
-243
-288
-89
-200
-393
-222
-66
-183
-161
-54
-157
-186
-86
-133
-255
-149
-112
-208
-88
-18
-163
-238
-125
-112
-196
-27
105
20
4
115
87
-17
166
216
57
182
223
-45
7
335
128
-178
-28
-51
-277
-229
-133
-354
-321
-95
-299
-326
-101
-139
-238
-178
-109
58
914
2075
2849
3018
2212
824
-6
108
258
3
-12
93
-206
-248
3
-146
-298
-99
-80
-297
-208
-42
-164
-233
-110
-94
-149
-71
-92
-188
-104
-41
-126
-141
66
48
-204
-29
97
-124
-71
76
69
-28
84
273
130
318
488
248
407
570
412
362
492
485
342
496
517
234
374
528
174
66
276
127
-104
-3
-21
-203
-258
-186
-145
-203
-113
-109
-284
-208
-128
-283
-289
-210
-360
-304
-65
-100
-194
-163
-124
-229
-209
-29
-156
-261
-30
-173
-334
-24
11
-188
-172
-60
-173
-206
-55
-180
-279
-144
-80
-116
-197
-224
-318
-249
18
-95
-271
-124
-80
-286
-202
-17
-197
-242
-68
-162
-335
-257
-173
-248
-214
-131
-252
-313
-91
-85
-213
-115
-212
-345
-217
-90
-183
-227
-23
-156
-375
-155
-81
-221
-136
-8
-35
-72
-115
-8
-3
-2
211
135
99
207
91
-57
93
148
-21
9
19
-240
-371
-204
-235
-205
-94
-301
-421
-203
-31
-222
-346
-116
-101
-155
544
1589
2393
2872
2488
1053
45
63
27
23
80
-186
-210
27
-19
-236
-262
-121
-207
-373
-110
-53
-325
-233
-145
-214
-185
-31
-81
-216
-68
-41
-182
-116
21
9
-201
-210
-24
-40
89
133
44
170
140
68
226
382
274
198
435
494
273
357
641
443
300
501
431
305
458
374
0
7
110
-79
-119
96
25
-112
17
-84
-251
-181
-96
-290
-330
-56
-282
-451
-137
-103
-332
-224
-27
-216
-348
-168
-217
-445
-130
57
-226
-168
-89
-169
-156
-91
-197
-229
-37
-95
-233
-112
-52
-203
-100
-18
-211
-340
-149
-5
-249
-289
-135
-196
-161
-46
-152
-272
-254
-161
-204
-172
-62
-197
-256
-69
-119
-317
-200
-151
-248
-121
-97
-250
-219
16
-76
-380
-198
-113
-272
-202
-70
-148
-243
-107
-177
-311
-108
-76
-214
-63
58
-145
-148
54
-39
-72
110
172
146
201
254
56
-132
68
138
-7
54
28
-173
-255
-232
-290
-216
-149
-356
-338
-139
-158
-250
-233
-166
-190
-88
693
1798
2634
3069
2515
1091
209
228
123
-83
61
7
-191
-84
-76
-206
-144
-252
-356
-185
-181
-209
-201
-83
2
-132
-132
-38
-203
-363
-135
-81
-146
66
-4
-172
-7
96
-43
-40
123
144
117
31
45
170
177
257
348
303
421
540
444
511
586
440
512
667
334
257
605
508
237
191
148
2
-80
-31
-77
-112
-4
-93
-210
-192
-232
-262
-180
-93
-234
-266
-75
-159
-252
-117
-60
-262
-286
-131
-313
-278
8
-100
-194
-17
-99
-310
-230
-92
-130
-189
-69
-62
-105
-63
-215
-259
-147
-79
-168
-183
-48
-127
-264
-54
117
-415
-589
-131
-90
-119
-11
-131
-262
-171
-66
-183
-163
-15
-205
-366
-289
-234
-228
-72
-42
-234
-166
-76
-237
-230
-117
-158
-216
-134
-114
-212
-192
-103
-192
-244
9
-10
-284
-177
1
-174
-99
92
-169
-165
187
164
-14
282
423
57
86
186
-2
41
193
99
-96
-174
-115
-139
-210
-129
-226
-313
-163
-166
-283
-133
-72
-607
-502
183
434
1397
2695
3157
2745
1699
626
101
215
355
42
-134
39
-93
-168
-74
-228
-351
-205
-60
-193
-241
-94
-150
-434
-279
-13
-199
-136
49
-8
-149
-51
12
-189
-47
66
-101
-53
169
23
-97
164
161
48
206
323
213
314
531
344
241
474
533
456
535
595
493
471
537
431
246
380
406
95
110
102
-117
-8
47
-101
-136
-1
-33
-278
-180
-115
-286
-149
-73
-324
-287
-32
-137
-291
-90
-52
-292
-224
-5
-131
-238
-73
-120
-292
-227
-167
-221
-135
25
-58
-168
0
-27
-246
-139
-6
-247
-387
-83
-147
-285
-8
-82
-234
-70
-43
-215
-158
-82
-217
-241
-148
-133
-224
-155
105
-246
-582
-115
-86
-260
-55
-115
-267
-59
-53
-329
-233
-59
-146
-178
-66
-57
-171
-175
-60
-203
-198
3
-73
-103
60
66
-84
89
202
63
251
298
20
100
269
112
-34
61
116
-87
-146
-15
-122
-228
-116
-183
-327
-211
-143
-306
-256
-115
-222
-184
-28
388
1352
2352
2986
2678
1375
384
28
-95
204
215
-161
-42
10
-318
-188
-49
-259
-185
-66
-122
-218
-130
-2
-166
-130
15
-276
-357
79
103
-302
-177
98
-87
-72
115
10
-64
69
25
-85
103
147
-15
135
336
248
190
380
498
387
361
421
324
326
641
512
282
498
384
176
242
186
-19
74
155
-183
-224
3
-123
-278
-175
-112
-227
-220
-38
-136
-286
-173
-156
-273
-203
-59
-232
-279
-57
-156
-240
-106
-198
-292
-108
-29
-212
-167
4
-178
-227
6
-87
-286
-193
-138
-175
-120
13
-159
-228
4
-85
-251
-176
-12
-190
-294
-56
-197
-333
-54
-9
-227
-130
-6
-215
-226
-129
-243
-240
-71
-84
-325
-285
-210
-275
-96
-28
-149
-266
-173
-1
-232
-321
-73
-206
-302
-32
-56
-186
40
111
-150
-81
120
-8
16
269
172
-38
89
133
-45
-15
15
-194
-318
-206
-167
-309
-170
-113
-388
-290
-151
-403
-396
-177
-170
-200
266
1200
1967
2690
2745
1549
336
-74
-107
21
120
-30
-221
-136
-137
-352
-236
-139
-294
-275
-96
-100
-339
-259
-67
-232
-205
-97
-168
-193
-66
-125
-282
-78
73
-96
-97
106
-18
-118
43
50
20
81
155
150
95
169
271
363
427
360
303
446
616
446
293
487
499
386
505
429
150
172
258
39
-118
65
-12
-306
-171
-120
-158
-146
-273
-298
-249
-124
-182
-274
-192
-212
-276
-232
-190
-266
-265
-145
-182
-344
-234
-136
-254
-133
-58
-212
-296
-125
-62
-264
-157
-34
-203
-200
1
-180
-404
-139
-208
-351
-95
-92
-180
-71
-57
-182
-290
-305
-179
-184
-161
-53
-255
-291
-57
-190
-329
-159
-146
-278
-194
-103
-286
-214
67
-239
-417
-112
-226
-317
-103
-76
-217
-225
-66
-123
-284
-166
-86
-209
-213
-158
-257
-177
69
11
-101
3
46
-22
151
268
14
2
269
85
2
167
-4
-19
152
-3
-265
-225
-124
-244
-350
-207
-140
-371
-343
-177
-350
-343
-112
-133
-10
823
1827
2534
2960
2568
1209
201
218
227
-32
-92
-121
-202
-125
-84
-217
-214
-116
-200
-286
-148
-208
-286
-110
-108
-263
-237
-49
-193
-344
-82
-11
-152
-71
25
-171
-195
92
-18
-152
90
87
-14
163
147
-48
120
336
207
261
579
506
322
516
713
397
241
657
528
246
528
450
166
220
130
-25
-24
77
-33
-231
-78
18
-171
-358
-308
-279
-202
-46
-217
-306
-195
-269
-315
-178
-82
-263
-240
-100
-264
-202
-136
-255
-292
-202
-105
-246
-340
-181
-194
-251
-102
-175
-337
-215
-51
-229
-296
-2
-133
-317
-100
-113
-258
-156
-141
-297
-177
-126
-315
-301
-127
-211
-338
-149
-46
-185
-273
-101
-158
-339
-87
-70
-363
-279
-125
-136
-128
-195
-284
-214
-22
-92
-306
-228
-178
-230
-318
-223
-62
-190
-172
-123
-252
-180
21
-102
-232
-10
20
-97
90
140
-63
119
342
27
-116
121
105
-1
92
35
-117
-71
-101
-294
-275
-179
-368
-393
-134
-152
-326
-267
-155
-245
-322
-145
155
842
2034
3027
2977
2139
1099
127
26
368
85
-145
59
-56
-309
-182
-33
-148
-165
-83
-250
-391
-188
-67
-251
-325
-154
-172
-226
-126
-207
-215
3
14
-143
-83
-59
-115
3
154
50
-31
157
144
20
113
128
116
310
505
393
233
431
559
356
457
665
435
463
604
440
317
324
358
191
81
126
-32
-162
14
22
-173
-45
7
-282
-236
-24
-190
-253
-74
-135
-281
-152
-154
-336
-177
-10
-218
-241
-47
-181
-286
-121
-148
-275
-180
-15
-172
-302
-9
-100
-372
-123
-53
-219
-123
-30
-224
-264
-10
-91
-203
-76
-171
-277
-124
-15
-146
-201
-61
-145
-263
-87
-107
-312
-181
-76
-218
-154
-115
-198
-294
-143
19
-244
-203
-44
-275
-327
-73
-65
-251
-136
-119
-415
-242
79
-87
-182
-116
-190
-243
-91
-50
-231
-61
144
-21
20
105
-33
-3
192
290
82
37
231
169
112
192
89
-83
3
-106
-334
-168
-122
-297
-179
-89
-280
-421
-200
21
-278
-319
9
32
562
1835
2639
2779
2313
1003
-16
7
167
-24
-83
50
-79
-253
-82
-55
-272
-161
-33
-183
-192
-127
-136
-171
-119
-59
-166
-162
-59
-138
-192
-5
-21
-214
-18
166
14
31
100
-130
-44
263
84
30
292
308
172
235
413
321
253
507
508
316
435
560
369
413
625
364
232
409
237
6
176
167
-194
-84
125
-91
-181
-73
-91
-271
-187
-77
-313
-184
31
-197
-235
-40
-89
-313
-228
-61
-204
-190
-97
-249
-294
-76
-42
-274
-231
-4
-44
-89
20
-103
-244
-39
31
-207
-172
-60
-202
-214
-21
-73
-241
-57
-31
-227
-111
-65
-259
-222
-52
-95
-146
-98
-161
-256
-148
-63
-207
-205
-49
-160
-270
-94
-103
-226
-81
-151
-400
-207
22
-182
-281
-93
-60
-201
-115
-30
-242
-246
-73
-166
-250
-16
98
-129
-64
163
9
-20
243
210
43
170
201
-11
-35
91
37
27
50
-139
-207
-96
-196
-369
-269
-195
-349
-296
-140
-294
-280
-75
-146
-236
296
1367
2206
2868
2863
1641
333
-18
83
20
10
-59
-189
-123
-59
-187
-230
-132
-234
-362
-113
-12
-283
-276
-126
-157
-159
-12
-13
-220
-220
-45
-43
-106
29
-23
-135
87
102
-40
142
175
-25
44
220
220
233
290
237
212
316
448
487
452
523
559
474
616
584
350
412
481
315
212
326
153
-49
84
64
-139
-147
-15
-72
-204
-107
-124
-267
-78
-64
-265
-133
-128
-300
-206
-124
-144
-189
-145
-58
-224
-225
-47
-195
-304
-95
-93
-263
-94
44
-206
-263
-45
-135
-186
17
-105
-270
-114
-107
-222
-151
-33
-97
-218
-155
-153
-229
-45
12
-193
-194
-53
-233
-259
36
-132
-272
-74
-93
-238
-102
-28
-240
-191
-122
-206
-146
0
-37
-223
-131
13
-214
-292
-37
-139
-278
-107
-83
-176
-101
-13
-130
-197
-121
-174
-186
-73
-92
-105
-11
19
-16
37
181
116
-99
90
413
185
61
253
95
59
250
126
-106
-11
-2
-250
-220
-196
-271
-252
-181
-118
-251
-145
-69
-280
-235
-138
-73
521
1621
2582
2993
2704
1636
379
69
310
101
-53
87
7
-133
-45
-90
-321
-176
24
-181
-272
-120
-137
-223
-115
-94
-221
-110
2
-134
-150
-14
-73
-208
-79
55
-114
-97
118
-16
-61
166
7
-70
239
173
12
221
349
254
359
514
414
421
656
604
401
530
590
416
372
448
354
125
225
266
-37
-74
34
-115
-173
20
-88
-339
-273
-172
-245
-189
-17
-173
-284
-72
-138
-292
-121
-109
-285
-192
-66
-248
-272
-46
-114
-212
-108
-185
-232
-36
-66
-383
-322
-3
-38
-147
-51
-30
-256
-263
-56
-165
-271
-97
-75
-244
-120
-48
-199
-172
-126
-199
-240
-123
-158
-323
-195
-78
-192
-127
-39
-199
-249
-114
-140
-254
-119
-114
-345
-165
33
-233
-260
-106
-289
-296
-34
-89
-253
-92
-28
-327
-301
12
-84
-251
-96
-63
-218
-118
81
-15
-41
201
194
-67
33
236
106
149
303
100
-31
169
166
18
83
28
-211
-230
-112
-190
-324
-130
-115
-346
-163
-54
-264
-172
-92
-242
20
689
1516
2478
3187
2817
1414
325
189
209
106
146
-39
-256
-55
24
-322
-338
22
-121
-314
-118
-92
-225
-114
-6
-214
-165
11
-108
-170
-54
-17
-141
-85
81
-29
-71
63
-77
-96
120
74
-26
92
193
99
165
399
272
191
464
457
351
479
354
283
586
596
429
347
299
307
197
202
169
-75
-56
134
11
-152
-51
-102
-290
-100
48
-300
-259
-44
-279
-404
-200
-147
-315
-141
-46
-225
-229
-156
-221
-242
-84
-133
-273
-156
-74
-205
-167
-41
-199
-272
-86
-89
-264
-100
12
-244
-237
-30
-140
-295
-113
-68
-230
-149
-91
-237
-239
-78
-97
-227
-106
-151
-375
-176
-58
-252
-186
-73
-199
-287
-159
-168
-309
-139
-116
-325
-248
-83
-182
-292
-117
-134
-328
-142
-13
-300
-350
-11
-51
-240
-61
-29
-183
-58
119
-38
-73
144
175
139
214
151
-9
-84
30
56
-57
91
-19
-272
-142
-148
-335
-206
-64
-318
-431
-250
-233
-231
-94
-119
-190
106
852
1789
2558
2873
1962
397
-83
92
-4
48
94
-128
-168
-55
-129
-254
-168
-125
-318
-277
-111
-255
-179
38
-186
-344
-127
-94
-174
-59
-17
-104
-111
-44
-87
-154
-77
64
-24
-23
132
18
23
192
128
81
273
317
145
217
390
290
318
524
496
381
377
289
233
359
346
158
107
162
107
-16
-132
-177
-247
-178
-77
-268
-229
-47
-200
-256
-93
-201
-397
-266
-157
-237
-218
-131
-139
-241
-199
-202
-306
-141
-123
-250
-111
-9
-119
-207
-170
-109
-131
-244
-216
-247
-151
41
-143
-218
-67
-123
-246
-163
-96
-197
-258
-115
-143
-269
-120
-90
-240
-153
-72
-240
-271
-155
-181
-292
-197
-109
-256
-244
-186
-313
-271
-97
-216
-323
-67
-99
-362
-276
-218
-259
-140
-90
-208
-259
-148
-152
-295
-197
-117
-147
-21
125
66
-112
68
225
22
76
197
25
-85
89
-5
-139
140
-78
-369
-168
-179
-360
-288
-155
-198
-225
-236
-277
-280
-203
-69
-220
-67
946
1929
2598
2829
2070
744
109
125
8
-30
69
-25
-204
-117
-84
-261
-230
-98
-268
-310
-70
-274
-344
-46
-133
-309
-160
-1
-181
-177
59
-48
-171
-18
13
-180
-114
-9
-119
60
225
32
-58
209
263
131
250
348
298
213
346
489
347
435
527
343
484
670
466
287
364
298
148
230
207
-27
-3
52
-147
-130
50
-66
-257
-152
-95
-222
-122
-23
-248
-274
-90
-185
-284
-186
-176
-284
-193
-141
-309
-133
-7
-218
-250
-108
-54
-171
-62
17
-235
-240
-46
-67
-174
-159
-95
-182
-201
-91
-235
-212
-7
-141
-262
-122
-81
-229
-206
-66
-196
-271
-69
-134
-264
-88
-66
-271
-227
-85
-303
-328
-73
-166
-290
-161
-128
-275
-190
-59
-258
-257
-39
-125
-277
-152
-143
-257
-129
-116
-270
-214
-53
-67
-199
-80
86
-88
-33
192
37
-69
220
233
4
121
159
45
30
95
-11
-166
-23
-136
-371
-190
-132
-308
-243
-183
-321
-247
-96
-205
-300
-163
-11
604
1839
2796
3000
2361
1230
306
56
275
246
-33
-48
-9
-170
-234
-55
-141
-475
-184
34
-337
-261
-23
-155
-197
-72
-50
-136
-62
-59
-244
-175
31
-6
-65
66
51
-51
92
93
-28
52
126
32
46
260
183
98
392
510
354
389
538
386
338
619
541
391
576
581
343
276
323
183
58
156
12
-195
-13
1
-248
-133
41
-168
-242
-162
-237
-302
-163
-82
-248
-227
-98
-154
-197
-129
-133
-205
-196
-157
-149
-125
-121
-197
-254
-130
-34
-188
-126
-39
-245
-147
28
-172
-237
-28
-26
-284
-242
-35
-198
-167
-10
-275
-334
-57
-32
-224
-230
-156
-255
-184
1
-168
-275
-111
-135
-264
-160
-104
-244
-138
-63
-198
-227
-113
-84
-234
-214
-98
-194
-282
-85
-139
-323
-114
-71
-196
-83
-138
-339
-183
0
-121
-177
35
73
-69
88
208
47
115
337
183
10
199
145
8
222
147
-122
-153
-118
-172
-305
-164
-107
-352
-202
-128
-378
-243
-52
-244
-254
-34
142
886
1970
2921
3103
2147
988
115
92
424
20
-184
125
77
-199
-171
-34
-233
-311
-44
-123
-332
-112
-74
-295
-166
-30
-175
-161
23
-37
-181
-81
-25
-82
-87
11
18
-32
95
68
-58
160
273
-22
91
322
162
272
457
320
226
363
511
421
393
541
427
389
628
501
138
230
376
97
70
166
-68
-74
-39
-222
-279
-79
25
-232
-264
-53
-211
-354
-164
-184
-347
-150
14
-154
-293
-137
-90
-231
-151
-183
-288
-148
-30
-56
-211
-208
-78
-68
31
-48
-251
-152
-3
-127
-117
-71
-179
-232
-90
-11
-237
-166
0
-136
-138
-37
-149
-180
-65
-130
-359
-220
-16
-179
-151
-63
-160
-187
-47
-107
-249
-102
-57
-227
-144
33
-170
-187
0
-174
-289
-92
-48
-230
-237
-86
-132
-216
-68
-74
-244
-173
-14
34
133
154
65
116
202
166
80
139
169
20
27
112
1
-78
-31
-75
-261
-266
-161
-249
-250
-144
-181
-295
-245
-187
-390
-223
130
228
1149
2374
2766
2607
1539
136
-228
110
215
-24
-41
27
-123
-236
-118
-92
-264
-133
-76
-295
-309
-129
-146
-242
-25
-8
-278
-150
-53
-254
-220
-1
-52
-176
-65
0
-38
21
115
-48
-32
169
30
5
286
303
60
201
458
262
253
482
226
185
562
391
214
461
402
265
280
288
166
-56
40
68
-143
-45
42
-208
-318
-46
-114
-334
-110
-162
-332
-184
-152
-249
-167
-83
-217
-276
-125
-79
-187
-214
-259
-277
-92
-21
-191
-239
-46
-97
-298
-60
4
-274
-190
54
-80
-271
-102
-67
-207
-135
-68
-205
-242
-9
-128
-384
-79
-51
-327
-162
-57
-191
-212
-141
-204
-283
-107
-55
-279
-235
-64
-268
-246
-37
-200
-201
-131
-251
-221
-100
-123
-248
-224
-69
-108
-253
-211
-123
-188
-182
-43
-92
-115
96
50
-101
101
190
35
161
270
40
-9
136
73
-9
82
34
-185
-221
-169
-307
-323
-80
-140
-345
-152
-120
-275
-158
-130
-272
-146
496
1332
2260
3000
2607
1251
284
100
40
47
129
-33
-202
-51
-5
-280
-271
-92
-256
-221
-11
-295
-379
-39
-42
-203
-157
-101
-88
-131
-147
-147
-164
2
97
-52
-15
75
-94
-65
137
56
53
228
163
90
235
335
231
304
472
384
347
558
586
304
406
584
402
426
487
258
177
265
80
-34
87
82
-95
-190
-79
-117
-179
-14
-95
-276
-171
-143
-221
-243
-196
-255
-324
-79
-21
-216
-196
-191
-275
-196
-67
-94
-151
-123
-119
-176
-165
-96
-179
-141
-10
-73
-159
-140
-112
-150
-31
-4
-229
-188
3
-137
-271
-140
-23
-210
-293
-165
-242
-199
-64
-178
-334
-72
55
-268
-199
-63
-245
-248
-124
-141
-229
-98
-66
-321
-159
8
-209
-198
-46
-140
-226
-70
-155
-339
-173
-30
-220
-330
-187
-149
-184
-79
-55
-222
-79
115
-95
-70
156
68
13
213
199
35
165
195
-27
-71
86
41
-206
-128
-35
-279
-267
-140
-366
-378
-88
-259
-415
-104
-139
-261
-126
-85
494
1620
2694
3132
2515
1410
438
28
186
274
-37
-142
25
-89
-259
-122
-119
-282
-149
-107
-305
-269
-71
-168
-315
-109
-54
-236
-149
-16
-148
-174
-27
-122
-214
-60
-34
-113
12
74
-123
-91
135
74
3
174
211
27
88
319
260
242
427
412
313
432
454
270
360
468
249
161
260
45
-226
-5
-14
-432
-306
-159
-345
-262
-102
-228
-428
-210
-154
-489
-310
-83
-345
-266
23
-142
-287
-171
-172
-274
-170
-36
-177
-291
-111
-32
-171
-78
43
-116
-122
45
-111
-199
36
11
-188
-87
15
-111
-102
-94
-182
-102
54
-75
-200
-2
-5
-213
-186
-59
-151
-184
-104
-227
-222
6
-5
-231
-198
-56
-184
-350
-210
-53
-181
-121
-49
-257
-119
-17
-219
-198
2
-103
-336
18
37
-368
-220
-80
-318
-253
64
-10
-180
-128
-148
-196
19
213
72
-25
168
261
130
176
223
18
10
135
54
28
139
118
-83
-87
-120
-291
-269
-319
-311
-288
-148
-15
-289
-280
-129
-326
-194
291
912
1985
2996
2995
2000
812
96
45
384
300
-50
-2
-6
-259
-275
-258
-277
-270
-270
-41
-179
-303
-80
-134
-214
-155
-146
-272
-245
-26
-148
-182
-9
-268
-271
89
20
-180
-67
82
16
-9
121
164
182
269
262
243
276
318
237
252
601
424
65
528
736
405
452
513
266
202
327
208
-68
-44
96
-131
-185
-90
-243
-147
-287
-481
-139
-67
-250
-287
-222
-140
-316
-257
-6
-358
-476
-167
-184
-302
-196
-139
-298
-381
-247
-113
-148
-24
-114
-366
-162
5
-210
-331
-90
-94
-313
-157
-130
-302
-333
-258
-133
-159
-91
-198
-369
-145
-171
-290
-191
-151
-268
-354
-172
-206
-339
-171
-174
-326
-235
-111
-282
-400
-154
-50
-195
-134
-120
-302
-250
-150
-213
-135
-63
-259
-338
-121
-126
-308
-234
-98
-298
-272
43
-168
-333
-101
-160
-334
-150
-25
-208
-194
98
76
-81
88
199
-23
53
268
91
25
122
230
81
5
22
-199
32
110
-179
-266
-156
-95
-253
-205
-136
-335
-274
-55
-237
-294
37
-86
150
1509
2678
3053
2684
1511
187
-47
383
265
-71
49
26
-362
-301
-43
-117
-268
-166
-180
-269
-46
-2
-208
-237
-105
-125
-184
-22
8
-229
-175
43
-87
-117
67
23
-88
-41
43
42
134
244
-6
-33
299
248
213
403
367
266
386
363
177
457
641
478
481
509
446
251
255
299
134
120
108
-40
-59
-39
-187
-163
35
-38
-222
-243
-194
-139
-120
-62
-195
-329
-75
-51
-237
-155
-87
-182
-219
-163
-148
-208
-55
-22
-236
-135
-73
-151
-97
7
-60
-134
18
-81
-291
-111
-144
-441
-253
80
-143
-237
9
-96
-211
-106
-71
-203
-351
-155
-104
-285
-62
-37
-334
-291
-83
-218
-308
-84
-144
-194
-62
-232
-354
-116
-44
-218
-139
14
-158
-280
-78
-90
-322
-168
-91
-356
-169
94
-93
-197
-147
-275
-323
-129
-27
-153
-191
-46
-127
-150
22
76
65
-280
-306
140
190
248
303
76
77
136
-8
91
282
68
-141
57
-48
-284
-156
-162
-299
-311
-185
-321
-346
-45
-123
-330
-235
-70
-107
393
1565
2443
2882
2470
980
-137
-172
28
-48
-56
18
-185
-221
7
-146
-366
-136
-80
-350
-266
-67
-186
-267
-73
-38
-328
-250
-56
-184
-129
7
-86
-119
32
-76
-257
11
179
-16
-2
153
33
-9
230
200
97
297
322
207
370
460
179
116
507
613
389
482
528
303
316
359
173
110
197
75
-123
-54
-134
-211
-77
-209
-272
-113
-74
-305
-361
-113
-135
-223
-128
-53
-235
-257
0
-121
-247
-83
-145
-332
-318
-165
-231
-236
-55
-167
-245
-89
-101
-232
-110
-22
-157
-244
-166
-115
-200
-65
-103
-363
-209
9
-171
-285
-95
-135
-235
-9
-110
-457
-221
-60
-276
-308
-174
-104
-187
-111
-99
-320
-236
-30
-200
-290
-135
-142
-126
-174
-342
-266
-75
-88
-285
-306
-119
-117
-207
-149
-165
-304
-193
-48
-228
-278
-106
-145
-196
-99
-45
-94
-97
41
-67
-86
199
120
50
194
150
87
-18
-50
81
23
-77
-171
-322
-74
-22
-333
-129
-104
-520
-352
-133
-270
-255
-197
-195
-238
36
960
1933
2667
3018
2105
684
185
37
-44
158
62
-188
-246
-165
-53
-110
-84
-96
-351
-200
-127
-388
-256
-136
-240
-215
37
-73
-349
-60
26
-179
-122
-20
-133
-102
-25
-74
49
81
43
-56
54
311
128
51
353
336
124
223
391
414
560
675
508
434
591
646
414
298
496
427
173
228
223
-29
5
13
-194
-111
-40
-150
-152
-90
-152
-233
-52
-51
-285
-187
-95
-311
-243
-77
-305
-202
100
-146
-440
-213
67
-178
-270
-4
-90
-245
-69
26
-178
-219
-58
-129
-215
-20
-44
-256
-69
5
-150
-88
-77
-166
-148
22
-74
-252
-45
-3
-299
-251
2
-84
-186
-163
-68
-160
-253
-94
-178
-176
-35
-136
-194
-110
-129
-243
-142
-83
-200
-39
-33
-297
-236
-34
-119
-233
-177
-222
-275
-131
20
-123
-207
-43
-136
-224
-37
-54
-253
-179
-99
-113
66
59
-68
-95
53
22
-251
55
362
213
232
323
213
6
161
162
-186
28
129
-171
-202
-106
-176
-270
-191
-233
-285
-105
-80
-255
-188
4
-125
-314
254
1383
2368
3156
3116
1898
616
225
369
245
87
102
-165
-216
-54
-188
-235
-104
-221
-304
13
31
-180
-119
-27
-141
-285
-87
7
-169
-130
-65
-142
-16
104
-138
-149
11
-185
-102
181
266
168
25
247
297
158
281
291
230
488
610
335
440
675
363
402
794
651
471
604
467
206
365
368
10
42
189
3
-75
-122
-137
-119
-137
-108
-239
-171
-41
-278
-321
-68
-78
-235
-173
-56
-217
-283
-187
-184
-116
-75
-156
-300
-209
-20
-218
-268
12
-81
-237
-135
-147
-239
-156
-20
-128
-185
8
-4
-168
-132
-49
-166
-240
-65
-123
-253
-58
-92
-274
-71
-49
-310
-213
69
-11
-270
-162
-40
-155
-131
-29
-149
-216
-42
-211
-356
-65
17
-184
-144
-10
-236
-244
-24
-202
-226
17
-87
-232
2
-119
-385
-2
82
-223
-112
-65
-185
-206
-188
-26
-82
-196
-8
-67
-252
65
192
22
85
136
192
260
188
30
111
285
254
108
69
9
-167
-102
-26
-171
-233
-36
-63
-241
-249
-227
-224
-151
-82
-200
-225
18
600
1446
2532
3213
2551
1140
159
-100
132
378
117
-133
-116
-106
-136
-175
-69
-97
-217
-148
-119
-158
-76
-25
-168
-84
128
-90
-248
12
35
-123
6
23
-121
-87
36
-45
-186
54
160
-37
66
263
237
275
417
294
230
447
383
253
541
604
306
414
617
370
380
595
244
114
351
274
135
91
47
-152
-158
88
-39
-221
-10
-14
-307
-262
-105
-203
-155
-107
-221
-268
-222
-87
-269
-264
18
-193
-372
-47
4
-216
-144
-104
-157
-75
-92
-286
-250
37
42
-198
-99
56
-151
-214
39
-63
-297
-58
-25
-218
-92
-5
-173
-414
-230
9
-218
-261
-96
-160
-103
-8
-238
-234
-67
-188
-318
-174
-18
-209
-130
-24
-298
-235
-162
-290
-177
-166
-174
-95
-158
-102
-173
-195
11
-213
-403
-80
-29
-176
-88
-112
-211
-140
-16
-79
-152
49
65
-101
146
309
89
123
144
14
69
155
49
-52
9
-24
-135
-283
-247
-164
-236
-124
-154
-403
-208
-63
-411
-240
78
-227
-217
632
1558
2189
2675
2370
995
55
78
23
-38
71
-34
-293
-126
10
-282
-238
39
-73
-394
-177
-22
-314
-208
-38
-246
-202
-50
-215
-196
-73
-111
-113
-64
39
-44
-101
40
-47
-90
119
150
17
168
183
-67
104
401
283
177
491
412
214
644
665
281
395
645
466
351
453
299
160
298
265
-26
-82
8
-169
-44
128
-147
-344
-220
35
-200
-342
-42
-224
-371
-68
-145
-316
-200
-207
-248
-177
-25
-97
-188
-74
-214
-354
-142
13
-199
-218
-66
-154
-302
-126
-12
-234
-157
-79
-234
-166
-17
-134
-195
-128
-174
-290
-121
28
-356
-321
19
-179
-333
-115
-110
-399
-285
-190
-361
-229
-103
-253
-290
-74
-111
-280
-119
-82
-283
-292
-161
-170
-267
-124
-90
-369
-224
-72
-421
-366
-30
-168
-249
33
-90
-390
-187
-87
-327
-174
40
-165
-272
-113
-62
-154
-156
11
37
-39
145
152
91
169
84
57
141
113
32
97
97
-137
-126
-19
-333
-374
-87
-128
-314
-317
-186
-232
-289
-193
-281
-363
-158
139
758
1901
2876
2958
2308
1143
104
23
258
201
-56
-109
-14
-311
-385
-151
-190
-299
-174
-195
-419
-246
-48
-117
-188
-108
-69
-265
-211
-71
-302
-306
9
-60
-177
95
78
-237
-182
-75
-17
140
157
82
111
254
261
180
269
403
320
321
495
372
302
605
699
463
524
650
331
285
370
130
113
146
25
-39
25
29
-208
-212
-19
-176
-358
-232
-173
-249
-130
-13
-225
-190
54
-209
-438
-186
-133
-284
-150
30
-238
-255
15
-236
-203
15
-183
-342
-236
-50
-68
-89
-122
-251
-156
5
-40
-190
-134
-79
-319
-196
82
-78
-236
-137
-39
-219
-103
9
-381
-323
-118
-139
-78
-7
-54
-299
-251
-71
-277
-169
120
-191
-282
-44
-163
-246
-200
-207
-133
-61
30
-172
-377
-28
-40
-346
-122
20
-230
-221
35
-57
-271
-76
-3
-201
-170
-90
-171
-191
-6
-31
-316
-145
116
-96
-81
38
-120
13
243
150
85
240
225
91
118
159
85
93
170
19
-149
-45
-25
-272
-196
62
-282
-435
-87
-225
-319
-138
-147
-256
-212
-27
316
1160
2319
3059
2946
2162
897
65
266
443
-8
-160
82
-53
-190
-43
-171
-265
-45
-186
-275
-129
-67
-152
-246
-88
-93
-167
-71
-78
-270
-275
27
15
-142
105
61
-227
-26
75
-120
29
261
90
-59
128
258
160
221
363
286
353
570
624
423
341
514
471
435
600
473
243
442
407
71
132
193
-125
-250
16
-3
-131
-80
-221
-250
-30
-29
-279
-256
-117
-216
-256
-165
-121
-157
-62
-172
-366
-130
-44
-185
-234
-211
-153
-134
-48
-66
-190
-178
-143
-110
-66
-79
-151
-181
-61
-55
-183
-108
7
-187
-277
-54
-136
-223
10
-89
-348
-168
-31
-149
-177
-129
-120
-343
-290
-11
-113
-132
-7
-148
-207
-35
-159
-299
-114
-69
-281
-266
-22
-162
-225
52
-41
-263
-190
-198
-327
-115
7
-199
-120
36
-136
-335
-110
-3
-292
-207
7
-122
-171
-10
-32
-262
-88
148
-13
46
164
68
180
290
119
-79
-5
203
192
148
79
-115
-105
-96
-258
-277
-153
-122
-339
-256
-55
-222
-178
21
-157
-231
163
835
1645
2464
2902
2101
769
111
-79
-103
92
85
-156
-172
-17
-48
-108
3
-71
-219
-124
-50
-229
-196
74
-99
-310
-70
-154
-219
124
51
-238
-166
123
91
-27
109
50
-54
109
81
-40
206
271
38
60
270
359
280
359
394
336
486
501
340
310
557
565
327
440
381
127
230
258
79
-4
103
-18
-230
22
29
-233
-81
17
-198
-266
-105
-150
-248
-80
-39
-272
-275
-65
-190
-197
-61
-120
-234
-98
4
-309
-197
-2
-217
-195
51
-35
-247
-5
54
-247
-238
-41
-128
-158
-31
-155
-174
-9
20
-170
-230
-169
-299
-184
-44
-206
-138
-99
-163
-40
-123
-281
-228
-195
-101
-100
-130
-45
-167
-213
-125
-34
-189
-490
-160
-11
-206
-68
-187
-281
-190
-288
-241
-110
-61
-63
-200
-151
-99
-201
-115
-139
-225
-251
-300
-179
-195
-119
22
-158
-43
119
-116
-151
156
260
111
219
189
-159
-64
226
3
-194
-7
-53
-204
-156
-137
-335
-336
-155
-352
-397
-132
-197
-283
-113
-172
-259
175
1050
1967
2616
2792
1865
429
84
203
51
32
-23
-261
-216
25
-143
-353
-227
-92
-335
-423
-54
-114
-353
-171
-178
-253
-14
-17
-274
-182
-41
-295
-231
87
-82
-211
-25
-27
-120
26
83
-37
36
215
49
31
344
240
154
351
408
369
361
431
356
290
572
698
564
480
353
225
121
78
129
5
90
34
-311
-171
-46
-209
-202
-72
-200
-335
-73
-51
-304
-290
-123
-148
-237
-129
-217
-325
-241
-177
-269
-238
4
-159
-334
-123
-120
-256
-155
-216
-317
-41
33
-152
-216
-141
-151
-285
-90
-59
-337
-210
-43
-156
-188
-91
-167
-332
-196
-92
-329
-280
-58
-209
-180
-94
-148
-143
-187
-139
-254
-267
-4
-178
-312
-63
-148
-323
-167
-71
-159
-151
-177
-196
-202
-165
-110
-300
-229
-15
-143
-224
-21
-27
-233
-111
-45
-196
-238
-233
-286
-77
42
-194
-182
-101
-106
-104
-53
-34
-160
44
157
-97
38
337
149
-143
173
338
37
49
163
-22
-51
128
-201
-365
-115
-211
-394
-228
-223
-300
-148
-108
-141
-316
-306
-49
-96
364
1571
2464
2989
2882
1660
379
228
385
38
-51
136
-181
-230
48
-142
-307
-143
6
-260
-291
18
-231
-343
-32
-5
-112
-126
-125
-235
-149
-44
-232
-85
156
-25
-194
-21
119
-13
-57
120
166
60
223
244
105
196
298
233
347
530
468
503
619
557
431
599
620
427
466
524
265
170
349
158
-22
93
-10
-221
-48
99
-262
-362
3
-94
-242
-82
-176
-256
-242
-127
-128
-291
-135
-208
-342
-137
-273
-332
-146
-224
-275
-119
10
-315
-399
-29
-67
-298
-240
-74
-148
-185
-158
-275
-274
-109
-89
-239
-258
-139
-199
-242
-137
-176
-246
-296
-242
-174
-122
-57
-296
-336
-141
-245
-273
-124
-172
-274
-133
-79
-294
-328
-72
-100
-383
-243
-107
-276
-193
-79
-250
-273
-82
-123
-305
-247
-70
-172
-243
-30
-144
-227
-24
-207
-351
-136
-49
-138
-130
-96
-166
-226
-205
-92
-104
-143
-97
-162
-42
156
24
78
199
74
109
167
183
158
136
196
64
-50
142
48
-281
-171
-107
-351
-291
-103
-202
-294
-236
-221
-274
-165
-43
-154
-28
757
1723
2631
3290
2730
1333
452
165
21
69
195
-39
-264
-10
-71
-300
-36
-54
-255
-120
-52
-181
-189
-43
-227
-379
1
47
-232
-44
39
-186
-128
38
-35
-77
26
12
-40
143
262
39
-107
112
264
115
224
382
169
206
551
477
427
664
594
392
436
553
472
493
603
374
133
357
322
7
68
82
-154
-127
35
-157
-158
42
-70
-189
-65
-4
-221
-173
25
-174
-251
-33
-25
-230
-223
-129
-120
-87
-134
-130
-87
8
-63
-248
-124
43
-121
-216
1
-52
-191
26
66
-176
-92
-26
-190
-193
9
-66
-361
-115
46
-257
-104
102
-176
-106
66
-190
-355
-226
-50
-99
-107
29
-130
-191
-22
-164
-149
42
-170
-297
-123
-139
-197
-70
17
-139
-181
-2
-18
-101
-26
-21
-188
-237
-102
-212
-345
49
96
-295
-95
57
-258
-189
-11
-147
-100
209
261
65
82
248
203
48
154
196
0
48
95
48
181
7
-249
-226
-146
-166
-290
-136
-91
-220
-84
-141
-283
-178
-20
-83
-90
833
1909
2476
2756
1909
455
-87
58
143
61
83
84
-239
-283
6
-153
-238
15
-77
-209
-99
-66
-156
-111
-97
-213
-108
58
-85
-184
-62
-118
-139
63
95
-59
-67
53
-37
-67
143
81
5
138
154
182
273
344
221
202
491
358
156
517
631
336
381
510
337
341
416
224
103
168
41
-22
105
32
-31
-56
-130
-302
-357
-81
-26
-199
-258
-144
-211
-433
-250
-130
-247
-118
-81
-297
-281
-98
-169
-275
-90
-38
-282
-235
-81
-245
-193
-2
-251
-313
58
-71
-344
-106
-23
-170
-96
-32
-172
-185
-8
-84
-253
-201
-162
-203
-104
-26
-235
-297
-129
-180
-211
-95
-171
-228
-84
-79
-241
-171
-86
-248
-265
-116
-109
-251
-178
-51
-231
-307
-101
-127
-239
-106
-96
-310
-292
-57
-199
-285
-47
-70
-283
-234
-3
-157
-293
-93
-10
-83
-74
25
33
99
249
133
40
214
242
11
-75
18
76
158
68
-138
-143
-101
-292
-388
-129
-84
-347
-209
-30
-323
-269
-32
-198
-194
388
1240
2145
2938
2821
1644
451
153
196
101
97
-27
-136
-55
2
-150
-168
-35
-222
-354
-118
-25
-208
-168
15
-117
-194
-75
-189
-241
-11
13
-151
-95
-57
-177
-28
138
-41
-70
147
122
23
61
164
161
107
304
242
212
537
467
277
497
582
403
472
637
562
397
407
353
188
253
294
138
57
97
-36
-132
-24
-149
-290
-138
-69
-218
-189
-65
-169
-251
-145
-169
-285
-116
-89
-236
-151
-126
-235
-280
-198
-203
-252
-134
-101
-232
-190
48
-57
-254
-87
-97
-300
-188
-33
-243
-198
33
-144
-194
-98
-251
-286
-72
-99
-314
-203
-57
-249
-227
21
-91
-257
-156
-92
-241
-270
-71
-136
-288
-154
-120
-307
-265
-90
-171
-146
9
-163
-343
-143
-98
-214
-116
-187
-335
-130
57
-144
-225
-45
-177
-356
-183
-126
-206
-136
-76
-192
-194
4
-75
-165
-74
-42
-4
24
178
107
-2
281
206
59
256
171
-26
43
220
113
-92
-9
-101
-325
-188
-65
-355
-501
-84
-78
-385
-90
-92
-297
-23
185
518
1727
3061
3202
2525
1524
367
40
372
337
26
-142
-147
-57
-84
-193
-150
-145
-166
-82
-97
-143
-97
-94
-157
-58
-41
-213
-61
132
-128
-255
56
32
-153
13
58
-63
66
117
-28
68
364
193
-82
305
421
178
276
501
426
394
649
614
516
607
668
512
407
607
532
416
550
392
120
186
198
-123
-114
70
-40
-74
89
-91
-244
-63
-215
-261
-22
14
-164
-222
-109
-211
-242
-45
-45
-172
-73
22
-266
-229
81
-173
-320
-17
13
-232
-97
100
-188
-207
25
-152
-232
-53
-87
-180
-97
-41
-248
-294
-28
4
-202
-200
19
-225
-299
36
-154
-218
-3
-69
-239
-127
-28
-243
-119
19
-245
-209
-62
-162
-166
-49
-51
-306
-250
-42
-251
-279
-72
-80
-155
-54
-39
-203
-131
-58
-269
-253
-41
-76
-185
-27
24
-223
-114
36
-66
36
30
-69
-29
155
222
110
323
370
-41
-74
136
138
81
149
75
-316
-229
50
-177
-320
-140
-233
-335
-142
-168
-210
-17
19
-192
-66
771
1763
2615
3237
2502
828
199
192
48
153
247
-43
-208
17
-63
-197
-20
-19
-230
-74
93
-114
-159
-24
-84
-235
-80
59
-63
-106
-10
-9
-126
-80
61
-36
27
171
-5
62
248
32
-24
284
288
183
265
340
285
342
575
431
360
698
574
299
532
647
539
436
425
407
236
242
175
6
141
154
-198
-247
98
48
-139
-16
-147
-271
-100
24
-61
-244
-124
-89
-280
-185
-90
-277
-152
49
-293
-248
157
-5
-212
-86
-97
-161
-48
2
-105
-135
42
-70
-169
-31
-194
-234
-25
-4
-178
-223
-27
-113
-172
16
-151
-249
-45
-21
-242
-213
-9
-150
-197
-76
-135
-224
-206
-138
-210
-291
-38
-74
-264
-14
14
-215
-222
-99
-132
-134
-41
-267
-328
-18
-77
-210
-14
-103
-379
-169
16
-105
-174
59
98
-107
75
147
-32
71
271
171
89
38
29
123
106
127
-37
-220
-63
-130
-297
-131
-95
-384
-237
-21
-284
-252
-66
-167
-349
-264
-30
440
1494
2490
2632
2221
1383
133
-247
169
153
-147
-34
44
-299
-199
67
-184
-259
-71
-248
-311
-16
-91
-315
-85
68
-195
-231
22
41
-83
-116
-136
-48
-69
-34
107
-31
-28
120
12
37
136
13
245
453
180
155
455
523
315
267
454
459
440
615
480
356
599
559
331
376
427
149
-17
270
149
-153
46
-36
-282
-162
-14
-137
-287
-127
-139
-314
-100
-87
-443
-336
60
-159
-350
50
-59
-312
-118
-166
-259
-124
-23
-157
-152
42
-154
-331
-83
53
-205
-248
36
-131
-219
15
-130
-228
-155
-167
-158
-49
-76
-160
-80
-73
-207
-270
-92
-125
-312
-219
-143
-233
-189
-30
-251
-362
-39
-79
-320
-263
-162
-209
-207
-134
-94
-170
-218
-222
-158
-99
-272
-248
-77
-106
-266
-318
-110
-46
-244
-217
-75
-149
-191
-46
-40
-123
25
122
38
48
262
207
40
142
92
15
172
175
-73
-26
40
-233
-250
-138
-244
-383
-249
-119
-408
-383
-68
-222
-298
-81
-105
151
1211
2218
2839
2994
1954
513
96
249
182
26
-103
-41
-198
-295
-95
-219
-254
-123
-238
-300
-86
-130
-363
-193
36
-107
-184
-37
-279
-372
-10
-2
-135
-54
-39
-204
-113
77
-45
-111
59
142
-7
36
285
168
-18
289
416
141
328
674
445
465
605
367
469
646
558
446
414
404
302
201
156
8
-95
-23
-120
-174
-8
-124
-357
-246
-142
-242
-166
-14
-138
-327
-178
-70
-303
-191
-46
-309
-363
-106
-112
-334
-167
-109
-278
-194
-149
-195
-134
-79
-185
-302
-102
-29
-168
-14
-38
-226
-231
-108
-118
-337
-165
47
-145
-183
-111
-234
-231
-87
-168
-319
-80
-17
-350
-307
-142
-156
-159
-22
-163
-366
-128
-118
-221
-221
-175
-149
-256
-122
-99
-243
-189
-210
-358
-202
50
-236
-387
-66
-91
-253
-141
-165
-346
-204
-20
-239
-263
44
-34
-225
75
163
-164
-89
264
185
10
224
113
-59
135
121
-15
-23
58
-26
-227
-190
-171
-335
-182
-74
-344
-237
-121
-334
-350
-202
-131
-216
171
1141
2056
3073
3245
1996
805
310
105
79
186
65
-116
-81
-75
-205
-203
-78
-215
-312
-209
-97
-117
-197
-86
-125
-369
-197
-45
-257
-95
-126
-356
11
135
-126
-137
1
35
9
79
11
-72
78
265
116
85
327
293
155
277
516
435
453
610
499
544
690
526
379
508
514
332
275
253
54
-64
150
65
-239
-94
-59
-274
-191
-38
-213
-294
-105
-173
-287
-210
-163
-262
-85
-27
-390
-264
-98
-275
-232
-72
-192
-369
-205
-161
-279
-130
-54
-183
-263
-184
-119
-201
-161
-83
-151
-160
-91
-106
-241
-217
-165
-218
-162
-71
-133
-272
-190
-110
-269
-182
-80
-298
-247
32
-132
-388
-169
-108
-367
-184
-19
-292
-228
-83
-293
-195
37
-272
-321
-73
-231
-302
-133
-22
-278
-336
-10
-147
-260
-93
-138
-247
-220
-203
-290
-195
-7
-133
-272
-59
53
-81
-1
121
-82
-80
252
147
-33
179
168
-89
3
186
-62
-185
34
-106
-331
-147
-166
-384
-326
-210
-221
-317
-354
-297
-224
-64
-25
119
1056
2289
2950
2742
1831
536
-150
95
101
-32
67
45
-149
-275
-210
-238
-247
-105
-119
-242
-184
-100
-206
-236
-139
-238
-276
25
-3
-297
-178
1
-158
-161
83
-86
-245
-50
-53
-133
101
342
146
-28
156
118
62
351
434
155
208
513
413
346
465
478
414
373
418
374
341
355
203
8
57
46
-139
-49
-73
-284
-183
-113
-315
-251
-2
-146
-373
-151
-120
-460
-241
-29
-333
-321
-55
-142
-299
-85
-155
-429
-192
-30
-317
-447
-118
-72
-274
-65
-52
-333
-222
-52
-260
-280
20
-107
-276
-72
-40
-306
-327
-105
-207
-287
-104
-137
-341
-293
-149
-216
-227
-77
-229
-353
-148
-204
-315
-67
-71
-336
-291
-98
-149
-244
-216
-207
-200
-193
-160
-175
-193
-135
-215
-354
-176
-184
-360
-146
-142
-317
-140
-34
-241
-250
-54
-89
-22
169
72
-43
83
259
122
-68
-4
-29
-77
73
33
-200
-215
-87
-230
-400
-201
-218
-417
-251
-256
-430
-220
-180
-327
-266
-47
496
1451
2539
2929
2166
884
70
-66
2
29
-80
-193
-155
-157
-284
-281
-102
-107
-321
-297
-162
-397
-341
-67
-198
-228
-146
-206
-206
-93
-75
-166
-129
-87
-187
-169
26
-23
-22
166
45
-75
6
105
80
114
213
219
290
428
390
259
371
467
410
518
632
412
334
552
424
145
230
206
-38
73
164
1
-128
-106
-134
-349
-259
4
-181
-221
-23
-303
-373
-58
-49
-303
-292
-193
-336
-282
-89
-179
-272
-26
-78
-360
-130
37
-227
-227
-75
-307
-291
-5
-53
-204
-132
-50
-209
-177
-126
-268
-241
-92
-129
-258
-77
-60
-346
-261
5
-131
-266
-30
-55
-217
-180
-297
-304
-103
-18
-222
-282
-17
-150
-370
-220
-308
-340
-2
-19
-251
-205
-109
-222
-239
-117
-184
-232
-121
-89
-250
-256
-23
-174
-384
-126
-4
-228
-292
-131
-165
-180
20
2
-170
-10
154
40
96
192
137
164
176
68
37
122
80
-135
-59
13
-290
-352
-204
-244
-326
-272
-160
-300
-340
-66
-255
-433
-146
-54
335
1404
2535
3000
2655
1687
395
-20
206
38
-147
-72
-96
-253
-229
-100
-167
-190
-140
-219
-260
-138
-95
-343
-269
-27
-178
-271
-105
-135
-334
-185
7
-159
-119
104
-117
-287
64
62
-171
150
208
-54
63
251
183
71
159
337
368
389
457
411
518
518
352
481
628
459
350
497
398
151
136
121
-72
-171
-1
-12
-253
-167
-122
-359
-195
-36
-260
-299
-171
-129
-225
-192
-231
-365
-186
-86
-262
-321
-180
-192
-305
-148
-126
-305
-198
-146
-274
-216
-90
-226
-215
-99
-170
-174
-134
-77
-206
-382
-142
-55
-251
-133
-135
-362
-259
-62
-192
-290
-125
-192
-348
-152
-114
-364
-254
-6
-282
-398
-89
-181
-356
-154
-81
-240
-235
-153
-237
-252
-96
-174
-365
-177
-78
-369
-237
-29
-206
-199
-100
-271
-339
-59
-73
-326
-276
-106
-252
-317
-56
-50
-53
24
-39
-130
-112
121
17
-95
266
282
24
113
142
-17
81
186
-19
-109
-23
-211
-405
-181
-46
-294
-334
-168
-222
-397
-276
-163
-336
-148
33
118
1102
2384
3003
2945
2128
799
9
227
317
-39
-84
-25
-219
-278
-107
-117
-178
-191
-275
-257
-112
-22
-244
-336
-155
-152
-248
-158
-46
-186
-122
67
-148
-235
-39
-49
-183
-17
127
-71
15
192
6
-74
193
314
273
318
314
310
388
500
452
420
586
585
483
570
550
373
340
389
257
193
214
58
4
-142
-225
-86
-76
-33
-123
-291
-157
-58
-225
-152
-116
-316
-242
-212
-286
-84
-38
-328
-365
-154
-122
-223
-154
-66
-208
-262
-131
-123
-188
-100
-143
-358
-130
66
-244
-360
-91
1
-152
-179
-110
-149
-186
-105
-141
-248
-140
-49
-151
-172
-179
-293
-202
-25
-173
-246
-182
-220
-251
-228
-118
-185
-252
-60
-179
-356
-111
-152
-336
-84
-51
-279
-221
-93
-136
-263
-184
-146
-234
-83
-129
-260
-175
-169
-252
-223
-37
-89
-200
-65
-131
-206
47
167
76
30
127
172
48
127
180
30
60
167
69
-211
-196
-121
-289
-185
-148
-291
-236
-166
-235
-342
-278
-153
-182
-137
-25
359
1334
2504
3041
2558
1518
323
-248
58
327
80
-31
106
-99
-207
-115
-248
-361
-184
-42
-271
-268
4
-129
-293
-57
-48
-262
-86
70
-153
-187
-43
-137
-165
-54
-38
-137
12
197
9
22
243
80
-31
227
312
269
307
339
265
333
570
382
282
666
606
313
408
436
366
350
350
265
39
42
22
-141
-59
-45
-121
-113
-23
-107
-328
-130
-58
-232
-145
-111
-275
-231
-21
-133
-256
-129
-202
-349
-262
-89
-189
-168
41
-162
-296
-56
-36
-377
-240
27
-257
-243
40
-83
-158
-14
-118
-231
-79
-69
-287
-242
-34
-134
-323
-213
-124
-228
-224
-121
-184
-223
-102
-157
-315
-225
-114
-160
-123
-124
-237
-193
-111
-259
-266
-101
-150
-309
-336
-132
-107
-139
-65
-225
-287
-95
-103
-289
-182
-38
-225
-289
-77
-207
-294
11
-40
-203
-11
48
-163
-95
169
86
3
275
336
-35
-81
178
50
-37
173
-30
-288
-76
-149
-349
-215
-158
-327
-402
-144
-145
-292
-92
-102
-259
-107
384
1099
2087
2997
2758
1514
520
72
-164
71
245
-125
-186
12
-110
-153
-94
-185
-292
-258
-121
-180
-261
-140
-227
-235
48
-43
-212
-110
-72
-170
-160
41
-48
-255
-67
21
-103
-7
74
-34
53
187
85
126
304
296
122
243
395
201
382
588
381
411
631
569
379
422
492
359
264
204
51
-101
25
122
-141
-110
47
-213
-301
-1
-114
-377
-141
-71
-258
-230
-153
-279
-272
-125
-202
-261
-157
-94
-269
-270
-174
-289
-212
-33
-247
-334
-57
-48
-237
-193
-61
-256
-263
-43
-82
-235
-185
-86
-231
-212
-56
-158
-223
-118
-233
-244
-78
-178
-249
-203
-193
-259
-289
-179
-257
-263
-181
-223
-146
-162
-190
-207
-255
-100
-221
-377
-95
-123
-341
-180
-81
-360
-372
-111
-178
-253
-83
-51
-277
-314
-201
-233
-246
-165
-216
-325
-135
0
-218
-227
-31
-174
-198
45
0
-118
48
120
-55
99
289
72
1
146
58
-5
166
22
-260
-129
-103
-326
-251
-129
-323
-370
-201
-129
-270
-401
-260
-210
-194
-114
214
1049
2212
3097
2902
1937
764
17
42
197
32
-125
35
20
-299
-297
-165
-264
-187
-60
-134
-199
-94
-75
-297
-260
-88
-184
-201
-20
-123
-263
-54
12
-185
-108
37
-97
-20
124
2
-40
106
153
10
51
250
198
266
441
328
314
482
493
379
491
574
362
385
671
602
317
405
384
114
159
139
-75
-86
64
-144
-302
33
43
-312
-245
-45
-218
-236
-15
-106
-298
-164
-115
-318
-249
-10
-219
-231
-8
-253
-277
-83
-139
-220
-103
-4
-238
-309
-36
-30
-228
-86
-80
-309
-171
-37
-174
-224
-119
-113
-257
-170
-25
-198
-127
54
-221
-314
-120
-241
-312
-119
-120
-258
-189
-66
-174
-277
-169
-186
-284
-114
-164
-338
-82
-13
-246
-195
-77
-202
-308
-98
-91
-482
-314
-94
-255
-174
-67
-117
-194
-144
-124
-238
-165
-59
-257
-254
-95
-211
-237
-102
-97
-185
-71
46
-67
-32
170
105
21
257
213
8
75
157
-7
-100
138
7
-201
-84
-200
-362
-233
-161
-216
-234
-209
-276
-349
-161
-96
-312
-254
46
380
1323
2603
3172
2821
1673
435
36
202
244
3
-146
-73
-150
-205
-134
-181
-177
-70
-114
-286
-289
-70
-99
-350
-220
-48
-205
-304
-104
-67
-260
-186
-152
-160
141
109
-187
-77
27
-1
76
146
75
37
257
290
114
266
341
189
347
586
467
284
458
535
356
460
593
457
343
384
325
112
113
106
-113
-107
13
-136
-262
-192
-225
-265
-146
-220
-361
-176
-171
-413
-331
-137
-184
-294
-224
-193
-350
-216
-35
-289
-398
-259
-236
-302
-202
-97
-254
-165
-67
-279
-293
-143
-178
-265
-139
-98
-301
-253
-42
-186
-302
-100
-205
-373
-147
-204
-313
-156
-132
-273
-292
-35
-169
-492
-319
-168
-235
-213
-232
-255
-191
-161
-211
-245
-175
-170
-286
-227
-183
-308
-239
-108
-184
-332
-240
-126
-293
-262
-95
-286
-435
-113
-69
-304
-202
-105
-241
-302
-64
-137
-326
-45
14
-152
1
88
-58
3
222
183
-29
-11
56
-40
72
133
-42
-235
-244
-346
-459
-122
-161
-345
-171
-212
-398
-300
-137
-285
-316
-57
-57
215
1419
2590
2927
2663
1559
215
-102
125
72
-98
-27
2
-167
-182
-36
-165
-378
-182
-130
-285
-151
-75
-220
-207
-51
-198
-270
-38
-121
-299
-108
30
-133
-66
71
-70
-109
57
95
-16
53
141
48
118
248
139
155
360
248
213
516
418
338
578
558
376
373
496
380
252
362
300
78
119
240
-26
-243
-70
-17
-166
-142
-157
-249
-86
-16
-211
-295
-158
-141
-265
-138
-87
-269
-231
-20
-78
-277
-187
-173
-302
-134
-23
-219
-95
12
-218
-170
-15
-141
-261
-86
-24
-250
-196
-76
-232
-150
77
-103
-339
-157
-95
-228
-107
47
-151
-317
-102
-183
-431
-205
-61
-180
-156
-67
-157
-296
-95
-49
-276
-200
-191
-254
-148
-136
-237
-260
-123
-139
-282
-199
-153
-276
-169
-39
-261
-319
-73
-102
-237
-128
-118
-221
-108
54
-21
-47
142
48
-114
134
306
115
-12
145
109
-28
142
109
-120
1
22
-288
-293
-108
-250
-347
-95
-138
-300
-162
-153
-334
-254
-54
-119
541
1969
2751
2706
2189
1000
-66
-71
277
144
-133
-13
-20
-273
-192
-96
-182
-162
-161
-239
-238
-112
-217
-353
-146
-71
-214
-152
-92
-217
-173
-16
-59
-165
-137
-58
-113
-135
29
17
54
175
-49
-42
239
252
203
288
383
263
217
419
412
387
527
480
433
443
413
413
313
327
340
112
-4
36
-51
-106
-5
-107
-223
-81
-118
-299
-185
-143
-337
-261
-107
-253
-285
-136
-142
-223
-241
-269
-351
-249
-172
-284
-243
-68
-83
-236
-143
-98
-385
-173
116
-220
-292
-86
-89
-251
-195
-33
-235
-310
-129
-223
-315
-135
-132
-307
-153
-48
-302
-274
-114
-171
-309
-341
-171
-284
-313
-48
-199
-321
-101
-169
-287
-76
-112
-405
-310
-21
-204
-370
-109
-186
-374
-157
-84
-352
-246
-19
-229
-241
-104
-246
-269
-72
-117
-273
-134
-69
-256
-229
-35
-85
-110
142
104
-123
62
233
95
121
319
40
-159
140
-16
-127
69
-42
-205
-207
-122
-194
-299
-124
-147
-412
-269
-133
-313
-369
-157
-70
-32
792
1938
2710
3025
2403
985
81
176
229
-1
103
64
-234
-204
-193
-291
-224
-98
-153
-235
-81
-186
-411
-172
-64
-295
-218
26
-157
-307
-8
-34
-276
-107
22
-99
-105
1
-11
-81
44
87
-21
137
246
120
202
366
245
296
519
413
291
464
592
459
477
623
451
260
359
439
228
172
268
34
-67
133
-10
-246
-64
-126
-333
-221
-46
-130
-229
-79
-233
-325
-146
-189
-242
-160
-146
-222
-213
-99
-117
-224
-178
-151
-231
-75
39
-196
-279
-195
-227
-196
-4
-114
-259
-33
-31
-232
-258
-68
-147
-299
-144
-131
-176
-111
-27
-182
-288
-83
-100
-308
-169
-97
-309
-191
-41
-214
-264
-91
-179
-343
-185
-110
-255
-152
-4
-231
-286
-63
-151
-269
-123
-135
-264
-123
-21
-200
-188
59
-144
-364
-77
-98
-283
-94
20
-205
-255
-70
