-867
-606
-516
-722
-610
-266
-469
-889
-720
-557
-743
-648
-639
-832
-792
-624
-764
-795
-579
-841
-889
-662
-806
-789
-613
-839
-804
-538
-652
-711
-505
-131
-401
-851
-355
-325
-515
-412
-617
-167
-41
-685
-857
-694
-500
-505
-734
-886
-881
-794
-1028
-1246
-962
-992
-914
-796
-1075
-955
-845
-684
414
2374
4007
5517
6054
3896
1316
596
464
-355
-596
-494
-1095
-1119
-798
-1087
-1243
-1133
-1095
-1212
-1194
-1075
-1162
-1142
-1080
-1034
-1061
-1045
-1095
-1170
-953
-988
-1166
-1016
-765
-943
-1077
-582
-730
-1043
-556
-547
-665
-557
-578
-423
-310
-135
152
28
192
430
256
306
465
575
575
546
609
582
434
147
156
307
-47
-152
109
-17
-274
-478
-525
-378
-293
-204
-227
-255
-292
-280
-273
-454
-452
-284
-394
-504
-215
-243
-452
-324
-302
-377
-419
-180
-204
-379
-186
-401
-581
-213
-147
-410
-281
-20
-112
-422
-350
-246
-336
-182
-144
-319
-261
-139
-225
-175
-71
-303
-464
-272
-186
-292
-293
55
-127
-622
-339
-195
-234
-20
103
-104
-172
93
27
-15
222
306
165
102
134
79
146
361
168
-118
-56
-151
-283
-249
-241
-383
-408
-197
-280
-602
-546
-403
-521
-469
-54
721
2103
4206
6038
6606
5481
2887
1136
926
523
-17
-77
-110
-527
-739
-448
-565
-873
-737
-605
-576
-707
-777
-708
-744
-618
-629
-668
-421
-506
-784
-699
-550
-610
-632
-481
-514
-607
-428
-237
-354
-472
-311
-309
-321
-30
88
27
215
429
466
428
517
582
565
1061
948
379
549
623
699
420
213
612
208
-210
-53
-155
-163
-171
-345
-290
-215
-364
-391
-249
-221
-381
-403
-228
-221
-171
-239
-474
-495
-273
-171
-417
-266
-12
-303
-378
-257
-254
-180
-125
-223
-363
-208
-166
-349
-214
-37
-199
-330
-153
-135
-261
-160
-42
-171
-350
-225
-166
-279
-233
-229
-342
-293
-205
-263
-87
101
-95
-123
20
-5
24
157
247
121
107
319
122
-77
183
284
34
-74
37
-133
-388
-280
-222
-323
-228
-232
-427
-403
-222
-269
-414
-228
379
1551
3371
5281
6462
5804
3320
1337
830
687
141
-247
-146
-387
-601
-504
-553
-514
-479
-698
-772
-673
-618
-564
-575
-606
-512
-572
-708
-498
-450
-640
-588
-416
-352
-554
-557
-462
-506
-343
-387
-259
-27
-345
-351
-62
56
112
186
382
377
548
778
596
539
654
710
658
651
750
592
488
629
459
116
-38
-26
-106
-214
-116
-188
-284
-51
-125
-405
-316
-211
-293
-321
-136
-196
-338
-88
-171
-372
-203
-54
-108
-337
-277
-197
-272
-197
-117
-148
-158
104
-90
-450
-185
-109
-217
-75
-124
-179
-85
3
62
-268
-357
-251
-305
-128
-93
-268
-60
185
-180
-352
-124
-231
-334
-132
-77
-119
-69
-26
-86
-120
74
175
55
115
151
274
451
157
25
142
245
267
17
232
216
-301
-159
-86
-331
-220
-106
-297
-372
-162
-180
-447
-279
-110
-309
167
1465
2958
4783
6319
5732
3371
1567
989
588
121
14
-135
-404
-531
-575
-638
-591
-502
-619
-674
-596
-683
-806
-613
-582
-653
-298
-355
-824
-794
-549
-571
-625
-461
-315
-476
-571
-466
-507
-480
-307
-203
-194
-45
23
-276
-145
243
252
297
469
648
800
716
519
517
666
746
608
600
620
451
311
259
161
-41
-66
-108
-213
-188
-165
-242
-253
-168
-207
-299
-269
-186
-216
-193
-191
-314
-388
-213
-112
-310
-182
-28
-237
-251
-76
-148
-320
-92
-67
-312
-248
-217
-197
-174
-113
-133
-213
-87
-84
-197
-44
-31
-276
-231
-90
-233
-349
-115
-51
-288
-242
-119
-198
-264
-221
-226
-228
-158
-145
-225
-249
-102
-124
-179
-33
11
-85
83
283
31
-26
232
147
95
377
290
63
181
158
86
161
181
33
-162
-89
-174
-427
-280
-246
-454
-43
94
-558
-633
-389
-376
-59
899
2440
4310
6216
6667
4870
2610
1454
913
283
58
-31
-336
-384
-365
-662
-774
-558
-451
-626
-779
-701
-759
-658
-499
-642
-623
-562
-609
-650
-535
-448
-683
-684
-444
-487
-559
-384
-439
-611
-383
-204
-252
-253
-160
-92
-51
158
247
275
524
584
459
551
651
610
656
807
719
549
724
733
438
173
26
-49
0
8
-216
-259
-241
-231
-158
-248
-384
-430
-334
-250
-332
-403
-271
-62
-214
-385
-206
-208
-321
-179
-186
-388
-291
-166
-237
-209
-146
-382
-374
-161
-292
-277
-222
-189
-302
-288
-85
-230
-254
-20
-70
-315
-125
-18
-398
-339
-9
-261
-432
-171
-211
-335
-170
-127
-245
-263
-5
-11
-421
-414
-304
-282
-203
-227
-248
-153
7
-28
-94
132
322
94
10
109
59
230
297
110
100
343
415
11
-39
107
-171
-167
-131
-345
-262
-222
-376
-433
-353
-329
-423
-344
-204
-173
226
1554
3476
5438
6732
6048
3684
1917
1287
604
41
-25
-182
-421
-424
-464
-570
-613
-714
-864
-822
-625
-635
-756
-607
-453
-643
-704
-503
-583
-731
-584
-565
-623
-492
-408
-515
-567
-479
-474
-470
-313
-282
-373
-222
11
100
11
2
139
260
492
542
507
799
801
614
854
857
513
494
652
532
238
245
220
-84
-27
-31
-339
-277
-77
-329
-398
-102
-306
-501
-293
-231
-316
-341
-231
-248
-327
-175
-133
-376
-378
-213
-312
-326
-224
-230
-330
-231
-192
-254
-129
-198
-381
-336
-148
-167
-203
-104
-200
-348
-153
-123
-432
-371
-144
-239
-343
-196
-78
-174
-301
-306
-342
-328
-173
-204
-377
-349
-272
-335
-304
-203
-282
-306
-137
-191
-407
-293
-206
-368
-318
-184
-225
-277
-246
-311
-388
-186
0
-119
142
354
-40
-59
215
253
79
108
282
181
179
181
27
-15
46
15
-227
-322
-288
-493
-419
-185
-524
-608
-242
-298
-542
-506
-153
329
1500
3741
5489
6292
5894
3553
1524
1111
691
30
-179
-174
-336
-558
-625
-710
-791
-685
-638
-802
-800
-629
-657
-730
-524
-564
-788
-668
-615
-732
-655
-480
-503
-454
-501
-693
-590
-460
-444
-456
-366
-241
-329
-307
-108
4
32
59
296
271
221
633
590
476
778
835
662
698
899
654
385
440
316
165
221
134
-211
-131
-37
-296
-244
-226
-400
-276
-185
-312
-435
-379
-243
-370
-280
-178
-461
-515
-331
-203
-341
-375
-185
-230
-265
-175
-310
-333
-83
-241
-417
-330
-209
-185
-364
-285
-230
-250
-157
-233
-330
-222
-163
-343
-302
-124
-289
-329
-163
-202
-380
-196
-24
-539
-556
-190
-298
-285
-282
-370
-356
-234
-58
-30
99
154
-66
-141
40
107
125
188
271
274
-27
-20
83
-2
25
-43
-250
-154
140
-251
-646
-578
-537
-464
-343
-344
-459
-399
-112
-120
340
1939
3735
5566
6574
5382
2870
1295
937
342
-165
-122
-319
-517
-546
-628
-583
-573
-700
-771
-747
-712
-664
-657
-637
-677
-797
-675
-490
-610
-777
-630
-630
-709
-582
-462
-493
-579
-499
-486
-395
-269
-382
-304
35
99
-161
-117
151
176
286
524
562
562
864
947
521
561
719
484
514
566
371
311
316
204
-57
-264
-272
-337
-273
-226
-364
-333
-214
-300
-391
-283
-305
-372
-349
-306
-232
-232
-269
-363
-411
-325
-288
-296
-199
-160
-325
-398
-150
-165
-366
-120
-106
-353
-309
-236
-222
-183
-185
-248
-299
-220
-237
-288
-158
-173
-313
-321
-195
-189
-221
-181
-282
-383
-285
-216
-255
-309
-290
-215
-289
-276
-201
-286
-253
-186
-257
-239
-166
-138
-94
62
121
76
204
191
30
41
174
194
98
148
155
18
-66
-22
-71
-332
-205
-52
-462
-529
-303
-446
-461
-210
-245
-429
-276
61
833
2357
4265
5789
6180
4690
2113
823
698
282
-78
67
-114
-554
-655
-720
-762
-702
-588
-611
-737
-575
-409
-661
-782
-552
-572
-683
-543
-586
-657
-513
-586
-626
-572
-486
-391
-568
-443
-206
-460
-339
-102
-304
-255
-99
-20
46
212
323
273
515
713
605
526
637
690
600
709
648
429
499
400
134
122
114
-79
-164
-19
-74
-284
-268
-306
-461
-374
-198
-245
-364
-251
-240
-468
-336
-155
-372
-340
-178
-318
-331
-215
-255
-325
-255
-104
-236
-404
-138
-179
-420
-294
-135
-158
-267
-183
-154
-344
-250
-128
-301
-260
-98
-190
-368
-275
-225
-316
-197
-247
-291
-71
-215
-428
-337
-267
-278
-360
-182
-112
-379
-232
-211
-466
-306
-158
-212
-187
-184
-184
-155
-8
112
-94
-23
169
89
96
191
156
78
244
273
-12
42
66
-172
-72
-147
-408
-506
-423
-296
-442
-409
-260
-415
-481
-320
-305
68
1255
2885
4737
6235
6051
3975
1951
1224
766
173
95
-152
-656
-619
-583
-776
-740
-600
-671
-753
-736
-386
-382
-972
-922
-791
-768
-583
-577
-481
-522
-736
-714
-656
-677
-686
-679
-531
-511
-545
-311
-311
-431
-276
-194
-189
-101
203
459
210
180
405
409
512
640
648
767
757
477
471
538
351
177
215
187
-77
-163
-69
-210
-337
-145
-255
-426
-295
-418
-462
-365
-281
-314
-424
-278
-296
-389
-263
-284
-387
-371
-350
-378
-414
-262
-159
-409
-451
-298
-395
-344
-116
-188
-337
-208
-237
-448
-346
-214
-293
-295
-112
-255
-523
-326
-141
-356
-377
-145
-382
-477
-266
-314
-401
-323
33
-216
-668
-308
-326
-458
-167
-275
-458
-254
-175
-447
-459
-184
-330
-462
-273
-291
-336
-216
-339
-480
-261
-116
-201
-297
-158
-34
-159
-109
126
33
-94
159
174
111
331
203
-16
240
214
-123
28
177
-74
-344
-269
-255
-396
-204
-302
-580
-369
-263
-498
-479
-339
-322
189
1574
3488
5430
6608
5959
3637
1771
1223
601
-32
-97
-141
-490
-530
-366
-775
-937
-665
-746
-832
-545
-576
-844
-701
-623
-758
-737
-617
-681
-673
-355
-491
-774
-678
-623
-636
-597
-449
-431
-536
-254
14
-500
-550
-70
-261
-182
262
147
113
603
601
310
582
775
619
582
694
650
555
681
581
340
395
279
-83
-147
-24
-140
-285
-196
-267
-142
24
-463
-661
-504
-325
-300
-390
-221
-243
-242
-170
-358
-372
-310
-389
-376
-373
-293
-236
-348
-264
-155
-250
-241
-179
-251
-280
-78
-53
-241
-246
-224
-374
-333
-152
-239
-220
-182
-184
-220
-361
-316
-423
-387
-77
-209
-388
-260
-249
-337
-270
-196
-343
-407
-230
-226
-381
-267
-218
-260
-104
-187
-371
-404
-294
-173
-177
-190
-157
-94
76
174
8
20
327
355
128
190
216
104
163
269
256
9
-103
-99
-268
-282
-300
-380
-286
-304
-437
-448
-340
-293
-455
-426
-26
511
1837
3906
5897
6787
5466
2898
1376
1079
502
-59
-143
-223
-469
-670
-603
-639
-779
-649
-536
-718
-745
-654
-721
-683
-628
-631
-647
-648
-572
-614
-658
-497
-562
-730
-471
-461
-646
-494
-369
-387
-394
-279
-305
-252
42
-6
-75
187
339
235
352
711
634
620
1032
903
571
624
663
580
545
497
324
318
242
-28
-150
-150
-133
-274
-296
-148
-254
-388
-312
-316
-413
-352
-276
-273
-353
-349
-306
-294
-205
-307
-352
-241
-241
-280
-323
-243
-249
-366
-184
-198
-317
-156
-143
-243
-260
-204
-175
-219
-200
-282
-360
-46
-38
-357
-282
-141
-223
-313
-227
-217
-310
-206
-162
-291
-292
-103
-174
-426
-272
-197
-293
-91
0
-65
67
131
127
151
167
246
106
91
248
67
30
201
17
-40
131
-81
-88
-123
-521
-494
-314
-326
-374
-364
-293
-284
-256
-292
-208
427
1933
4017
5613
6379
5393
2776
1083
846
539
7
-111
-152
-408
-488
-469
-591
-628
-620
-630
-667
-643
-539
-652
-706
-499
-526
-653
-521
-513
-651
-479
-393
-680
-668
-412
-406
-503
-327
-135
-405
-488
-204
-267
-231
194
191
24
199
277
304
483
660
658
787
901
695
733
797
624
516
529
743
404
-47
77
5
-127
-114
-152
-330
-229
-16
-262
-445
-274
-232
-366
-215
-198
-429
-344
-189
-276
-220
-74
-273
-397
-249
-175
-253
-236
-137
-248
-268
-112
-155
-290
-150
-43
-331
-322
-119
-213
-222
-73
-120
-316
-214
-85
-236
-240
-114
-255
-330
-143
-147
-121
-74
-343
-353
-194
-150
-205
-336
-179
-199
-374
-173
-38
-273
-276
-142
-268
-103
122
27
3
170
161
65
186
305
208
74
315
299
8
128
86
-144
-46
124
-142
-391
-302
-331
-375
-266
-229
-373
-203
-141
-486
-213
572
1729
3510
5472
6573
5556
3194
1525
766
303
177
-22
-141
-144
-621
-761
-541
-518
-553
-636
-538
-425
-563
-560
-650
-834
-611
-481
-658
-650
-318
-413
-785
-615
-454
-576
-460
-315
-367
-374
-253
-296
-448
-180
-42
-261
-22
288
109
135
435
458
412
782
1077
539
373
754
633
571
722
553
341
571
379
-170
-100
2
-189
-243
-114
-28
-171
-377
-368
-364
-341
-199
-286
-394
-256
-248
-381
-293
-61
-195
-359
-209
-312
-350
-114
-227
-300
-124
-258
-442
-312
-105
-170
-326
-201
-118
-276
-199
-163
-319
-184
-70
-121
-160
-247
-300
-284
-207
-145
-233
-298
-235
-266
-293
-144
-184
-335
-218
-106
-285
-188
27
-274
-411
-237
-269
-326
-182
-110
-200
-78
132
88
108
138
25
47
290
499
64
-99
265
173
122
236
109
-34
-32
-3
-139
-347
-327
-346
-297
-224
-373
-369
-194
-198
-441
-251
532
1629
3279
5400
6602
5869
3766
1767
1016
722
314
-65
-264
-267
-488
-601
-478
-618
-772
-610
-547
-685
-765
-581
-471
-812
-776
-534
-641
-610
-565
-623
-593
-568
-453
-263
-459
-651
-615
-509
-361
-392
-393
-142
-10
-268
-209
41
29
161
397
352
600
983
570
334
687
746
624
685
699
493
428
463
193
96
236
-52
-364
-237
-142
-334
-162
-14
-447
-566
-326
-253
-366
-323
-152
-169
-330
-383
-354
-404
-284
-163
-237
-137
-183
-464
-420
-293
-269
-218
-144
-198
-421
-271
-101
-340
-338
-156
-190
-281
-165
3
-305
-454
-213
-295
-371
-205
-188
-347
-319
-226
-313
-231
-130
-349
-479
-267
-209
-377
-220
-129
-461
-460
-250
-329
-346
-262
-85
-47
-218
-306
-309
-89
110
27
-11
102
130
230
377
114
-99
122
184
102
137
137
96
-29
-242
-375
-455
-412
-319
-431
-413
-216
-319
-424
-408
-386
-217
432
1912
3940
5883
6694
5507
3033
1446
1037
449
131
237
-248
-630
-553
-717
-814
-671
-664
-766
-736
-625
-360
-582
-1012
-834
-763
-691
-584
-708
-642
-512
-600
-642
-439
-348
-350
-532
-810
-659
-425
-314
-350
-345
-142
-104
-113
54
246
332
371
446
404
474
720
749
620
889
981
420
396
614
336
172
281
202
-57
-46
1
-213
-271
-277
-435
-396
-241
-197
-338
-412
-244
-416
-443
-227
-371
-404
-255
-306
-428
-301
-266
-400
-295
-96
-194
-370
-281
-241
-266
-169
-217
-335
-270
-124
-120
-331
-346
-241
-289
-205
-202
-300
-246
-222
-297
-366
-256
-190
-286
-191
-150
-223
-300
-395
-378
-327
-190
-243
-256
-125
-300
-382
-262
-257
-320
-266
-124
-136
-116
125
100
-140
-81
112
144
132
221
277
161
122
116
136
203
46
-128
-148
-160
-212
-284
-361
-351
-449
-386
-208
-347
-389
-388
-550
-368
428
1712
3599
5712
6840
5668
3071
1577
1150
552
83
-36
-302
-515
-391
-604
-789
-608
-715
-792
-603
-594
-675
-602
-654
-829
-816
-613
-502
-631
-698
-616
-608
-566
-545
-602
-533
-393
-530
-605
-326
-271
-453
-307
-57
-148
-140
101
162
256
416
396
456
645
698
655
747
970
830
514
611
674
437
430
341
-121
-208
-16
-128
-314
-181
-142
-310
-161
-230
-542
-449
-295
-333
-413
-340
-271
-350
-145
-113
-489
-333
-203
-428
-409
-269
-211
-311
-337
-23
-45
-415
-297
-261
-359
-218
-179
-276
-105
-21
-317
-377
-255
-210
-229
-193
-110
-283
-388
-235
-290
-359
-205
-225
-175
-151
-438
-436
-262
-205
-290
-306
-215
-223
-89
-66
-274
-333
-160
5
37
-1
41
225
95
80
278
73
78
389
149
-64
219
49
-180
-38
-141
-323
-351
-235
-253
-483
-356
-316
-477
-344
-279
-179
58
352
1563
3637
5624
6557
5480
3126
1415
844
423
132
-52
-372
-309
-475
-795
-604
-522
-738
-749
-530
-542
-679
-598
-626
-712
-517
-597
-766
-598
-509
-605
-591
-475
-514
-472
-463
-571
-477
-430
-374
-227
-187
-181
-160
-141
-35
140
138
361
633
362
397
644
586
662
840
785
761
860
613
386
431
380
222
180
69
-94
-197
-246
-199
-351
-405
-137
-245
-397
-114
-150
-390
-379
-327
-357
-305
-201
-202
-252
-265
-263
-246
-48
-100
-376
-290
-148
-178
-135
-132
-269
-322
-206
-138
-256
-209
-35
-172
-313
-158
-99
-356
-321
-78
-183
-171
-186
-350
-325
-141
-125
-330
-223
-116
-310
-336
-242
-327
-364
-200
-81
-249
-275
-127
-217
-258
-115
-68
-67
178
204
-64
39
227
137
102
176
235
180
186
155
-102
-128
-28
-126
-258
-159
7
-308
-455
-343
-429
-288
-259
-418
-440
-176
425
1364
3024
4966
6157
5829
3776
1566
727
724
210
-269
-145
-241
-492
-560
-525
-599
-575
-547
-685
-728
-497
-412
-777
-778
-551
-639
-638
-571
-442
-416
-586
-484
-627
-654
-337
-426
-417
-396
-391
-320
-425
-291
-173
-117
12
-6
158
340
342
362
527
686
598
691
790
679
775
760
502
388
434
361
157
112
78
-90
-115
-46
-238
-371
-203
-234
-410
-286
-141
-354
-366
-148
-208
-376
-293
-178
-308
-298
-115
-298
-360
-21
-145
-435
-280
-130
-266
-123
-103
-411
-380
-211
-112
-198
-179
-29
-268
-354
-165
-253
-300
-147
-194
-340
-208
-197
-286
-174
-179
-277
-384
-217
-131
-324
-270
-188
-148
-273
-365
-335
-343
-183
-196
-258
-148
-158
-307
-174
131
25
-49
117
109
111
163
128
8
50
199
-9
5
276
81
-52
46
-270
-465
-303
-231
-342
-454
-366
-395
-413
-209
-363
-595
-76
905
2171
4177
6138
6446
4915
2600
1224
809
389
154
-98
-388
-452
-518
-692
-670
-596
-703
-717
-643
-740
-773
-643
-668
-711
-538
-442
-656
-796
-598
-546
-704
-587
-527
-561
-386
-500
-680
-513
-378
-354
-332
-150
-24
-147
-73
37
-12
180
460
477
435
650
717
650
722
655
665
626
514
438
356
387
208
-26
29
83
-106
-276
-271
-323
-264
-199
-378
-470
-361
-337
-434
-356
-194
-358
-448
-199
-171
-326
-310
-228
-317
-350
-197
-254
-353
-214
-198
-391
-330
-216
-321
-205
-70
-296
-330
-133
-284
-370
-192
-169
-260
-180
-146
-412
-443
-194
-242
-285
18
-212
-619
-327
-261
-410
-278
-165
-245
-343
-215
-173
-352
-240
-52
-253
-336
-270
-245
-168
12
215
62
-64
175
187
67
159
158
86
228
226
-47
-15
92
-32
-129
-139
-262
-457
-361
-258
-391
-352
-244
-311
-427
-480
-465
-117
900
2503
4441
6371
6790
4623
2235
1420
932
357
165
-27
-319
-518
-611
-671
-655
-607
-731
-777
-616
-659
-774
-649
-575
-625
-662
-682
-684
-649
-592
-546
-538
-481
-471
-652
-622
-357
-427
-577
-231
-81
-402
-351
-108
-110
-27
189
219
245
455
543
500
598
836
817
648
802
768
594
650
589
428
307
293
123
-204
-194
-139
-233
-169
-87
-251
-425
-356
-401
-401
-197
-269
-369
-109
-127
-350
-358
-376
-389
-360
-235
-217
-324
-167
-125
-412
-386
-231
-270
-129
-21
-245
-358
-185
-146
-330
-253
-12
-194
-371
-184
-218
-317
-245
-137
-130
-283
-226
-309
-430
-188
-210
-397
-235
-162
-335
15
149
-520
-580
-218
-264
-354
-206
-148
-167
5
-266
-420
-172
-4
87
22
89
90
91
259
232
66
117
282
119
-47
109
176
-79
-220
-142
-273
-427
-319
-287
-444
-358
-216
-450
-551
-407
-475
-98
943
2272
4269
6228
6614
4916
2525
1428
892
308
191
-168
-530
-473
-576
-783
-708
-627
-746
-747
-725
-647
-669
-827
-708
-644
-614
-593
-753
-770
-563
-537
-679
-588
-541
-566
-492
-503
-532
-452
-359
-404
-361
-144
-104
-218
-95
167
66
72
438
580
589
636
666
688
810
826
626
567
717
548
326
469
200
-134
-44
-68
-117
-112
-334
-489
-410
-279
-318
-448
-329
-273
-348
-306
-297
-363
-420
-354
-330
-322
-259
-300
-375
-482
-298
-253
-438
-252
-213
-273
-67
-214
-545
-343
-97
-221
-283
-229
-251
-341
-294
-205
-345
-321
-154
-312
-424
-253
-227
-341
-269
-159
-248
-381
-285
-303
-402
-161
-259
-475
-252
-178
-326
-380
-186
-196
-379
-76
-21
-192
56
159
-81
-65
193
146
99
322
217
-77
137
270
-14
-102
-29
-124
-275
-180
-261
-386
-226
-389
-546
-403
-279
-337
-422
-330
-201
311
1739
3737
5628
6651
5689
3165
1386
1021
635
-11
-155
-149
-464
-672
-550
-623
-631
-403
-747
-986
-735
-631
-652
-691
-597
-530
-607
-606
-656
-745
-608
-483
-608
-486
-404
-550
-322
-376
-627
-582
-402
-212
-301
-166
175
39
50
207
115
250
505
607
810
890
637
698
687
619
705
536
528
576
296
125
161
1
-50
40
-126
-298
-227
-243
-418
-292
-142
-404
-500
-234
-209
-394
-264
-98
-257
-353
-272
-286
-385
-226
-94
-311
-315
-165
-229
-228
-178
-236
-206
-122
-131
-245
-228
-240
-325
-102
-86
-262
-297
-186
-174
-263
-119
-55
-207
-350
-247
-169
-253
-137
-101
-337
-256
-94
-344
-375
-85
-102
-260
-174
-99
-276
-297
-92
-54
-45
190
388
118
-163
-34
95
189
258
131
147
254
196
141
212
92
-207
-152
-55
-274
-239
-131
-370
-417
-252
-237
-352
-318
-244
-73
712
1893
3433
5353
6484
5476
2987
1352
1144
789
29
-208
-288
-479
-474
-462
-582
-580
-522
-611
-567
-367
-393
-837
-856
-570
-672
-571
-448
-519
-330
-267
-630
-709
-550
-553
-541
-445
-323
-373
-364
-70
-156
-348
-62
-51
-164
110
318
274
398
675
580
604
843
756
697
775
696
738
721
487
393
311
333
134
-149
-67
-32
-178
-252
-93
-206
-442
-265
-177
-386
-211
35
-429
-496
-77
-245
-453
-264
-231
-346
-140
-130
-322
-181
-259
-408
-229
-155
-257
-203
-86
-279
-383
-236
-143
-192
-248
-134
-133
-272
-300
-164
-191
-228
-161
-325
-259
-116
-300
-317
-89
-249
-424
-210
-144
-294
-404
-244
-157
-299
-251
-149
-261
-352
-208
-126
-180
-142
-221
-277
-103
131
209
-14
4
205
118
140
180
109
252
255
-11
44
159
-121
-264
-159
-216
-315
-250
-273
-453
-398
-232
-335
-433
-395
-361
-108
861
2426
4274
6083
6591
4833
2411
1387
971
333
73
-20
-422
-586
-542
-691
-729
-607
-492
-677
-796
-663
-770
-760
-549
-582
-733
-676
-584
-711
-649
-498
-693
-743
-493
-548
-613
-299
-424
-651
-386
-310
-390
-316
-143
-3
32
-1
102
293
300
411
572
557
665
685
641
732
699
648
571
443
270
166
176
93
29
-61
-246
-411
-315
-248
-415
-237
-243
-523
-484
-388
-324
-386
-273
-138
-311
-392
-416
-488
-427
-293
-222
-322
-382
-125
-286
-548
-316
-276
-382
-214
-64
-277
-464
-344
-347
-320
-109
-287
-324
-121
-374
-485
-267
-197
-311
-344
-219
-280
-238
-69
-397
-560
-316
-281
-372
-319
-153
-279
-460
-312
-302
-414
-241
-214
-362
-281
-152
-226
-285
-82
-24
-22
164
28
-113
138
233
69
33
224
205
-1
247
209
-252
-228
-65
-157
-287
-284
-345
-470
-338
-159
-326
-404
-323
-454
-567
-268
461
1668
3680
5796
6695
5717
3436
1642
1068
815
391
-225
-542
-496
-594
-624
-650
-743
-755
-594
-547
-808
-697
-503
-781
-800
-574
-697
-751
-552
-546
-687
-628
-480
-638
-637
-332
-452
-558
-394
-470
-519
-301
-207
-271
-142
72
73
69
278
366
357
590
699
572
615
816
781
641
812
699
462
518
323
81
87
45
-151
-199
-97
-229
-455
-203
-108
-503
-458
-182
-258
-377
-283
-406
-493
-277
-236
-355
-408
-302
-219
-369
-369
-273
-366
-251
-128
-341
-346
-205
-291
-302
-185
-269
-423
-248
-120
-278
-286
-50
-71
-401
-340
-261
-458
-340
-196
-280
-289
-198
-238
-371
-271
-126
-258
-396
-207
-223
-418
-299
-336
-391
-184
-251
-416
-295
-174
-266
-284
-33
97
14
17
102
-13
-58
175
161
73
281
212
-33
115
172
-43
-54
3
-174
-181
-62
-441
-573
-297
-387
-468
-213
-265
-548
-504
-365
-36
841
2647
4846
6306
6603
4775
2061
1105
948
330
26
94
-310
-707
-478
-527
-845
-762
-609
-725
-768
-581
-619
-769
-649
-621
-723
-736
-654
-638
-713
-586
-479
-602
-574
-471
-579
-567
-337
-353
-444
-287
-329
-364
-183
-25
5
-7
304
373
217
502
618
513
656
851
849
795
768
630
524
550
398
163
268
224
-158
-193
-97
-309
-413
-275
-298
-386
-301
-150
-201
-488
-430
-306
-375
-307
-259
-370
-365
-204
-386
-481
-278
-313
-321
-236
-169
-174
-379
-396
-367
-323
-191
-272
-204
-62
-176
-387
-371
-121
-202
-265
-107
-395
-497
-174
-196
-415
-260
-193
-398
-344
-196
-307
-288
-65
-297
-476
-286
-195
-268
-284
-192
-307
-438
-311
-168
-243
-248
-107
-145
-69
182
132
-132
26
276
93
122
205
51
81
150
132
33
46
142
-159
-383
-234
-265
-466
-453
-410
-436
-303
-352
-347
-303
-395
-138
621
2352
4475
6105
6667
4945
2362
1239
930
393
55
-35
-341
-605
-608
-617
-709
-777
-676
-680
-750
-649
-773
-757
-549
-672
-781
-677
-645
-679
-670
-631
-650
-685
-387
-328
-666
-446
-459
-770
-532
-306
-334
-323
-59
20
-142
27
267
267
412
680
627
490
694
799
672
805
876
786
539
299
320
217
153
140
-75
-116
-135
-297
-216
-246
-370
-435
-340
-272
-452
-376
-379
-517
-318
-189
-376
-396
-194
-263
-528
-409
-191
-281
-317
-280
-367
-391
-195
-221
-307
-162
-352
-476
-330
-278
-307
-267
-157
-189
-280
-319
-226
-144
-350
-385
-260
-360
-294
-218
-311
-310
-198
-262
-445
-259
-173
-431
-293
-263
-432
-143
-78
-437
-468
-174
-273
-411
-66
55
-76
68
56
-89
114
275
63
-23
98
59
42
184
118
-122
-54
51
-159
-309
-261
-358
-452
-323
-329
-424
-371
-314
-478
-576
-161
333
1059
2888
4938
6232
6231
3956
1486
860
710
215
-91
-143
-297
-607
-717
-585
-657
-688
-581
-680
-656
-583
-696
-736
-667
-593
-637
-694
-453
-462
-684
-575
-585
-600
-616
-515
-438
-569
-363
-278
-512
-397
-169
-259
-218
85
161
39
192
341
331
486
679
714
766
896
663
533
743
684
466
408
398
308
310
183
-235
-422
-220
-220
-329
-286
-263
-269
-319
-307
-363
-404
-278
-272
-336
-270
-162
-185
-360
-431
-390
-401
-259
-216
-362
-238
-129
-290
-281
-164
-237
-353
-204
-32
-337
-358
-107
-317
-304
-35
-236
-392
-183
-243
-359
-164
-138
-371
-321
-199
-274
-244
-208
-250
-271
-331
-271
-255
-373
-283
-223
-318
-260
-230
-329
-234
-79
-125
-112
19
20
-7
87
93
16
180
192
33
164
174
44
-4
13
-39
-128
-80
-126
-251
-349
-413
-503
-427
-199
-303
-521
-409
-348
-432
46
1227
2564
4185
6026
6320
4213
2043
1172
616
236
-6
-171
-336
-510
-582
-743
-639
-592
-790
-686
-584
-731
-740
-567
-611
-751
-638
-481
-480
-663
-724
-629
-614
-509
-400
-447
-528
-573
-609
-520
-312
-191
-222
-197
-112
-224
-84
198
147
265
542
620
475
531
670
686
756
713
625
688
797
464
150
241
218
53
-82
-122
-196
-225
-189
-284
-394
-267
-185
-402
-325
-124
-305
-381
-249
-304
-324
-249
-198
-218
-343
-309
-260
-307
-202
-225
-350
-162
-66
-284
-385
-296
-313
-297
-126
-224
-324
-147
-94
-295
-342
-211
-281
-280
-202
-255
-213
-144
-290
-366
-141
-178
-403
-361
-258
-223
-292
-273
-192
-326
-393
-239
-266
-290
-159
-223
-195
-12
-123
-234
57
191
5
35
187
139
82
156
136
151
173
142
153
73
42
-36
-118
-111
-145
-329
-455
-326
-316
-357
-299
-354
-260
-126
-445
-219
905
2424
4396
6186
6613
5028
2661
1486
999
256
-3
-74
-358
-523
-472
-497
-695
-561
-554
-895
-795
-566
-689
-694
-550
-607
-605
-493
-633
-730
-574
-541
-652
-612
-443
-538
-554
-328
-459
-527
-318
-277
-355
-310
-160
-10
55
51
247
279
337
600
562
558
788
843
639
700
849
690
565
622
416
204
281
108
-107
-131
-65
-199
-415
-239
-274
-370
-97
-287
-500
-244
-248
-347
-244
-180
-378
-349
-111
-354
-440
-143
-184
-412
-317
-208
-335
-340
-86
-182
-424
-101
-205
-537
-273
-189
-291
-244
-94
-12
-285
-336
-242
-360
-245
-148
-269
-290
-99
-165
-420
-203
-69
-403
-432
-166
-123
-262
-337
-334
-289
-197
-250
-345
-197
-20
-345
-432
-7
-71
-197
162
211
-40
71
250
107
104
276
111
82
196
149
142
68
8
-63
-172
-115
-193
-470
-415
-193
-389
-461
-212
-401
-517
-386
-381
53
1247
3033
4929
6515
6511
4230
2071
1357
764
190
173
-35
-546
-570
-536
-759
-692
-491
-567
-722
-708
-748
-817
-701
-649
-734
-676
-445
-534
-759
-652
-644
-710
-614
-478
-444
-451
-429
-501
-524
-419
-341
-373
-189
108
-177
-256
194
256
216
473
628
598
801
1009
785
659
760
667
560
592
528
323
302
201
-77
-94
22
-128
-398
-147
-125
-561
-439
-105
-321
-640
-348
-295
-462
-226
-206
-415
-389
-241
-331
-442
-339
-289
-271
-276
-309
-342
-317
-287
-394
-289
-152
-282
-335
-217
-203
-320
-241
-35
-178
-369
-160
-240
-585
-400
-247
-384
-299
-213
-245
-231
-226
-298
-350
-280
-250
-233
-213
-240
-342
-418
-284
-265
-339
-302
-123
-67
-263
-435
-363
-126
45
78
-13
87
103
16
264
290
-25
33
256
165
27
90
26
-180
-59
-56
-221
-204
-396
-540
-509
-390
-343
-499
-358
-245
-555
-417
568
1735
3479
5771
6786
5642
3337
1634
998
530
143
-126
-375
-393
-502
-749
-749
-578
-732
-821
-419
-608
-959
-758
-727
-745
-639
-611
-701
-684
-547
-542
-619
-664
-606
-649
-607
-490
-478
-463
-479
-430
-308
-175
-293
-258
57
146
65
183
434
448
469
665
803
788
757
810
687
530
596
531
415
379
171
146
76
-281
-330
-279
-207
-274
-404
-133
-123
-452
-450
-314
-476
-510
-318
-337
-443
-337
-110
-173
-435
-457
-464
-451
-293
-341
-389
-231
-126
-196
-269
-293
-345
-342
-243
-194
-297
-135
-40
-504
-477
-172
-304
-265
-93
-213
-398
-243
-184
-324
-216
-246
-316
-197
-256
-263
-273
-373
-310
-305
-295
-243
-301
-328
-164
-167
-253
93
73
-147
51
-23
-52
163
255
271
155
105
158
71
53
168
-29
-193
-15
-78
-361
-400
-328
-457
-392
-108
-226
-375
-307
-434
-442
62
854
2187
4264
6027
6257
4679
2458
1139
668
371
184
-130
-430
-478
-593
-647
-448
-495
-762
-609
-476
-705
-715
-567
-537
-678
-672
-511
-585
-591
-568
-634
-514
-424
-545
-531
-341
-443
-633
-394
-274
-420
-275
-104
-216
-100
138
56
66
287
454
437
634
964
841
595
599
662
605
613
621
416
329
572
232
-254
-43
-154
-327
-156
-204
-345
-284
-165
-111
-247
-400
-346
-402
-245
-230
-374
-336
-386
-300
-327
-316
-242
-319
-249
-142
-295
-348
-181
-251
-299
-176
-153
-175
-55
-40
-447
-452
-199
-325
-201
-73
-181
-232
-231
-240
-314
-178
-74
-248
-255
-204
-312
-269
-59
-95
-408
-372
-189
-281
-155
-134
-349
-353
-159
-42
-271
-175
95
-94
-80
134
145
18
71
282
223
175
205
102
96
146
65
-81
2
65
-202
-280
-188
-257
-384
-326
-330
-371
-258
-321
-434
-272
384
1433
3147
5121
6263
5795
3674
1774
976
645
338
-91
-295
-311
-386
-527
-635
-569
-667
-737
-537
-725
-824
-620
-702
-756
-577
-570
-646
-454
-501
-773
-751
-543
-539
-552
-383
-410
-549
-438
-289
-359
-343
-62
-59
-321
-7
272
123
177
349
418
451
700
856
690
705
857
720
668
758
565
402
378
189
114
75
-194
-269
-218
-233
-319
-310
-83
-190
-462
-341
-272
-386
-330
-206
-185
-272
-280
-340
-449
-274
-228
-391
-306
-335
-90
199
-335
-628
-460
-294
-220
-300
-231
-107
-29
-115
-350
-387
-344
-240
-159
-284
-272
-178
-254
-327
-197
-102
-232
-349
-369
-333
-264
-138
-258
-479
-146
-57
-418
-336
-180
-255
-359
-291
-261
-312
-104
-119
-255
-40
82
-16
6
95
62
146
441
330
-113
-12
183
29
119
245
39
-107
10
-56
-251
-235
-118
-74
-323
-445
-400
-408
-248
-331
-444
71
1043
2405
4579
6579
6765
4820
2240
1095
739
292
52
-228
-362
-467
-586
-535
-807
-860
-709
-741
-687
-797
-818
-623
-687
-765
-517
-632
-880
-708
-607
-732
-725
-562
-553
-548
-405
-524
-556
-415
-469
-437
-351
-230
-227
-238
163
221
-21
227
445
444
565
747
682
745
922
741
580
694
683
396
349
307
39
-31
6
-89
-167
-246
-299
-381
-417
-278
-254
-301
-293
-320
-424
-347
-217
-413
-497
-263
-330
-460
-284
-327
-405
-298
-247
-311
-335
-167
-278
-435
-252
-258
-403
-218
-85
-318
-189
-89
-446
-436
-210
-254
-351
-291
-90
-82
-340
-243
-212
-483
-362
-265
-342
-269
-129
-218
-424
-294
-282
-404
-211
-193
-409
-353
-224
-352
-341
-117
-140
-201
-187
-207
-94
87
68
-54
68
265
160
12
138
125
-41
82
245
85
-114
-35
-179
-423
-300
-327
-472
-335
-249
-383
-472
-448
-476
-568
-361
137
1004
2781
5041
6685
6489
4281
2012
1082
771
268
-93
-149
-320
-536
-612
-626
-668
-783
-677
-682
-765
-523
-614
-874
-814
-670
-644
-599
-566
-611
-585
-697
-719
-655
-650
-492
-507
-611
-460
-416
-520
-336
-117
-335
-383
2
99
88
264
309
271
468
644
590
690
914
865
640
695
804
606
395
399
299
117
52
-53
-112
-175
-234
-322
-321
-112
-295
-482
-269
-363
-449
-249
-216
-376
-341
-208
-385
-367
-171
-334
-360
-134
-257
-452
-238
-163
-336
-121
-30
-304
-415
-257
-186
-278
-165
-44
-181
-282
-224
-315
-329
-137
-188
-129
-27
-248
-405
-448
-252
-220
-363
-224
-221
-337
-87
-76
-494
-411
-202
-304
-292
-265
-280
-233
-239
-316
-359
-320
-264
-335
-360
-173
-131
-354
-205
53
-46
36
184
48
-71
146
317
145
197
454
157
-79
227
209
14
123
158
-117
-231
-210
-360
-285
-170
-225
-265
-152
-135
-379
-268
222
1026
2608
4760
6454
6611
4822
2340
1156
939
450
8
-129
-268
-519
-655
-588
-617
-749
-645
-539
-732
-756
-615
-702
-781
-627
-596
-614
-523
-702
-863
-693
-516
-649
-637
-333
-586
-797
-445
-385
-531
-399
-222
-293
-297
-89
-20
53
300
345
363
453
497
557
608
834
889
680
704
695
517
449
482
323
132
156
-80
-338
-257
-217
-352
-384
-304
-352
-465
-305
-201
-405
-331
-294
-399
-315
-242
-259
-418
-332
-216
-398
-379
-234
-306
-322
-150
-132
-331
-261
-87
-337
-357
-206
-269
-230
-197
-226
-226
-151
-94
-152
-236
-212
-242
-375
-274
-235
-283
-183
-254
-362
-206
-164
-379
-349
-233
-206
-240
-393
-407
-404
-235
-147
-464
-450
-199
-371
-496
-283
-304
-311
-151
-131
-214
-155
46
-28
-115
81
107
16
84
69
28
119
192
61
-70
-1
-159
-382
-327
-325
-469
-457
-300
-276
-365
-405
-439
-479
-466
-291
236
1374
3274
5270
6548
6150
3759
1595
1126
736
31
-42
-122
-524
-656
-521
-697
-866
-701
-693
-789
-751
-614
-605
-738
-693
-540
-670
-739
-556
-613
-592
-358
-497
-699
-523
-441
-566
-513
-365
-365
-355
-249
-287
-237
-10
-6
-25
165
374
420
387
566
724
725
838
830
676
781
859
676
609
610
398
258
258
49
-117
-99
-165
-263
-171
-95
-353
-488
-291
-253
-404
-347
-187
-371
-201
48
-485
-616
-257
-232
-362
-285
-181
-278
-201
-1
-206
-461
-224
-120
-221
-115
-146
-203
-188
-161
-146
-246
-160
-125
-208
-137
-90
-147
-210
-168
-127
-203
-215
-173
-195
-156
-127
-187
-171
-71
-70
-173
-150
-98
-232
-164
-40
-161
-123
7
-65
-106
66
178
48
14
160
150
166
292
269
113
117
230
178
196
449
430
195
412
551
420
519
623
637
766
724
399
360
594
553
449
565
473
218
308
393
-11
-269
-67
-111
-265
-168
-115
-210
-130
-125
-394
-102
833
2255
4277
6387
7033
5163
2638
1479
951
384
150
-106
-408
-455
-524
-652
-600
-600
-793
-805
-654
-709
-817
-667
-528
-603
-568
-628
-865
-786
-635
-603
-585
-593
-568
-626
-487
-338
-521
-423
-245
-404
-417
-173
-47
-202
-66
311
171
144
527
564
489
718
882
724
673
887
816
661
693
605
494
485
316
-61
-134
-36
-227
-340
-211
-159
-326
-462
-467
-556
-488
-369
-493
-514
-415
-472
-601
-493
-282
-509
-686
-548
-612
-650
-503
-255
-422
-812
-652
-567
-566
-398
-496
-510
-354
-491
-646
-472
-385
-543
-344
-173
-592
-624
-285
-362
-588
-464
-330
-507
-534
-364
-416
-468
-288
-407
-653
-501
-368
-569
-613
-485
-585
-660
-523
-568
-674
-462
-342
-492
-529
-425
-473
-526
-383
-300
-502
-500
-344
-425
-300
-126
-137
7
82
-36
-44
122
220
133
285
464
189
62
248
237
99
94
132
11
-72
-112
-392
-432
-193
-269
-362
-248
-205
-300
-358
-155
224
1182
2946
4868
6498
6748
4654
2016
1147
954
286
42
-27
-383
-576
-535
-470
-614
-754
-644
-669
-724
-564
-526
-643
-578
-585
-764
-680
-457
-539
-699
-456
-501
-663
-313
-359
-639
-448
-273
-295
-279
-158
-114
-130
95
215
257
479
668
704
749
1024
1132
1093
1250
1300
1231
1235
1328
1320
1065
1037
1040
771
673
527
302
415
340
-32
-46
108
-13
-167
-92
-86
-214
-210
-74
-37
-213
-241
-299
-498
-324
-171
-397
-383
-244
-388
-376
-233
-400
-584
-397
-303
-501
-449
-234
-360
-425
-329
-364
-414
-277
-300
-526
-375
-297
-512
-455
-291
-447
-489
-336
-471
-601
-468
-420
-552
-540
-490
-552
-591
-559
-536
-595
-542
-408
-440
-531
-459
-447
-548
-419
-308
-357
-247
-228
-427
-408
-177
-118
-152
27
221
77
-45
20
26
113
266
204
55
163
220
15
1
105
-116
-181
126
-189
-718
-549
-471
-648
-537
-478
-651
-688
-641
-473
-450
-423
483
1979
3947
5822
6097
4366
2089
901
491
187
-17
-371
-656
-675
-804
-837
-839
-901
-959
-890
-706
-923
-934
-647
-753
-837
-665
-693
-898
-612
-508
-942
-823
-606
-722
-662
-514
-604
-678
-434
-415
-635
-507
-265
-200
-68
8
-55
44
285
388
404
596
749
681
742
916
694
564
809
725
558
492
372
320
134
61
-18
-196
-68
-61
-270
-217
50
-81
-442
-286
-118
-304
-225
-112
-245
-60
100
-252
-303
-59
-117
-128
-42
-44
-114
-45
11
-99
-92
-44
-45
-59
29
126
44
93
204
86
68
296
489
296
173
376
384
475
625
558
659
758
611
586
699
701
611
677
916
867
532
526
536
387
574
657
471
581
727
489
430
582
524
518
665
629
433
406
404
406
594
436
200
285
372
324
194
246
240
-46
-211
-120
-117
-379
-362
-78
-383
-582
-435
-570
-562
-448
-462
-257
537
1958
3409
4798
5863
5040
2763
1314
850
266
122
153
-538
-742
-569
-763
-733
-620
-664
-655
-554
-615
-836
-733
-582
-757
-758
-558
-597
-720
-557
-564
-773
-658
-538
-610
-622
-509
-533
-723
-536
-367
-452
-206
-113
-264
-227
-90
21
55
186
402
411
394
582
548
538
819
729
346
331
477
219
62
85
-124
-200
-96
-343
-566
-403
-412
-590
-548
-359
-478
-716
-577
-509
-680
-615
-564
-690
-561
-602
-974
-1085
-865
-775
-952
-803
-625
-866
-937
-796
-748
-858
-782
-761
-983
-799
-684
-834
-747
-525
-642
-777
-538
-655
-804
-591
-579
-641
-559
-514
-587
-611
-490
-498
-589
-492
-412
-530
-500
-279
-477
-550
-302
-409
-484
-373
-334
-410
-479
-335
-267
-410
-315
-246
-408
-220
72
-43
-38
163
15
-65
269
335
108
147
251
145
145
287
197
71
168
96
-153
-101
-70
-232
-175
-14
34
-124
-178
-73
-224
-51
632
1561
3210
5284
6511
5968
4049
2230
1333
909
477
99
-27
74
-204
-582
-418
-381
-522
-385
-360
-575
-573
-439
-568
-590
-296
-443
-777
-488
-320
-556
-465
-347
-433
-421
-280
-185
-199
-67
64
24
90
222
153
190
314
262
231
375
520
430
516
707
656
652
847
752
450
563
615
289
147
187
18
-93
-204
-418
-478
-496
-536
-614
-593
-582
-728
-780
-737
-702
-733
-812
-825
-879
-832
-735
-822
-912
-805
-761
-980
-906
-742
-931
-966
-663
-642
-949
-829
-650
-780
-694
-631
-652
-565
-539
-586
-654
-522
-580
-738
-520
-460
-581
-505
-460
-595
-605
-454
-462
-564
-455
-357
-489
-493
-326
-422
-625
-415
-275
-528
-482
-338
-442
-385
-315
-491
-531
-366
-330
-470
-423
-272
-505
-534
-222
-273
-344
-167
-69
-99
-75
27
-19
15
85
-29
-45
98
67
-109
44
124
-134
-149
11
-142
-427
-447
-435
-526
-458
-390
-556
-566
-422
-606
-491
331
1230
2805
5136
6447
5764
3633
1765
965
368
-145
-366
-496
-642
-793
-914
-948
-845
-928
-1012
-769
-783
-990
-813
-753
-884
-754
-641
-701
-681
-572
-514
-635
-593
-366
-512
-619
-444
-463
-467
-250
-216
-275
-135
-39
-20
65
116
190
363
531
690
719
723
859
867
960
1097
1079
1105
1028
913
823
787
797
560
386
433
312
146
247
210
-7
111
251
20
-48
87
6
-17
81
29
-87
33
75
65
263
45
-294
-183
10
-21
-126
-13
39
-111
-78
47
-36
5
147
-149
-394
-121
6
-187
-207
-20
-114
-236
-135
-238
-276
-209
-223
-304
-264
-121
-288
-355
-251
-304
-346
-285
-263
-411
-376
-187
-327
-410
-250
-312
-405
-326
-220
-228
-313
-301
-339
-339
-102
-34
-92
194
458
481
574
644
628
702
896
906
888
996
833
625
754
892
662
494
558
477
209
124
243
88
74
314
134
-101
80
28
-242
183
1262
2647
4524
6348
6654
4896
2532
1285
856
343
-55
-224
-384
-541
-763
-874
-721
-835
-1035
-906
-860
-956
-943
-848
-933
-1028
-845
-827
-987
-878
-809
-849
-817
-853
-924
-878
-685
-688
-762
-551
-491
-628
-507
-267
-264
-263
-61
6
106
293
270
288
499
710
605
560
895
785
515
728
742
393
277
368
192
11
9
-172
-330
-264
-216
-324
-334
-273
-459
-499
-332
-398
-501
-271
-264
-560
-480
-382
-483
-514
-362
-400
-693
-527
-347
-555
-463
-362
-467
-427
-466
-520
-557
-473
-407
-514
-474
-470
-526
-513
-303
-269
-600
-541
-358
-450
-434
-314
-362
-413
-319
-371
-433
-290
-249
-315
-238
-286
-445
-452
-371
-413
-503
-373
-369
-503
-443
-366
-448
-349
-279
-508
-452
-294
-285
-321
-234
-22
-232
-397
-52
-37
-251
-154
-65
-162
-188
-22
-83
-209
-158
-287
-453
-383
-356
-559
-674
-481
-491
-520
-348
-470
-572
-526
-386
141
1249
3092
5235
6594
6309
4067
1746
1128
835
109
-101
33
-247
-542
-438
-426
-516
-513
-596
-549
-582
-600
-516
-547
-403
-398
-546
-429
-317
-393
-381
-229
-214
-291
-84
-19
-281
-52
181
-122
-106
147
57
43
325
388
251
469
751
690
742
936
1005
1104
1074
982
1050
1105
1080
968
821
678
519
390
349
275
151
73
9
-92
-190
-151
-170
-246
-218
-306
-389
-302
-237
-312
-333
-269
-226
-259
-308
-316
-395
-307
-194
-289
-265
-225
-304
-332
-244
-213
-349
-275
-148
-253
-219
-136
-257
-287
-123
-144
-290
-193
-84
-220
-308
-163
-200
-316
-141
-123
-311
-251
-187
-306
-291
-158
-203
-319
-201
-203
-350
-241
-154
-233
-181
63
-120
-480
-248
-135
-248
-77
16
-12
125
299
143
-26
195
255
150
249
370
304
127
105
88
64
78
-20
-76
-181
-315
-401
-424
-288
-347
-458
-430
-440
-397
-433
-408
-57
766
2389
4313
5745
6155
4545
1959
995
879
89
-278
-180
-413
-620
-562
-552
-719
-665
-622
-865
-796
-617
-619
-546
-593
-653
-683
-661
-565
-657
-612
-497
-640
-673
-468
-470
-641
-556
-378
-463
-485
-266
-262
-288
-31
-68
-221
40
244
263
379
536
612
631
725
749
640
718
811
751
584
535
510
217
165
146
-97
-38
47
-255
-363
-196
-306
-410
-273
-255
-379
-299
-206
-348
-282
-131
-236
-255
-92
-97
-209
-60
-17
-138
-129
3
38
-89
-16
29
-33
20
29
1
9
-16
-88
-97
-4
-5
-111
-34
55
-44
-94
-86
-162
-248
-141
-107
-233
-157
-130
-275
-250
-114
-173
-290
-156
-134
-307
-231
-91
-293
-414
-211
-219
-341
-253
-251
-311
-172
-71
-140
-82
58
42
2
12
52
59
136
218
141
84
15
-30
1
55
-18
-168
15
-82
-554
-477
-276
-353
-355
-280
-290
-400
-355
-345
-298
389
1505
2987
4932
6429
6017
3707
1856
1164
531
124
4
-197
-390
-377
-464
-770
-722
-524
-680
-726
-537
-638
-763
-622
-607
-707
-637
-482
-607
-725
-452
-513
-679
-491
-497
-640
-505
-353
-465
-365
-242
-384
-402
-233
-154
-40
136
120
106
231
407
485
549
722
807
673
720
806
660
793
659
365
398
286
161
-9
5
34
-217
-250
-199
-296
-265
-191
-358
-474
-311
-233
-364
-347
-275
-340
-370
-282
-184
-311
-370
-295
-325
-171
-201
-415
-352
-242
-269
-359
-291
-194
-271
-283
-176
-168
-172
-188
-332
-356
-220
-177
-246
-164
-98
-250
-373
-307
-241
-392
-299
-116
-268
-265
-188
-312
-411
-264
-195
-324
-304
-113
-11
-282
-389
-301
-335
-223
-227
-355
-267
-176
-269
-119
75
-200
-270
21
106
27
57
155
114
171
308
173
245
556
201
-148
120
178
-26
-62
-34
-174
-347
-195
-100
-394
-290
-157
-423
-322
-225
-460
-233
784
2139
3935
6048
6914
5396
2941
1680
1142
415
125
-11
-439
-478
-449
-759
-781
-589
-707
-848
-695
-674
-827
-726
-569
-717
-819
-711
-760
-748
-629
-651
-720
-690
-550
-640
-749
-460
-469
-714
-520
-410
-441
-325
-210
-246
-253
59
125
6
301
496
499
563
579
583
641
792
758
603
631
597
339
205
204
18
-134
3
-82
-489
-406
-248
-478
-441
-333
-429
-352
-283
-497
-525
-377
-379
-467
-373
-219
-381
-521
-450
-431
-476
-406
-366
-396
-324
-346
-479
-439
-343
-450
-473
-270
-268
-436
-440
-356
-310
-359
-438
-437
-436
-334
-292
-419
-369
-328
-472
-435
-281
-441
-579
-347
-331
-528
-439
-308
-319
-352
-356
-439
-523
-388
-359
-477
-398
-302
-294
-377
-371
-310
-428
-306
-184
-236
-19
131
-95
-125
24
-19
-20
139
147
-2
95
74
-64
-14
-17
-172
-149
-60
-472
-644
-354
-369
-546
-466
-364
-409
-305
-331
-593
-315
716
2277
4253
6131
6757
5103
2654
1414
836
285
24
-33
-332
-664
-664
-710
-759
-662
-696
-810
-735
-655
-793
-780
-620
-684
-680
-473
-527
-755
-736
-628
-621
-588
-448
-430
-571
-506
-447
-528
-426
-303
-282
-171
-94
-156
-116
111
228
264
594
650
395
559
810
759
707
856
848
671
905
854
212
124
288
70
-101
-65
-115
-299
-250
-96
-394
-579
-320
-302
-442
-368
-321
-376
-377
-406
-470
-401
-301
-442
-473
-250
-313
-552
-409
-263
-421
-357
-168
-273
-438
-311
-259
-455
-343
-214
-335
-329
-186
-235
-423
-308
-163
-331
-361
-172
-281
-455
-341
-286
-337
-289
-263
-378
-309
-197
-353
-426
-309
-311
-330
-252
-299
-422
-350
-190
-302
-415
-266
-263
-403
-272
-133
-220
-43
184
-49
-128
15
28
79
168
148
71
73
59
-9
1
23
54
-74
-268
-254
-452
-491
-330
-462
-483
-365
-318
-335
-440
-517
-467
53
1184
2762
4781
6470
6407
4280
2008
1036
571
197
78
-221
-503
-487
-614
-767
-635
-497
-753
-868
-704
-764
-719
-537
-665
-846
-681
-589
-770
-645
-359
-674
-810
-511
-619
-693
-492
-430
-552
-477
-124
-282
-537
-237
-194
-82
179
90
115
379
524
408
516
868
867
728
899
920
691
744
772
521
412
423
188
-12
57
-26
-202
-172
-215
-374
-325
-148
-217
-339
-281
-311
-397
-307
-240
-275
-107
-259
-506
-356
-217
-202
-360
-173
57
-308
-322
-75
-297
-362
-31
13
-342
-329
-111
-229
-241
-86
-165
-286
-102
-27
-217
-219
-204
-337
-340
-219
-249
-307
-176
-248
-381
-266
-115
-188
-391
-279
-245
-354
-177
-134
-301
-259
-191
-328
-317
-183
-304
-315
-103
-223
-376
-214
-125
-194
-99
67
108
194
102
19
54
81
171
96
86
186
120
120
117
-96
-209
-171
-190
-345
-442
-145
-60
-502
-512
-382
-468
-374
-368
-398
240
1653
3250
5041
6620
6304
3931
1927
1230
727
315
64
-266
-521
-530
-570
-756
-680
-652
-696
-435
-621
-968
-827
-641
-615
-716
-698
-483
-471
-664
-687
-671
-691
-591
-523
-655
-536
-294
-493
-475
-280
-442
-435
-183
-80
-101
-6
137
170
309
532
537
505
659
768
704
772
879
732
820
794
371
262
296
165
-56
-74
130
-130
-477
-309
-335
-473
-322
-291
-469
-372
-11
-227
-622
-449
-377
-458
-335
-282
-400
-398
-14
-108
-566
-387
-352
-473
-275
-229
-341
-260
-42
-248
-493
-241
-204
-319
-212
-206
-211
-162
-234
-351
-324
-186
-120
-289
-279
-123
-387
-405
-121
-162
-350
-252
-187
-372
-299
-209
-327
-263
-194
-251
-120
-108
-361
-426
-250
-208
-316
-269
-89
-122
-195
-60
-134
-221
51
166
-17
72
338
237
106
178
147
140
272
241
39
156
183
-111
-171
-161
-283
-368
-242
-137
-334
-377
-238
-393
-365
-228
-371
107
1436
3181
5174
6760
6544
4140
1910
1226
703
111
57
-111
-421
-330
-375
-771
-859
-608
-624
-768
-604
-484
-674
-735
-652
-712
-696
-566
-592
-637
-487
-544
-731
-603
-487
-578
-538
-364
-430
-551
-365
-279
-358
-210
14
21
-32
121
228
265
474
580
540
825
983
680
691
896
802
640
679
705
427
288
340
13
-193
-86
-213
-354
-273
-234
-327
-394
-378
-435
-455
-314
-355
-297
-237
-494
-489
-329
-330
-432
-431
-264
-304
-453
-281
-261
-469
-277
-195
-439
-406
-222
-307
-458
-271
-175
-336
-230
-199
-388
-338
-205
-225
-337
-202
-34
-374
-403
-189
-385
-386
-201
-239
-336
-299
-292
-338
-286
-173
-268
-394
-218
-205
-409
-278
-230
-433
-197
-90
-361
-319
-242
-260
-180
-46
87
-36
109
519
30
-225
236
121
-6
199
165
44
97
85
112
93
-144
-323
-382
-313
-291
-412
-373
-126
-245
-465
-332
-388
-346
447
1921
3473
5199
6761
6005
3367
1667
1080
527
197
31
-218
-336
-382
-517
-592
-589
-687
-645
-452
-601
-786
-613
-519
-603
-598
-487
-554
-494
-360
-657
-760
-538
-444
-500
-529
-388
-230
-372
-476
-364
-328
-192
-56
-176
-101
294
229
162
479
544
537
734
846
753
732
920
927
695
708
742
562
405
283
149
110
71
-136
-238
-189
-242
-311
-278
-228
-310
-388
-304
-261
-296
-260
-294
-428
-307
-178
-351
-306
-33
-266
-524
-267
-232
-231
-148
-307
-368
-306
-177
-236
-274
-133
-255
-359
-124
-50
-351
-352
-203
-317
-334
-214
-171
-260
-189
-158
-463
-451
-166
-244
-371
-219
-281
-180
149
-330
-714
-414
-249
-290
-354
-293
-261
-364
-360
-120
-6
-266
-387
-303
-248
-53
91
-71
18
481
187
-279
26
116
13
148
118
14
29
148
165
-125
-297
-343
-446
-361
-305
-406
-384
-328
-409
-438
-341
-236
134
1009
2379
4273
6026
6311
4531
2232
1334
916
108
37
87
-454
-591
-478
-652
-697
-543
-589
-693
-627
-693
-751
-623
-582
-582
-608
-612
-597
-613
-550
-489
-516
-628
-597
-573
-571
-362
-387
-483
-169
-143
-523
-375
-78
-131
-54
243
353
309
464
528
408
552
801
751
736
957
1029
728
513
539
337
265
301
72
-9
-24
0
42
-217
-302
-367
-381
-229
-298
-309
-201
-276
-354
-256
-214
-103
-199
-361
-290
-312
-236
-221
-342
-246
-184
-313
-39
127
-312
-395
-233
-279
-262
-146
-125
-200
-206
-84
-124
-268
-150
-220
-345
-210
-139
-262
-293
-134
-230
-301
-150
-175
-157
-92
-345
-456
-223
-192
-262
-151
-205
-332
-225
-240
-328
-300
-238
-176
-246
-228
-105
-162
-163
-24
21
-5
14
111
7
60
304
163
30
163
238
35
29
236
11
-138
109
-118
-502
-360
-297
-489
-416
-187
-340
-489
-311
-407
-535
85
805
1779
3872
6005
6672
5424
3253
1562
808
568
211
-196
-248
-275
-616
-796
-634
-650
-791
-701
-565
-729
-677
-458
-790
-871
-597
-622
-743
-593
-380
-638
-723
-556
-663
-616
-447
-515
-601
-337
-221
-463
-445
-219
-235
-295
-43
64
34
262
415
397
554
780
820
837
843
684
605
756
745
567
530
476
181
68
135
-76
-140
-91
-265
-354
-276
-292
-508
-462
-239
-319
-395
-259
-291
-393
-246
-305
-485
-416
-278
-307
-407
-274
-257
-447
-345
-268
-309
-100
-200
-423
-407
-285
-218
-357
-314
-169
-302
-334
58
-40
-546
-421
-249
-386
-297
-218
-317
-258
-125
-198
-346
-314
-307
-357
-294
-239
-284
-272
-216
-313
-378
-288
-269
-361
-317
-140
-137
-340
-339
-303
-407
-253
-132
-273
-242
-65
16
-18
11
111
3
34
282
193
66
134
99
163
205
53
-1
31
-79
-190
-105
-159
-358
-429
-195
-184
-654
-501
-233
-422
-448
-304
166
1014
2426
4515
6323
6703
4915
2407
1322
948
356
64
-47
-343
-573
-620
-649
-684
-554
-557
-778
-750
-600
-698
-783
-627
-628
-683
-531
-577
-721
-681
-569
-545
-594
-570
-541
-601
-419
-297
-573
-468
-268
-341
-299
-142
105
7
-46
258
227
294
600
575
731
1028
787
603
813
894
814
767
574
372
277
270
168
-78
-80
-52
-151
-114
-152
-388
-454
-325
-334
-455
-346
-256
-344
-258
-193
-371
-487
-319
-152
-318
-354
-171
-273
-402
-321
-297
-382
-314
-230
-373
-234
32
-294
-398
-187
-324
-346
-151
-207
-300
35
-90
-518
-369
-202
-265
-306
-269
-216
-60
-211
-443
-371
-377
-267
-204
-268
-242
-193
-204
-206
-270
-481
-352
-168
-348
-387
-225
-237
-323
-248
-148
-135
-293
-220
-14
-54
143
194
-57
69
242
89
59
187
192
95
210
387
2
-148
11
-217
-266
-201
-301
-388
-343
-269
-388
-421
-274
-322
-457
-358
146
1200
2919
5004
6455
6418
4506
2071
1192
973
295
-75
-163
-293
-406
-554
-611
-699
-787
-638
-662
-784
-637
-492
-522
-587
-655
-751
-758
-584
-547
-693
-600
-478
-593
-537
-434
-512
-430
-382
-479
-475
-296
-234
-325
-222
36
100
86
274
358
407
578
697
769
750
825
881
782
824
771
609
615
587
397
215
130
26
84
18
-346
-433
-301
-251
-394
-382
-164
-256
-445
-333
-331
-350
-120
-274
-413
-266
-365
-395
-314
-252
-331
-424
-239
-200
-302
-249
-185
-238
-234
-200
-351
-378
-227
-187
-315
-277
-78
-182
-327
-209
-133
-344
-309
-29
-272
-427
-174
-234
-353
-240
-235
-353
-255
-68
-240
-377
-245
-150
-328
-376
-247
-377
-258
-140
-307
-263
-218
-316
-212
-67
-50
1
81
60
-58
22
200
239
209
137
50
27
137
179
61
77
80
-113
-145
-147
-350
-310
-261
-373
-405
-410
-286
-352
-478
-343
-133
505
1930
3724
5420
6443
5644
3163
1381
1192
664
-147
-143
-203
-520
-582
-527
-657
-594
-432
-672
-825
-658
-592
-734
-690
-567
-647
-556
-454
-579
-666
-663
-617
-647
-556
-465
-575
-488
-298
-391
-527
-389
-285
-288
-46
23
-152
-37
185
242
311
480
550
569
695
814
741
739
860
814
868
796
346
73
241
282
26
-33
-97
-254
-308
-223
-267
-270
-172
-366
-477
-368
-300
-337
-449
-388
-270
-408
-332
-83
-342
-527
-249
-339
-400
-73
-266
-510
-325
-206
-300
-356
-106
-134
-402
-287
-253
-321
-157
-264
-421
-241
-167
-296
-339
-236
-176
-171
-184
-321
-416
-349
-232
-161
-262
-187
-156
-494
-423
-187
-315
-310
-123
-190
-373
-344
-258
-351
-344
-161
-213
-169
-53
-245
-196
126
106
-65
31
204
192
56
38
133
117
46
85
77
37
15
-59
-64
-188
-321
-276
-334
-360
-427
-438
-295
-396
-448
-351
-290
102
1157
2789
4694
6360
6442
4266
1948
1215
784
162
102
150
-352
-775
-618
-634
-748
-566
-535
-735
-697
-549
-701
-690
-465
-661
-787
-597
-636
-631
-495
-607
-596
-463
-581
-603
-557
-514
-416
-434
-380
-271
-360
-286
-111
-93
117
285
125
109
379
524
580
630
739
795
721
805
766
612
767
693
214
186
330
31
-145
-40
-191
-193
10
-327
-596
-340
-226
-434
-477
-278
-186
-344
-407
-246
-369
-357
-185
-384
-389
-264
-366
-393
-299
-237
-233
-313
-376
-367
-325
-206
-237
-344
-131
-80
-294
-258
-264
-365
-350
-238
-243
-351
-237
-92
-184
-349
-314
-329
-381
-222
-206
-363
-269
-202
-318
-232
-236
-335
-280
-270
-359
-315
-180
-285
-412
-358
-196
-156
-407
-298
-129
-332
-218
-39
-159
-96
205
124
-85
32
59
150
215
6
42
206
176
67
-44
77
149
-214
-254
-123
-408
-451
-225
-252
-390
-384
-444
-497
-394
-369
-245
664
2227
3809
5711
6887
5645
3083
1716
1348
415
-61
57
-275
-564
-516
-492
-651
-703
-691
-764
-752
-549
-449
-735
-768
-642
-742
-649
-570
-688
-662
-555
-593
-596
-307
-373
-825
-632
-336
-487
-473
-287
-340
-354
-115
-117
-199
224
426
67
217
581
533
516
754
854
736
832
900
713
680
875
575
135
242
160
-64
28
-49
-254
-5
-80
-522
-465
-293
-320
-306
-215
-202
-376
-506
-340
-218
-251
-345
-380
-384
-349
-271
-367
-350
-159
-306
-440
-234
-262
-400
-212
-141
-346
-285
-116
-409
-303
152
-355
-565
-174
-219
-317
-263
-181
-229
-261
-210
-305
-383
-219
-140
-306
-248
-55
-282
-480
-314
-237
-326
-276
-176
-272
-349
-125
-112
-414
-291
-204
-339
-247
-171
-254
-252
-63
-81
-94
216
188
4
53
75
152
142
114
149
150
199
142
119
257
11
-297
-219
-151
-304
-406
-199
-225
-452
-325
-235
-388
-404
-390
-242
377
1649
3607
5605
6836
6109
3685
1843
1091
598
189
-68
-261
-492
-555
-581
-677
-551
-454
-721
-865
-659
-669
-766
-632
-613
-696
-644
-536
-598
-655
-618
-593
-423
-540
-623
-516
-575
-425
-446
-496
-304
-205
-208
-240
-92
-62
-92
205
315
286
510
629
620
818
822
693
812
902
795
743
860
629
280
317
219
-39
-55
-40
-53
-212
-297
-272
-375
-279
-264
-386
-393
-318
-300
-417
-322
-241
-315
-307
-357
-410
-348
-256
-297
-389
-255
-174
-388
-321
-240
-309
-151
-260
-351
-330
-248
-174
-326
3
20
-461
-347
-208
-305
-309
-201
-191
-317
-174
-163
-390
-318
-144
-272
-430
-210
-154
-373
-288
-150
-248
-335
-217
-124
-388
-341
-178
-397
-242
-117
-438
-365
-145
-257
-204
-69
38
148
64
49
-16
16
315
185
0
248
175
-2
222
164
144
152
-174
-271
-303
-256
-217
-314
-317
-272
-323
-407
-311
-365
-502
-118
493
1416
3332
5378
6469
5994
3849
1707
926
813
279
-219
-221
-294
-566
-597
-350
-582
-847
-546
-544
-802
-680
-519
-690
-563
-244
-610
-874
-548
-503
-548
-409
-573
-641
-548
-482
-456
-552
-366
-131
-287
-346
-151
-256
-234
78
84
98
320
502
531
620
671
634
914
956
732
785
923
811
569
575
637
457
165
118
-20
-169
18
-103
-324
-277
-197
-310
-295
-94
-285
-440
-328
-269
-325
-336
-229
-235
-333
-220
-267
-444
-152
-104
-359
-250
-101
-324
-416
-154
-167
-263
-104
-213
-395
-234
-77
-100
-181
-192
-283
-302
-140
-190
-345
-190
52
-189
-340
-145
-248
-371
-219
-90
-215
-326
-243
-258
-261
-95
-168
-384
-254
-95
-194
-253
-230
-245
-194
-139
-164
-240
-151
-98
-150
-1
128
75
-22
161
228
106
216
318
241
32
53
117
101
184
23
-103
-50
-168
-311
-255
-298
-202
-21
-303
-502
-418
-320
-295
-159
565
1771
3579
5780
6489
5199
3069
1500
966
460
97
41
-251
-434
-315
-380
-616
-660
-605
-682
-620
-536
-564
-582
-597
-557
-646
-583
-466
-614
-561
-488
-607
-560
-403
-366
-545
-531
-385
-417
-296
-143
-334
-406
-87
-20
-7
196
153
185
398
503
487
589
914
855
638
833
856
674
781
748
522
355
269
220
54
58
-28
-324
-205
-111
-324
-269
-222
-406
-412
-222
-200
-326
-269
-173
-282
-364
-275
-283
-287
-201
-308
-435
-301
-130
-280
-382
-196
-175
-269
-275
-214
-212
-235
-174
-266
-309
-17
-161
-501
-264
-136
-309
-195
-65
-274
-249
-183
-334
-323
-232
-171
-98
-187
-308
-318
-340
-213
-159
-292
-315
-155
-186
-308
-164
-249
-442
-275
-222
-330
-209
-140
-123
-38
-175
-200
17
145
64
44
241
179
4
136
237
91
43
101
109
77
-13
-59
-160
-201
-97
-280
-457
-383
-426
-438
-274
-314
-515
-479
-231
270
1162
2723
4926
6479
6241
4384
2267
1258
791
240
-30
-126
-331
-630
-594
-375
-749
-938
-595
-719
-804
-507
-564
-774
-657
-680
-810
-692
-592
-649
-510
-397
-794
-905
-540
-506
-639
-421
-377
-519
-447
-427
-392
-355
-244
-62
-75
-20
216
258
298
577
637
533
859
876
452
657
1104
824
320
569
619
76
102
254
-65
-163
-146
-350
-402
-272
-303
-272
-125
-397
-621
-408
-214
-380
-439
-116
-316
-608
-353
-252
-413
-450
-171
-202
-572
-409
-321
-476
-254
-133
-346
-360
-223
-317
-401
-271
-272
-372
-137
-158
-475
-326
-171
-317
-395
-136
-73
-460
-490
-283
-316
-337
-282
-285
-315
-323
-360
-266
-119
-333
-491
-309
-209
-377
-402
-266
-229
-258
-350
-187
-211
-475
-302
-287
-396
-213
-231
-235
-52
-74
-151
65
261
5
-119
95
119
44
125
156
71
89
161
114
-35
-55
-48
-210
-261
-265
-388
-418
-431
-383
-307
-364
-461
-547
-445
-122
415
1714
3739
5567
6741
6084
3515
1614
1126
733
175
-132
-252
-491
-658
-580
-663
-720
-516
-579
-831
-818
-673
-726
-781
-630
-633
-663
-568
-671
-770
-657
-534
-617
-718
-462
-399
-626
-500
-451
-610
-453
-265
-333
-223
118
54
-191
10
247
204
371
648
622
638
816
828
813
849
801
744
585
503
475
244
199
186
-41
-104
-140
-357
-342
-238
-422
-402
-265
-218
-253
-423
-437
-469
-391
-272
-337
-178
-184
-512
-544
-296
-263
-404
-344
-311
-317
-286
-285
-297
-331
-315
-267
-290
-254
-173
-323
-375
-193
-229
-263
-167
-203
-255
-353
-298
-111
-304
-403
-258
-351
-303
-147
-248
-307
-277
-356
-368
-209
-209
-283
-194
-295
-454
-330
-163
-233
-403
-338
-271
-334
-269
-189
-219
-176
-82
-150
-150
59
144
-54
-20
196
144
219
221
8
48
193
224
67
-54
-7
-93
-170
-109
-210
-342
-361
-334
-380
-377
-273
-317
-321
-308
-290
314
1682
3614
5539
6499
5845
3512
1485
993
595
170
82
-127
-342
-580
-693
-679
-675
-563
-641
-739
-603
-529
-590
-643
-672
-715
-637
-511
-604
-665
-512
-512
-526
-385
-412
-488
-534
-490
-441
-467
-317
-230
-357
-144
135
-123
-120
216
339
378
465
566
573
718
860
835
1030
1080
733
514
617
559
320
324
303
236
4
-138
-125
-327
-240
-125
-383
-385
-253
-374
-337
-129
-231
-448
-315
-271
-402
-287
-175
-366
-386
-176
-240
-400
-293
-182
-252
-293
-245
-287
-323
-133
-219
-363
-149
-172
-364
-198
-82
-203
-139
-115
-307
-308
-168
-169
-299
-292
-153
-257
-264
-118
-294
-367
-144
-155
-258
-114
-79
-302
-398
-250
-218
-271
-92
-197
-463
-275
-62
-181
-221
-98
-302
-416
-152
-16
-103
-31
141
15
62
260
124
83
230
187
20
178
285
66
27
76
-48
-169
-77
-71
-306
-332
-250
-406
-369
-180
-299
-338
-178
-199
32
1071
2511
4266
5991
6151
4394
2105
1044
792
251
66
65
-286
-456
-413
-574
-708
-576
-620
-711
-561
-578
-675
-578
-482
-578
-658
-545
-514
-484
-348
-519
-734
-667
-487
-408
-461
-409
-284
-399
-461
-289
-301
-270
-8
175
-88
-123
278
240
268
597
627
659
779
718
775
872
806
636
662
658
340
278
342
126
-13
42
-56
-258
-266
-217
-287
-328
-240
-185
-241
-191
-232
-435
-394
-214
-294
-337
-167
-112
-225
-368
-285
-283
-335
-65
-215
-493
-212
-172
-344
-242
-128
-194
-193
-149
-380
-377
-133
-184
-229
-139
-128
-158
-229
-288
-328
-277
-215
-201
-34
-176
-288
-255
-342
-238
-240
-320
-137
124
-193
-449
-263
-331
-190
-35
-285
-306
-155
-213
-323
-151
-26
-289
-271
-32
-161
-190
88
130
-43
156
353
65
69
270
79
108
306
144
0
37
81
7
-134
-193
-288
-357
-233
-253
-291
-138
-298
-421
-264
-179
-55
310
1352
2837
4482
6023
5857
3717
1876
1330
600
-97
-3
-155
-477
-415
-405
-539
-608
-572
-557
-610
-479
-579
-780
-574
-475
-604
-589
-504
-593
-580
-402
-416
-631
-553
-403
-557
-401
-316
-546
-457
-268
-263
-268
-148
-87
-144
-18
124
122
241
483
607
603
717
686
514
632
857
816
603
643
600
289
253
300
194
65
-55
-261
-317
-148
-218
-297
-203
-247
-305
-262
-296
-368
-280
-225
-321
-305
-208
-117
-285
-396
-209
-246
-186
-109
-324
-403
-265
-205
-318
-136
-37
-363
-382
-143
-222
-375
-214
-35
-114
-223
-168
-291
-283
-15
-132
-358
-279
-164
-266
-260
-162
-177
-219
-265
-230
-312
-182
2
-380
-426
-126
-245
-317
-168
-190
-230
-44
-121
-428
-256
-70
-301
-351
-155
-101
-205
-80
48
12
94
150
67
72
376
341
-58
41
204
46
107
205
21
-24
9
-96
-234
-147
-68
-429
-502
-260
-331
-395
-164
-261
-463
-89
474
1337
3105
5304
6419
5745
3792
1854
1022
745
405
-31
-306
-302
-448
-587
-500
-569
-720
-635
-516
-572
-633
-651
-651
-568
-511
-562
-652
-590
-474
-572
-622
-391
-355
-623
-567
-436
-560
-443
-203
-295
-369
-130
-262
-328
71
78
77
322
340
437
579
581
599
678
788
805
719
802
896
584
416
485
289
178
280
102
-129
-113
-152
-292
-240
-144
-352
-415
-241
-297
-373
-246
-118
-185
-376
-327
-170
-263
-316
-337
-374
-228
-190
-272
-301
-265
-274
-329
-230
-130
-167
-226
-238
-276
-278
-151
-213
-113
26
-359
-420
-171
-200
-322
-286
-117
-219
-370
-159
-74
-312
-302
-141
-274
-354
-151
-192
-424
-283
-94
-290
-348
-144
-209
-326
-313
-353
-310
-200
-222
-284
-223
-197
-328
-354
-133
-147
-221
29
97
46
71
68
1
124
323
116
124
315
149
-23
63
146
22
-97
-63
-200
-354
-201
-180
-321
-469
-313
-279
-513
-330
-353
-433
124
999
2324
4500
6448
6607
4760
2418
1248
848
393
98
-141
-380
-334
-518
-797
-542
-622
-853
-576
-591
-762
-648
-581
-683
-712
-556
-546
-681
-531
-477
-751
-682
-474
-606
-529
-318
-590
-650
-333
-307
-431
-274
-56
-137
-158
16
60
47
257
436
396
571
946
804
566
750
782
685
778
757
516
488
476
309
195
61
-19
-194
-170
-16
-391
-493
-249
-386
-434
-273
-286
-382
-350
-329
-383
-363
-359
-403
-439
-260
-8
-391
-608
-327
-419
-403
-227
-339
-203
12
-356
-567
-270
-181
-344
-225
-66
-315
-385
-122
-257
-437
-231
-260
-445
-338
-128
-268
-381
-217
-393
-507
-288
-218
-300
-392
-278
-214
-388
-358
-301
-412
-274
-112
-332
-382
-230
-375
-389
-141
-281
-470
-310
-193
-270
-251
-17
-11
-41
34
55
31
71
208
65
7
198
69
-2
330
111
-310
-115
-19
-217
-409
-381
-401
-476
-406
-480
-463
-295
-353
-475
-421
48
1068
2669
4873
6488
6430
4532
2012
883
708
293
-91
-77
-264
-556
-704
-813
-680
-684
-687
-626
-754
-789
-719
-665
-641
-736
-690
-594
-566
-679
-828
-713
-563
-608
-698
-429
-397
-683
-490
-368
-459
-439
-192
3
-231
-149
-28
-117
148
396
368
434
688
666
531
790
934
797
847
738
602
739
526
198
165
147
42
-145
-155
-163
-302
-314
-303
-362
-430
-367
-230
-387
-496
-310
-396
-487
-372
-345
-267
-236
-330
-495
-448
-243
-346
-391
-224
-325
-139
17
-515
-547
-276
-279
-343
-372
-211
-209
-327
-252
-175
-266
-306
-201
-285
-393
-276
-237
-340
-338
-95
-188
-381
-315
-421
-426
-290
-252
-339
-339
-242
-350
-340
-281
-408
-304
-203
-261
-324
-330
-261
-267
-214
-139
-165
-145
35
58
-103
-7
229
217
79
105
91
-10
145
208
-63
-19
66
-291
-370
-215
-380
-431
-278
-326
-420
-320
-293
-454
-528
-366
150
996
2569
4505
5746
6110
4550
1937
888
738
253
-82
-174
-348
-606
-561
-459
-681
-725
-626
-695
-718
-645
-624
-718
-593
-466
-742
-718
-519
-642
-551
-510
-586
-468
-522
-570
-600
-555
-337
-403
-487
-283
-92
-210
-315
-101
-54
49
285
308
323
542
627
472
675
855
667
702
914
761
586
720
474
148
223
232
1
-209
-147
-174
-286
-196
-325
-455
-305
-315
-423
-357
-264
-298
-308
-318
-345
-401
-357
-189
-107
-275
-460
-372
-388
-343
-245
-344
-307
-184
-132
-216
-272
-245
-340
-221
-215
-441
-307
-184
-297
-287
-184
-265
-317
-278
-190
-247
-357
-300
-306
-185
-225
-321
-270
-258
-254
-362
-260
-186
-401
-293
-142
-363
-447
-244
-159
-269
-167
-24
-92
-34
134
94
-34
89
136
70
196
142
-43
-65
44
4
-86
-6
-107
-279
-248
-171
-308
-479
-371
-411
-396
-273
-411
-521
-379
47
719
2020
4039
5762
6266
4992
2495
1017
753
353
-99
-135
-106
-484
-763
-643
-630
-779
-680
-571
-712
-720
-649
-709
-725
-602
-488
-645
-752
-544
-569
-700
-570
-632
-697
-514
-504
-542
-448
-380
-444
-398
-233
-335
-261
101
18
-157
78
348
329
329
648
617
508
762
729
782
937
598
424
519
467
324
148
176
228
-89
-303
-221
-284
-299
-235
-325
-364
-271
-318
-325
-245
-349
-499
-462
-273
-296
-377
-271
-264
-307
-323
-358
-265
-210
-377
-454
-384
-270
-208
-336
-334
-225
-271
-322
-239
-258
-336
-209
-186
-336
-372
-189
-240
-474
-305
-256
-400
-306
-253
-373
-349
-204
-322
-426
-239
-124
-312
-348
-281
-508
-414
-168
-339
-394
-139
-150
-293
-173
-63
-61
96
202
-95
-14
233
-7
-70
145
147
-44
34
131
-129
-233
-100
-233
-405
-348
-422
-437
-234
-361
-564
-465
-424
-606
-642
-261
474
1590
3475
5693
6607
5628
3484
1605
916
645
109
-239
-278
-406
-633
-791
-707
-670
-736
-663
-727
-884
-780
-653
-692
-605
-555
-723
-822
-665
-608
-767
-634
-503
-681
-677
-439
-523
-641
-371
-431
-578
-324
-295
-248
21
-146
-175
67
174
358
369
457
708
684
738
904
669
605
786
706
663
476
328
263
99
73
-111
-248
-172
-200
-338
-348
-233
-267
-355
-347
-205
-323
-521
-341
-400
-383
-278
-325
-154
-270
-523
-470
-421
-153
-94
-577
-464
-288
-409
-258
-284
-431
-288
-65
-334
-511
-274
-345
-408
-242
-326
-369
-164
-210
-393
-426
-343
-357
-400
-247
-213
-385
-376
-281
-445
-442
-144
-226
-412
-262
-366
-473
-306
-233
-262
-288
-227
-218
-213
-2
78
-123
54
251
-13
53
202
17
179
282
-74
-108
55
-14
-166
-170
-156
-321
-375
-322
-352
-445
-444
-395
-428
-366
-392
-521
-109
867
2330
4380
6329
6762
4884
2559
1475
751
193
36
-163
-406
-540
-550
-624
-670
-631
-759
-828
-658
-644
-800
-670
-549
-676
-683
-707
-766
-716
-613
-554
-630
-587
-452
-520
-581
-466
-544
-563
-347
-300
-412
-210
8
-226
-110
142
71
198
488
563
522
734
853
662
748
910
784
814
730
452
418
349
220
112
-10
-33
-140
-237
-142
-315
-487
-292
-252
-358
-293
-205
-396
-477
-218
-209
-433
-294
-102
-393
-485
-226
-220
-395
-309
-155
-336
-374
-242
-235
-195
-287
-350
-288
-241
-146
-281
-299
-153
-272
-264
-124
-197
-277
-179
-167
-287
-261
-201
-294
-152
-144
-435
-291
-100
-235
-336
-222
-189
-300
-225
-150
-217
-109
22
-58
-57
82
149
137
151
133
139
152
150
308
210
11
157
76
-80
-16
-122
-271
-203
-209
-301
-251
-286
-437
-378
-132
-290
-502
-168
296
1171
2859
4800
6223
6175
4157
1809
945
677
245
-10
-128
-271
-553
-636
-498
-569
-739
-633
-540
-630
-611
-601
-699
-639
-350
-524
-865
-621
-530
-664
-535
-522
-634
-496
-368
-516
-618
-325
-269
-570
-423
-158
-176
-184
68
70
-40
271
358
345
561
619
616
724
836
828
638
720
816
490
416
523
274
50
102
2
-141
-95
-214
-380
-296
-209
-307
-361
-299
-388
-375
-208
-312
-455
-377
-242
-246
-358
-312
-277
-357
-293
-233
-296
-333
-276
-297
-325
-247
-180
-178
-287
-309
-334
-293
-180
-279
-295
-88
-150
-355
-263
-275
-376
-241
-116
-239
-315
-213
-303
-365
-200
-191
-318
-260
-133
-286
-337
-70
-168
-332
-149
-30
-43
52
177
-27
-45
360
241
-95
73
138
78
171
89
-44
-75
-88
-219
-245
-169
-394
-452
-289
-289
-361
-417
-311
-361
-488
-182
469
1591
3357
5342
6414
5638
3435
1572
910
592
158
-144
-253
-264
-360
-632
-699
-660
-730
-636
-577
-724
-667
-514
-649
-714
-546
-547
-699
-607
-448
-636
-702
-513
-562
-592
-465
-486
-573
-438
-265
-321
-397
-251
-131
-173
-38
88
29
183
353
361
549
712
602
628
796
855
809
665
553
432
401
401
206
62
53
-89
-222
-133
-219
-301
-192
-273
-441
-465
-348
-315
-390
-285
-174
-319
-386
-176
-246
-547
-393
-281
-385
-305
-310
-383
-277
-183
-309
-352
-197
-181
-282
-247
-183
-286
-324
-260
-315
-307
-144
-206
-443
-261
-175
-402
-270
-130
-268
-324
-227
-247
-406
-266
-82
-344
-432
-194
-310
-359
-107
-250
-355
-228
-210
-118
-5
72
44
-18
29
95
119
151
167
14
219
365
-105
-107
92
-9
-132
-189
-225
-379
-332
-293
-451
-330
-238
-493
-491
-358
-384
-217
482
1934
3968
5820
6626
5533
3092
1600
1147
503
87
81
-225
-595
-606
-699
-740
-590
-690
-829
-699
-603
-669
-674
-536
-611
-813
-636
-525
-729
-703
-564
-674
-681
-494
-555
-661
-408
-321
-622
-523
-164
-362
-486
-94
-70
-191
101
233
119
285
519
571
638
666
689
824
854
721
618
649
720
498
227
319
218
-97
-20
-97
-405
-293
-146
-314
-350
-246
-338
-423
-330
-259
-321
-268
-231
-413
-413
-273
-308
-411
-347
-262
-366
-386
-213
-237
-387
-252
-239
-284
-26
-212
-395
-100
-179
-326
-264
-215
-213
-307
-253
-176
-256
-255
-121
-198
-364
-262
-261
-376
-279
-211
-326
-284
-147
-286
-325
-197
-308
-419
-232
-79
-179
-201
3
62
-30
76
85
49
365
248
-122
49
220
69
79
205
83
61
-48
-162
-200
-379
-351
-378
-427
-311
-331
-383
-328
-222
-381
-434
218
1209
2901
5216
6666
6255
4184
2127
1224
671
245
64
-278
-451
-500
-623
-619
-648
-746
-672
-589
-736
-758
-624
-717
-749
-504
-610
-804
-639
-523
-633
-664
-455
-505
-639
-453
-354
-504
-584
-467
-399
-361
-210
-186
-256
-103
113
106
187
619
617
300
540
725
676
869
944
761
712
813
673
414
443
363
85
129
138
-272
-333
-145
-316
-387
-243
-306
-322
-206
-303
-434
-333
-117
-274
-485
-291
-275
-432
-282
-246
-413
-347
-191
-170
-394
-295
38
-369
-490
-131
-229
-264
-199
-302
-316
-115
-122
-329
-198
-153
-329
-122
-133
-452
-284
-135
-236
-240
-267
-239
-298
-303
-131
-276
-336
-179
-300
-255
-131
-258
-259
-153
-6
-14
-78
58
61
23
214
176
59
155
219
128
1
255
146
-194
-26
-47
-266
-315
-255
-324
-362
-244
-328
-458
-395
-261
-390
-425
46
702
2000
4112
5970
6556
5275
2789
1077
747
535
72
-178
-217
-387
-623
-561
-499
-705
-808
-550
-542
-774
-596
-592
-762
-620
-612
-712
-617
-529
-635
-652
-494
-484
-606
-495
-344
-530
-507
-319
-386
-409
-277
-248
-260
-90
71
159
184
275
426
438
543
675
665
738
831
714
657
795
640
436
494
396
167
113
60
-117
-211
-134
-131
-327
-300
-179
-352
-363
-289
-382
-302
-174
-257
-433
-350
-279
-357
-290
-212
-252
-319
-242
-290
-318
-26
-169
-495
-258
-80
-360
-395
-133
-225
-311
-151
-169
-250
-163
-114
-282
-366
44
-79
-577
-231
-137
-411
-226
-152
-308
-306
-199
-190
-283
-209
-200
-348
-240
-130
-188
-92
61
55
49
30
-37
17
157
179
60
103
275
252
154
72
-32
-82
-78
-36
-244
-415
-246
-326
-451
-256
-217
-422
-424
-258
-378
-263
592
1740
3456
5550
6446
5382
3162
1541
909
425
145
98
-95
-396
-563
-700
-634
-479
-642
-717
-583
-595
-723
-623
-506
-696
-611
-508
-629
-531
-570
-717
-668
-468
-378
-589
-596
-407
-500
-445
-182
-368
-483
-177
-134
-232
-40
157
115
180
437
460
422
606
709
657
732
837
649
553
678
534
342
394
310
10
10
79
-194
-322
-145
-199
-385
-273
-236
-311
-284
-268
-332
-367
-228
-280
-450
-164
-109
-451
-307
-163
-374
-353
-155
-249
-349
-244
-171
-290
-367
-204
-301
-344
-130
-163
-246
-195
-237
-314
-249
-165
-286
-287
-58
-105
-348
-388
-280
-364
-300
-92
-286
-348
-179
-249
-337
-263
-227
-199
-145
-310
-352
-260
-213
-118
-86
46
145
11
-59
178
253
85
197
210
28
57
67
17
54
20
-141
-182
-84
-292
-502
-347
-286
-364
-376
-302
-372
-475
-410
-252
156
1187
2932
4903
6469
6344
4167
2093
1315
718
143
21
-105
-379
-515
-513
-686
-794
-636
-624
-704
-594
-693
-903
-687
-615
-780
-634
-527
-654
-703
-617
-621
-628
-465
-543
-700
-611
-437
-472
-539
-299
-300
-485
-272
-58
-172
-159
64
343
412
274
384
451
506
702
693
718
789
680
645
602
442
273
180
250
63
-120
-14
-231
-413
-264
-262
-399
-355
-254
-362
-346
-201
-418
-545
-283
-257
-376
-348
-334
-362
-379
-264
-244
-376
-244
-241
-457
-349
-224
-330
-336
-227
-278
-302
-134
-146
-358
-281
-65
-241
-304
-211
-361
-423
-208
-174
-442
-319
-189
-395
-408
-184
-132
-422
-327
-114
-385
-330
-195
-332
-279
-146
-176
-342
-219
-2
-111
-75
124
2
-89
174
210
21
65
163
81
54
185
102
14
70
-101
-372
-328
-234
-478
-473
-267
-440
-429
-41
-317
-746
-470
-32
685
2250
4437
6188
6562
5186
2711
1201
963
467
-86
-171
-228
-585
-457
-216
-829
-1025
-741
-698
-730
-730
-650
-678
-759
-547
-362
-778
-864
-583
-689
-642
-501
-580
-580
-523
-597
-621
-486
-385
-373
-402
-314
-253
-190
49
-37
-124
197
357
290
509
716
539
615
872
701
562
815
822
545
567
480
195
92
68
44
-163
-243
-144
-318
-362
-243
-379
-437
-217
-252
-523
-380
-266
-408
-395
-325
-288
-287
-316
-369
-452
-362
-235
-337
-309
-236
-338
-370
-267
-285
-380
-163
-120
-348
-254
-157
-269
-391
-305
-272
-315
-163
-201
-392
-347
-192
-233
-366
-319
-253
-357
-322
-276
-360
-282
-231
-348
-363
-305
-298
-316
-371
-325
-289
-163
32
-117
-158
108
50
-119
122
270
54
-3
195
190
-6
70
126
-18
-14
-52
-207
-267
-231
-394
-521
-253
-289
-534
-430
-363
-436
-414
-264
294
1264
2990
5173
6506
6250
4065
1742
967
711
179
-154
-218
-349
-535
-543
-572
-767
-746
-708
-784
-672
-578
-620
-751
-771
-657
-692
-676
-582
-650
-720
-457
-496
-701
-456
-543
-677
-470
-360
-448
-494
-296
-212
-323
-215
93
147
47
216
318
258
517
696
539
611
759
685
695
814
686
479
528
412
127
152
229
-100
-338
-119
-131
-369
-242
-235
-478
-400
-298
-337
-199
-228
-523
-498
-247
-303
-426
-294
-234
-374
-352
-183
-289
-407
-257
-211
-279
-271
-286
-296
-236
-217
-291
-333
-254
-192
-293
-291
-129
-140
-189
-190
-361
-407
-257
-288
-326
-231
-247
-348
-326
-210
-228
-404
-323
-174
-325
-305
-238
-325
-227
-128
-161
-238
-174
-17
33
84
39
-69
76
345
144
-140
92
195
54
173
174
-94
-83
-42
-275
-371
-302
-332
-419
-263
-169
-419
-442
-297
-364
-401
95
1067
2329
4142
5853
6174
4606
2258
1144
814
181
-104
-243
-290
-328
-657
-698
-551
-623
-709
-627
-603
-692
-619
-565
-703
-657
-442
-537
-769
-585
-415
-670
-639
-482
-555
-519
-453
-529
-448
-156
-325
-533
-222
-78
-257
-158
119
173
184
292
420
431
490
673
594
637
857
734
645
698
591
405
344
362
198
30
24
-96
-237
-192
-135
-325
-361
-229
-380
-301
-177
-388
-435
-264
-229
-307
-275
-184
-301
-412
-247
-231
-349
-267
-268
-392
-292
-95
-224
-396
-210
-211
-341
-157
-79
-299
-341
-183
-287
-317
-108
-211
-385
-207
-160
-368
-255
-93
-351
-340
-78
-289
-438
-219
-116
-204
-346
-317
-246
-290
-226
-251
-311
-120
-126
-266
-29
111
12
103
109
7
76
200
116
5
169
210
63
75
63
-107
-171
-83
-186
-367
-288
-220
-379
-437
-338
-321
-280
-308
-360
-235
432
1818
3504
5412
6565
5515
3113
1577
1086
571
158
-71
-344
-450
-397
-486
-667
-666
-631
-698
-654
-593
-693
-690
-550
-549
-736
-714
-607
-677
-525
-409
-660
-731
-543
-538
-614
-435
-269
-498
-480
-299
-447
-355
-131
-142
-23
125
59
123
394
459
433
592
675
625
676
848
721
546
623
618
365
311
387
-23
-170
24
-113
-268
-142
-184
-389
-339
-285
-312
-307
-282
-283
-381
-332
-190
-350
-379
-199
-303
-395
-132
-92
-466
-388
-114
-339
-402
-187
-262
-349
-199
-189
-355
-204
-99
-351
-243
-32
-271
-390
-205
-215
-312
-200
-163
-278
-266
-217
-293
-339
-291
-320
-347
-166
-167
-363
-299
-198
-247
-253
-240
-261
-314
-278
-178
-280
-315
-77
-20
-140
-25
30
-32
53
129
162
129
172
163
122
276
165
-21
168
202
-79
-102
-58
-266
-342
-231
-365
-515
-348
-224
-352
-405
-318
-433
-189
781
2169
4065
6059
6777
5252
2864
1517
984
407
104
177
-260
-599
-447
-631
-669
-569
-713
-656
-550
-703
-754
-606
-524
-650
-693
-471
-508
-670
-542
-564
-677
-553
-452
-440
-492
-443
-387
-477
-403
-320
-336
-180
-124
-152
44
149
123
269
490
568
488
543
818
812
719
791
799
693
656
619
404
359
291
149
41
-51
-83
-259
-120
-16
-412
-339
-97
-321
-380
-246
-310
-277
-170
-288
-391
-311
-214
-300
-317
-156
-239
-371
-153
-127
-315
-226
-107
-185
-313
-245
-155
-232
-212
-91
-218
-288
-163
-200
-196
-177
-275
-299
-164
-151
-254
-111
-75
-291
-188
-114
-310
-286
-227
-239
-228
-247
-235
-285
-277
-187
-209
-228
-233
-262
-260
-102
-85
-296
-268
-88
-74
-106
105
187
91
161
217
121
126
228
118
119
255
226
108
134
204
-133
-247
-76
-286
-357
-231
-204
-141
-238
-375
-426
-412
-284
-173
282
1624
3484
5238
6538
6142
3776
1712
1102
678
161
80
-70
-327
-443
-518
-589
-683
-571
-555
-685
-575
-585
-718
-624
-540
-590
-554
-499
-601
-692
-466
-274
-612
-672
-439
-521
-462
-327
-402
-424
-231
-201
-312
-168
-10
-38
60
354
358
190
424
639
539
699
966
809
641
839
882
674
624
596
415
358
354
133
-17
-40
-115
-176
-120
-175
-333
-214
-150
-324
-366
-165
-157
-340
-224
-210
-295
-244
-218
-211
-292
-176
-140
-315
-174
-195
-294
-13
-93
-387
-261
-113
-206
-249
-132
-79
-152
-169
-152
-243
-222
-89
-145
-176
-145
-263
-265
-124
-114
-292
-293
-52
-236
-346
-102
-213
-337
-225
-141
-167
-153
-124
-236
-338
-138
-33
-361
-284
29
-32
-138
-11
155
97
76
106
138
204
208
150
142
251
177
94
207
102
-89
-26
3
-195
-321
-258
-306
-358
-268
-234
-288
-260
-224
-291
83
876
2071
3830
5610
6334
4879
2697
1483
718
239
63
-108
-302
-356
-369
-613
-603
-381
-682
-744
-453
-631
-679
-452
-539
-684
-571
-470
-468
-513
-602
-590
-517
-457
-503
-494
-351
-432
-517
-389
-264
-270
-232
-94
-184
-240
6
188
232
309
422
463
401
592
751
648
791
811
568
627
780
527
266
373
315
4
-49
12
-156
-260
-97
-209
-331
-59
-263
-500
-296
-246
-360
-307
-131
-222
-360
-328
-276
-318
-216
-82
-281
-369
-240
-250
-295
-225
-207
-222
-161
-192
-314
-290
-132
-188
-293
-173
-108
-182
-214
-238
-277
-252
-113
-200
-352
-221
-215
-347
-302
-166
-261
-293
-156
-280
-398
-213
-208
-285
-187
-271
-356
-238
-131
-268
-315
-96
-73
-186
-44
236
116
-58
170
203
37
156
186
21
107
226
81
14
105
0
-174
-126
-138
-358
-374
-173
-282
-476
-264
-226
-440
-467
-326
83
890
2348
4240
5886
6381
4782
2394
1409
961
254
87
-54
-412
-550
-523
-559
-596
-607
-610
-675
-735
-500
-568
-778
-629
-679
-738
-578
-549
-638
-629
-605
-609
-536
-451
-459
-611
-536
-376
-486
-462
-309
-236
-282
-284
-97
-60
28
228
210
303
523
460
509
780
696
589
707
650
572
613
477
267
251
249
48
-82
-67
-151
-270
-308
-169
-155
-396
-412
-411
-429
-272
-292
-433
-360
-208
-317
-427
-298
-143
-246
-403
-421
-464
-326
-204
-337
-312
-177
-275
-364
-283
-279
-351
-262
-165
-240
-286
-222
-175
-368
-371
-252
-447
-415
-211
-279
-356
-63
-113
-565
-421
-204
-391
-316
-244
-359
-319
-271
-345
-315
-121
-258
-498
-404
-312
-367
-357
-301
-333
-314
-144
-135
-215
-22
128
0
-26
183
234
-1
44
101
-17
93
138
17
-38
26
-101
-82
-152
-549
-530
-364
-381
-460
-421
-332
-393
-502
-508
-242
332
1596
3548
5505
6802
5991
3311
1482
1067
595
20
-112
-195
-508
-651
-484
-628
-814
-659
-664
-606
-715
-857
-728
-732
-653
-652
-730
-646
-619
-744
-638
-342
-617
-845
-520
-515
-660
-392
-260
-496
-475
-299
-338
-291
109
68
-254
22
245
238
378
568
651
599
690
757
648
743
780
679
709
485
208
209
143
-38
-131
-69
-121
-275
-215
-180
-371
-400
-258
-335
-424
-318
-145
-265
-455
-221
-310
-467
-256
-325
-399
-269
-273
-372
-302
-152
-274
-394
-227
-222
-317
-209
-198
-136
-128
-306
-288
-302
-265
-280
-368
-157
-205
-396
-167
-142
-379
-305
-198
-352
-420
-251
-219
-365
-320
-243
-354
-316
-165
-271
-421
-319
-269
-329
-284
-210
-278
-359
-173
-86
-142
11
93
-50
1
223
112
54
166
37
-10
202
168
0
202
65
-236
-74
-127
-368
-416
-294
-359
-518
-363
-272
-394
-420
-359
-413
-100
993
2585
4538
6364
6720
4729
2177
1213
888
268
11
-120
-455
-510
-537
-614
-475
-646
-854
-762
-607
-584
-791
-724
-607
-746
-726
-551
-491
-625
-662
-634
-652
-544
-431
-379
-541
-628
-519
-497
-344
-273
-370
-235
-33
-41
-75
91
212
192
375
651
679
565
639
665
667
887
842
666
761
594
284
305
287
76
-24
70
-74
-350
-281
-178
-284
-327
-253
-266
-338
-356
-380
-423
-318
-261
-373
-282
-195
-429
-356
7
-260
-545
-294
-244
-324
-251
-205
-225
-277
-219
-250
-284
-112
-210
-394
-181
-55
-347
-277
-40
-299
-428
-231
-230
-317
-198
-117
-275
-368
-250
-272
-305
-228
-302
-389
-294
-221
-349
-295
-42
-279
-461
-219
-218
-342
-246
-57
-98
-95
51
-16
-84
41
209
205
68
87
110
151
203
99
94
74
-15
-59
-179
-294
-347
-260
-272
-445
-423
-322
-336
-440
-404
-365
-297
466
1850
3502
5430
6722
5880
3310
1518
1102
559
64
86
-212
-533
-501
-596
-681
-625
-589
-668
-746
-669
-674
-714
-558
-625
-760
-580
-533
-618
-571
-564
-595
-516
-410
-565
-710
-516
-361
-471
-456
-223
-281
-388
-148
-37
-134
95
297
207
307
583
653
524
642
759
644
671
865
754
538
624
464
285
323
182
10
0
-37
-221
-233
-163
-342
-393
-186
-220
-380
-328
-287
-337
-351
-302
-279
-359
-312
-255
-370
-250
-84
-293
-376
-219
-243
-278
-118
-195
-388
-256
-148
-206
-249
-234
-220
-188
-187
-217
-278
-260
-158
-273
-304
-163
-195
-309
-241
-239
-344
-226
-239
-296
-227
-264
-257
-253
-288
-210
-246
-330
-295
-275
-230
-143
-133
-167
-46
92
38
30
125
73
83
197
102
46
191
104
-26
100
80
-131
-115
-15
-232
-412
-331
-333
-450
-392
-259
-333
-416
-251
-242
-217
632
2040
3727
5544
6345
4977
2610
1371
757
166
48
-59
-241
-447
-583
-635
-717
-587
-590
-677
-618
-701
-708
-576
-661
-724
-563
-532
-655
-702
-604
-542
-649
-614
-462
-553
-527
-336
-462
-531
-386
-351
-256
-198
-216
-167
-132
19
169
210
354
449
387
552
686
526
629
779
608
544
776
622
144
153
224
24
-33
40
-103
-346
-269
-226
-423
-368
-188
-269
-377
-279
-404
-418
-109
-331
-503
-243
-255
-392
-378
-258
-273
-365
-292
-220
-339
-303
-228
-373
-294
-135
-207
-296
-270
-257
-220
-213
-258
-302
-327
-228
-292
-380
-229
-242
-361
-254
-202
-352
-372
-235
-257
-307
-229
-251
-356
-334
-281
-299
-226
-229
-338
-357
-257
-213
-382
-291
-78
-85
18
105
-29
-107
17
93
108
209
238
53
59
153
-7
17
87
-71
-181
-94
-98
-311
-299
-220
-442
-445
-289
-323
-323
-331
-346
-145
604
1939
3848
5717
6432
5265
2903
1531
1083
407
44
1
-221
-451
-521
-551
-669
-671
-596
-664
-695
-617
-658
-733
-573
-575
-724
-520
-517
-733
-628
-583
-652
-626
-518
-517
-571
-351
-345
-578
-421
-227
-362
-365
-66
-53
-218
42
254
130
228
472
485
533
690
747
654
653
697
553
544
666
663
327
38
12
-99
-105
-102
-281
-265
-105
-316
-411
-247
-348
-363
-197
-258
-460
-378
-257
-346
-334
-204
-189
-349
-390
-281
-333
-341
-235
-228
-228
-254
-357
-320
-157
-210
-306
-251
-208
-208
-250
-279
-224
-231
-218
-208
-370
-382
-281
-314
-338
-197
-187
-350
-280
-181
-333
-342
-226
-268
-308
-253
-288
-349
-243
-271
-388
-290
-203
-315
-322
-249
-220
-129
-37
40
-38
25
177
-54
8
326
96
-82
128
145
6
132
176
-142
-257
-133
-219
-419
-367
-315
-488
-477
-291
-426
-473
-169
-460
-474
477
1552
3304
5442
6717
5985
3505
1644
1091
570
103
18
-256
-410
-479
-804
-778
-614
-708
-696
-701
-774
-698
-701
-729
-744
-784
-634
-608
-723
-631
-527
-575
-662
-647
-647
-541
-419
-566
-584
-424
-414
-403
-232
-167
-193
-173
-47
84
105
381
510
361
593
691
633
763
781
735
573
598
683
374
226
318
182
-23
-82
-156
-279
-268
-175
-311
-394
-181
-400
-629
-271
-247
-498
-357
-240
-368
-383
-240
-263
-449
-409
-267
-409
-423
-294
-353
-205
-167
-374
-384
-270
-236
-318
-248
-190
-287
-209
-190
-381
-365
-192
-175
-265
-305
-230
-317
-356
-156
-292
-302
-178
-371
-418
-305
-284
-370
-300
-120
-212
-358
-311
-316
-399
-309
-158
-207
-299
-253
-249
-245
-96
6
-31
55
130
-10
70
244
126
26
119
197
153
75
114
18
-138
-62
-125
-344
-287
-311
-519
-410
-286
-375
-333
-195
-424
-615
-143
635
1869
3917
5919
6648
5579
3139
1338
958
558
37
-132
-296
-439
-590
-711
-612
-637
-721
-688
-614
-610
-681
-678
-715
-734
-644
-689
-753
-536
-525
-763
-622
-518
-667
-574
-395
-459
-543
-395
-371
-474
-334
-178
-183
-94
23
-14
88
329
425
408
454
641
708
694
782
755
649
689
662
507
487
407
279
149
-28
-102
-199
-176
-149
-265
-279
-272
-287
-328
-371
-419
-428
-225
-263
-464
-334
-242
-386
-377
-182
-205
-433
-357
-158
-307
-312
-182
-292
-206
-153
-358
-328
-187
-220
-267
-217
-210
-280
-255
-177
-270
-334
-165
-255
-378
-257
-241
-316
-343
-119
-181
-524
-362
-258
-409
-274
-193
-361
-281
-132
-401
-337
-102
-328
-420
-271
-184
-268
-269
-85
-75
-29
173
48
-61
192
266
103
53
132
126
64
111
102
1
-38
-79
-209
-302
-241
-365
-555
-316
-275
-387
-280
-400
-562
-513
-224
347
1526
3503
5515
6641
5987
3617
1543
942
623
-36
-246
-168
-379
-637
-595
-519
-731
-845
-621
-568
-849
-767
-662
-812
-669
-521
-628
-687
-597
-684
-749
-537
-569
-757
-523
-371
-653
-581
-341
-453
-444
-248
-222
-232
-107
-52
-92
77
330
277
334
656
760
664
614
693
705
717
885
722
528
561
252
163
399
90
-297
-268
-188
-267
-363
-299
-283
-398
-356
-261
-390
-399
-233
-418
-581
-303
-225
-445
-400
-258
-337
-351
-256
-357
-405
-193
-194
-363
-329
-279
-334
-299
-170
-200
-316
-281
-292
-371
-295
-187
-196
-283
-264
-307
-400
-252
-224
-349
-256
-144
-301
-349
-245
-371
-453
-312
-292
-419
-214
-52
-369
-418
-304
-399
-338
-166
-157
-197
-34
139
39
-58
40
20
46
200
116
59
214
175
52
108
82
-134
-251
-108
-103
-357
-384
-331
-475
-436
-335
-451
-456
-261
-307
-480
116
1427
3118
5178
6672
6253
3851
1739
1049
560
133
-31
-241
-422
-534
-641
-734
-687
-663
-704
-662
-669
-797
-744
-593
-678
-721
-681
-666
-685
-689
-620
-660
-631
-522
-564
-602
-543
-471
-416
-411
-332
-326
-379
-192
-161
-135
141
211
135
278
396
426
587
678
690
718
861
841
594
631
642
440
432
331
47
30
18
-204
-313
-208
-151
-367
-358
-244
-379
-316
-216
-355
-471
-357
-207
-356
-420
-259
-346
-402
-252
-291
-306
-222
-297
-380
-304
-161
-271
-367
-218
-220
-322
-169
-126
-327
-302
-227
-312
-302
-183
-311
-414
-158
-124
-370
-274
-99
-358
-491
-290
-284
-369
-274
-250
-368
-286
-210
-349
-375
-256
-280
-263
-182
-325
-419
-282
-132
-147
-144
5
222
201
-53
-18
72
85
197
81
145
374
66
-72
164
78
-167
-160
-153
-389
-439
-336
-379
-448
-373
-320
-339
-360
-479
-477
41
1176
2913
4930
6523
6516
4267
1975
1201
701
148
27
-119
-448
-528
-562
-793
-784
-593
-700
-788
-685
-738
-761
-637
-589
-629
-564
-654
-860
-733
-543
-562
-689
-612
-518
-567
-459
-431
-541
-543
-414
-338
-328
-190
-105
-148
3
145
128
221
392
463
451
789
910
498
548
830
732
589
635
578
337
242
183
13
-102
-11
16
-341
-384
-266
-438
-356
-305
-401
-172
-233
-483
-400
-399
-400
-378
-346
-261
-366
-335
-189
-363
-446
-292
-293
-357
-221
-202
-385
-328
-190
-288
-301
-217
-239
-301
-272
-213
-360
-322
-171
-269
-317
-252
-184
-288
-353
-300
-301
-245
-225
-388
-345
-121
-345
-508
-303
-283
-241
-184
-351
-368
-365
-320
-260
-295
-186
-140
-192
-199
-77
-18
-52
43
76
30
123
170
-8
-6
203
138
38
248
167
-139
-110
-97
-235
-303
-312
-383
-482
-401
-379
-473
-355
-348
-541
-355
343
1463
3037
5122
6648
6166
4021
1924
1095
843
379
-60
-221
-270
-615
-833
-640
-599
-775
-777
-648
-715
-727
-614
-657
-725
-607
-559
-770
-741
-441
-553
-818
-498
-432
-771
-520
-420
-593
-432
-349
-256
-252
-353
-237
-182
-94
78
109
230
396
368
408
625
685
704
825
781
768
824
717
626
504
475
303
3
104
41
-183
-172
-161
-282
-304
-172
-245
-433
-266
-172
-483
-449
-222
-309
-372
-266
-260
-395
-383
-281
-364
-370
-245
-251
-246
-161
-313
-429
-263
-183
-269
-271
-174
-287
-363
-166
-193
-361
-188
-177
-371
-248
-174
-312
-324
-203
-220
-329
-292
-296
-406
-353
-105
-228
-523
-338
-203
-342
-296
-206
-379
-345
-155
-245
-240
-164
-300
-294
-33
-1
-69
117
166
-27
35
202
130
39
134
294
128
-16
201
132
-72
-58
-159
-321
-285
-251
-361
-290
-241
-412
-508
-343
-317
-549
-273
424
1560
3538
5594
6744
6047
3628
1692
1028
708
437
-132
-428
-326
-604
-694
-492
-639
-809
-648
-621
-750
-635
-560
-662
-716
-686
-627
-666
-612
-512
-543
-572
-546
-578
-597
-462
-420
-512
-421
-322
-419
-362
-179
-154
-112
-17
51
82
267
510
446
568
769
664
687
902
910
645
684
798
545
444
493
301
106
161
49
-200
-140
-135
-261
-230
-225
-349
-388
-292
-129
-212
-399
-308
-320
-302
-211
-321
-293
-184
-273
-290
-172
-194
-311
-273
-157
-221
-278
-148
-182
-258
-153
-146
-213
-193
-138
-209
-223
-41
-190
-422
-184
-83
-275
-214
-112
-241
-262
-165
-189
-244
-159
-175
-300
-197
-145
-267
-315
-195
-197
-294
-188
-155
-270
-194
-4
-52
-25
186
108
-47
115
257
134
132
211
140
136
208
218
40
-62
36
-53
-217
-277
-391
-419
-255
-242
-370
-315
-249
-320
-291
-103
393
1577
3388
5248
6419
5960
3615
1453
935
674
175
-39
-174
-325
-526
-549
-512
-651
-534
-482
-685
-673
-577
-602
-660
-482
-405
-684
-685
-513
-593
-655
-500
-495
-550
-403
-365
-491
-522
-356
-360
-415
-143
-80
-238
-31
73
-81
130
394
349
420
651
693
561
757
990
728
611
731
639
508
518
448
231
217
200
-77
-175
-106
-148
-252
-232
-261
-414
-285
-223
-363
-304
-202
-273
-336
-227
-202
-285
-253
-119
-225
-386
-191
-141
-287
-234
-204
-259
-199
-159
-264
-260
-123
-149
-231
-149
-76
-291
-309
-145
-266
-272
-129
-198
-293
-113
-116
-321
-247
-129
-240
-260
-162
-274
-266
-157
-242
-276
-203
-216
-267
-255
-195
-192
-241
-167
-105
-161
-41
138
68
32
179
178
93
241
171
-40
142
237
61
76
178
45
-68
-15
-187
-367
-259
-194
-254
-312
-299
-401
-477
-276
-238
-167
538
1729
3473
5501
6580
5637
3353
1850
1219
509
138
46
-258
-365
-313
-568
-729
-566
-548
-758
-687
-507
-703
-648
-416
-704
-802
-537
-540
-651
-554
-415
-584
-690
-498
-536
-537
-275
-389
-612
-407
-272
-315
-226
-147
-131
-45
72
126
149
356
541
485
543
677
680
781
802
675
621
630
661
474
320
317
112
-74
18
-25
-278
-213
-139
-362
-357
-230
-302
-359
-272
-213
-276
-213
-264
-487
-331
-148
-318
-413
-281
-212
-277
-237
-216
-357
-352
-194
-200
-324
-249
-151
-330
-300
-111
-332
-333
-111
-256
-347
-172
-178
-376
-325
-213
-330
-320
-144
-273
-428
-294
-281
-380
-283
-225
-377
-364
-215
-233
-298
-284
-264
-384
-356
-268
-344
-201
-182
-380
-283
-73
-114
-130
71
139
-17
-24
147
91
50
169
98
5
69
138
41
-71
35
-62
-309
-293
-350
-369
-288
-409
-464
-399
-259
-379
-587
-287
96
872
2699
4935
6410
6407
4616
2237
1247
978
366
-44
-175
-374
-626
-659
-540
-606
-781
-775
-736
-804
-714
-597
-726
-701
-532
-769
-848
-574
-609
-675
-565
-607
-701
-634
-522
-558
-564
-401
-420
-517
-352
-224
-265
-236
-110
28
38
148
368
310
420
664
550
628
805
721
672
788
998
615
192
430
292
64
141
-72
-237
-98
-167
-339
-281
-214
-189
-356
-457
-415
-448
-308
-333
-381
-246
-330
-452
-335
-213
-392
-431
-182
-261
-457
-294
-151
-340
-353
-184
-242
-287
-223
-294
-353
-163
-159
-322
-249
-191
-354
-301
-71
-313
-452
-225
-216
-301
-277
-239
-330
-382
-259
-239
-353
-252
-161
-286
-265
-265
-426
-407
-206
-219
-362
-267
-128
-194
-123
-50
-203
-86
190
148
-30
25
147
94
68
164
140
70
181
255
-6
-166
-78
-184
-268
-225
-332
-377
-243
-389
-560
-384
-260
-390
-492
-98
552
1473
3425
5595
6657
6121
3743
1576
1052
712
122
-137
-101
-371
-723
-620
-527
-696
-759
-619
-693
-711
-601
-642
-587
-618
-727
-710
-634
-566
-641
-666
-558
-503
-583
-590
-462
-523
-509
-311
-333
-446
-274
-165
-304
-180
48
11
66
391
436
367
607
714
566
639
809
771
805
866
652
438
550
405
166
205
76
-75
-100
-134
-246
-380
-268
-207
-392
-330
-259
-427
-370
-229
-380
-453
-251
-285
-434
-293
-255
-388
-310
-226
-365
-366
-210
-169
-260
-279
-206
-292
-200
-105
-316
-331
-206
-197
-295
-284
-101
-183
-366
-274
-322
-374
-193
-210
-304
-235
-206
-324
-352
-227
-194
-319
-323
-240
-323
-345
-247
-277
-302
-258
-324
-374
-218
-230
-409
-131
8
-305
-224
36
29
6
79
65
86
195
172
55
47
169
25
141
403
-36
-269
-136
-219
-360
-385
-303
-352
-456
-264
-167
-502
-502
-381
-480
-12
1094
2713
4807
6496
6556
4480
2135
1214
793
289
153
13
-485
-613
-587
-736
-687
-623
-689
-764
-697
-724
-731
-609
-677
-757
-612
-573
-730
-603
-471
-657
-702
-541
-520
-582
-472
-376
-506
-496
-321
-358
-346
-161
-95
-150
-9
224
135
227
502
548
540
623
757
746
810
817
675
681
702
517
357
352
217
48
63
-13
-274
-301
-192
-278
-322
-195
-178
-364
-431
-351
-367
-341
-282
-351
-365
-235
-228
-367
-344
-247
-369
-375
-64
-156
-491
-296
-170
-374
-274
-94
-243
-302
-71
-192
-404
-224
-189
-293
-275
-232
-296
-288
-126
-188
-334
-291
-253
-353
-310
-182
-298
-342
-217
-253
-376
-219
-111
-391
-371
-194
-335
-356
-212
-237
-255
-77
-15
-22
141
125
-30
-20
175
237
100
201
234
35
74
144
-24
-95
-43
-121
-214
-203
-328
-462
-343
-295
-415
-365
-152
-289
-548
-196
454
1439
3286
5313
6484
6004
3677
1464
812
618
233
-95
-178
-264
-556
-675
-600
-650
-781
-601
-488
-723
-710
-587
-660
-659
-600
-596
-632
-621
-562
-491
-496
-584
-612
-571
-446
-450
-481
-367
-399
-379
-166
-136
-235
-173
56
115
93
262
403
442
535
728
728
684
761
681
668
822
812
578
426
431
368
152
24
-12
-154
-133
-149
-319
-264
-196
-295
-320
-241
-328
-383
-215
-281
-441
-305
-216
-271
-204
-201
-387
-398
-209
-222
-326
-210
-188
-331
-292
-158
-210
-293
-117
-62
-300
-228
1
-261
-384
-134
-197
-272
-162
-188
-297
-240
-220
-306
-222
-143
-275
-358
-209
-195
-365
-287
-141
-313
-332
-167
-312
-352
-148
-204
-349
-214
-115
-239
-184
27
50
-17
85
124
3
186
275
-14
36
280
208
14
119
145
-184
-174
-30
-240
-398
-322
-332
-406
-306
-309
-449
-352
-338
-470
-105
716
1889
3799
5912
6676
5398
3135
1598
959
413
129
-100
-409
-417
-499
-732
-607
-485
-746
-770
-647
-666
-693
-677
-655
-731
-660
-538
-656
-671
-515
-574
-647
-468
-505
-688
-553
-458
-550
-486
-281
-251
-411
-319
-142
-205
-56
152
89
274
460
370
613
721
517
559
762
868
721
681
747
707
422
205
231
31
-11
-26
-238
-256
-197
-312
-425
-312
-276
-393
-335
-263
-365
-356
-287
-374
-362
-196
-216
-428
-423
-295
-395
-327
-212
-340
-364
-275
-260
-356
-322
-219
-310
-287
-160
-342
-429
-226
-254
-362
-160
-133
-441
-384
-169
-327
-400
-228
-215
-293
-210
-132
-357
-527
-342
-222
-281
-243
-288
-355
-290
-351
-439
-343
-212
-299
-389
-242
-171
-285
-226
-94
-104
3
165
30
-119
150
242
9
35
179
67
-8
209
135
-124
-13
-58
-359
-356
-249
-345
-490
-419
-408
-487
-306
-339
-570
-377
21
753
2456
4711
6339
6510
4879
2508
1223
874
436
-8
-154
-253
-514
-716
-686
-686
-838
-679
-432
-715
-943
-746
-720
-810
-671
-627
-764
-555
-405
-723
-790
-620
-625
-671
-549
-496
-606
-521
-383
-442
-310
-107
-377
-416
-115
-38
-17
164
405
386
363
674
739
592
735
747
690
717
665
569
452
444
295
35
92
44
-173
-155
-225
-381
-373
-280
-317
-483
-336
-81
-396
-473
-276
-501
-494
-265
-364
-420
-169
-330
-522
-312
-291
-428
-397
-216
-233
-415
-363
-228
-335
-339
-194
-283
-335
-195
-239
-334
-238
-279
-376
-283
-274
-357
-291
-239
-292
-381
-324
-264
-359
-279
-204
-256
-338
-365
-339
-314
-302
-342
-300
-300
-364
-401
-305
-141
-179
-247
-103
-5
-41
-18
16
-30
34
257
143
-56
144
180
-27
83
149
-23
-57
-95
-267
-431
-358
-315
-465
-385
-306
-410
-359
-280
-507
-605
-86
815
2158
4203
6222
6763
5177
2777
1341
866
456
38
-199
-267
-326
-630
-801
-663
-743
-786
-521
-637
-851
-763
-658
-691
-766
-604
-649
-801
-612
-561
-744
-590
-424
-666
-635
-405
-479
-604
-500
-320
-441
-457
-192
-190
-192
85
151
60
303
470
398
504
761
729
631
786
783
695
776
705
433
392
403
202
47
-8
-74
-190
-250
-277
-406
-367
-254
-350
-397
-271
-313
-407
-264
-267
-363
-359
-338
-385
-401
-196
-151
-402
-409
-254
-397
-383
-216
-320
-357
-170
-198
-373
-225
-99
-325
-357
-168
-270
-287
-109
-241
-404
-110
-86
-423
-351
-240
-325
-339
-185
-196
-350
-259
-203
-344
-329
-231
-321
-348
-180
-168
-341
-290
-138
-165
-94
106
55
73
82
-83
-6
304
353
-60
79
360
-4
-22
141
-50
-166
-130
-121
-253
-409
-362
-341
-411
-341
-331
-369
-321
-349
-388
70
1204
2745
4700
6435
6454
4344
1998
1008
623
240
8
-205
-332
-440
-654
-735
-611
-548
-678
-746
-592
-668
-778
-459
-470
-821
-739
-586
-635
-576
-536
-587
-578
-512
-499
-540
-492
-416
-422
-416
-341
-317
-305
-180
-90
-44
62
189
220
328
523
487
586
797
803
739
867
984
623
566
703
472
406
379
130
-29
17
-76
-287
-223
-137
-345
-356
-111
-201
-483
-375
-243
-418
-374
-192
-259
-358
-274
-316
-404
-301
-286
-323
-246
-240
-333
-260
-187
-329
-341
-176
-171
-288
-195
-95
-304
-330
-141
-231
-311
-166
-186
-256
-127
-193
-378
-347
-148
-137
-346
-285
-172
-303
-264
-194
-335
-282
-179
-298
-321
-215
-198
-277
-279
-119
-139
-335
-185
8
-128
-3
158
-30
37
225
132
76
196
145
96
181
151
50
7
67
-70
-239
-175
-263
-374
-276
-321
-447
-352
-309
-361
-357
-346
-151
445
1831
3843
5816
6852
5691
3160
1597
1153
613
208
50
-307
-512
-538
-623
-723
-698
-577
-655
-754
-642
-634
-766
-685
-604
-679
-596
-558
-584
-631
-602
-510
-672
-608
-405
-525
-504
-395
-502
-528
-300
-205
-372
-193
13
-133
-8
233
230
346
530
668
716
665
788
841
746
855
954
627
415
500
317
173
202
-17
-151
2
-157
-295
-182
-323
-473
-301
-182
-393
-420
-241
-227
-303
-331
-270
-310
-283
-210
-386
-363
-133
-325
-526
-246
-204
-463
-364
-209
-265
-255
-189
-225
-314
-229
-150
-244
-203
-195
-318
-217
-116
-253
-380
-281
-237
-348
-298
-183
-162
-289
-300
-247
-347
-221
-157
-378
-318
-159
-351
-381
-157
-222
-373
-150
-68
-333
-250
-243
-450
-342
-165
-171
-222
-29
86
-37
85
141
-23
41
239
405
198
-34
121
52
48
286
73
-121
52
-92
-302
-258
-212
-369
-440
-308
-410
-426
-263
-390
-554
-197
580
1735
3674
5817
6796
5889
3648
1782
1081
709
274
29
-200
-453
-616
-670
-572
-566
-676
-655
-688
-813
-742
-599
-686
-738
-584
-652
-692
-529
-542
-634
-660
-548
-549
-587
-490
-416
-385
-450
-449
-443
-338
-185
-276
-108
85
-54
72
318
469
467
504
755
779
731
917
920
704
794
804
595
652
469
87
100
130
-52
-176
-109
-58
-255
-394
-331
-371
-388
-263
-317
-422
-214
-125
-303
-297
-270
-413
-401
-229
-215
-265
-268
-300
-394
-371
-253
-320
-333
-212
-254
-241
-165
-223
-317
-249
-126
-228
-324
-225
-183
-280
-142
-25
-289
-397
-237
-288
-324
-199
-243
-343
-223
-158
-274
-249
-229
-365
-269
-141
-351
-302
-104
-251
-374
-275
-238
-321
-338
-177
-169
-357
-232
-191
-348
-256
-163
-167
-209
-158
-110
-141
33
138
32
40
133
140
236
285
111
65
225
187
113
254
101
-238
-222
-83
-236
-391
-268
-230
-387
-326
-174
-354
-437
-246
-325
-162
988
2629
4519
6436
6921
5004
2548
1501
918
285
138
-31
-382
-466
-484
-632
-659
-594
-693
-791
-663
-614
-736
-667
-532
-609
-681
-539
-524
-615
-551
-559
-678
-596
-423
-536
-573
-376
-441
-519
-366
-285
-278
-235
-71
-25
-16
169
216
239
454
608
622
727
890
828
801
983
945
688
724
825
443
263
378
122
-57
-5
-121
-182
-139
-247
-335
-211
-190
-402
-402
-250
-240
-316
-279
-207
-353
-367
-222
-316
-377
-200
-256
-373
-209
-205
-355
-200
-104
-379
-371
-141
-180
-236
-169
-144
-262
-249
-88
-222
-298
-119
-164
-309
-184
-74
-233
-292
-170
-135
-245
-260
-210
-299
-236
-171
-290
-191
-139
-332
-272
-146
-244
-202
-138
-244
-107
53
-58
-48
83
150
65
-2
217
303
100
157
251
71
92
204
205
125
-78
-116
-158
-216
-198
-284
-356
-311
-304
-381
-270
-131
-341
-351
240
964
2530
4743
6120
6272
4738
2407
1114
748
395
34
-140
-184
-426
-630
-404
-444
-712
-688
-616
-672
-639
-551
-596
-590
-595
-523
-512
-627
-538
-573
-622
-444
-456
-535
-439
-482
-577
-435
-288
-324
-356
-252
-241
-216
-3
85
130
269
408
371
527
811
612
600
913
903
801
757
729
642
481
521
386
73
110
67
-170
-190
-199
-297
-301
-254
-325
-362
-282
-288
-389
-357
-236
-287
-302
-311
-346
-314
-305
-256
-354
-313
-154
-397
-429
-190
-284
-333
-231
-248
-345
-275
-181
-326
-326
-171
-160
-214
-182
-238
-376
-250
-83
-203
-314
-240
-328
-403
-208
-181
-334
-277
-144
-243
-348
-251
-257
-300
-157
-103
-321
-411
-246
-229
-208
-174
-298
-278
-86
-10
-55
20
180
155
2
71
180
162
150
165
137
153
197
24
-45
36
-95
-216
-187
-276
-371
-315
-166
-269
-402
-291
-343
-425
-297
40
795
2250
4136
5919
6596
5240
2899
1519
1115
553
73
-27
-233
-449
-557
-538
-526
-690
-642
-441
-599
-736
-565
-580
-660
-549
-555
-594
-478
-545
-688
-571
-463
-587
-583
-435
-514
-478
-268
-329
-498
-426
-227
-270
-192
82
9
-6
254
360
325
506
732
739
805
863
778
730
820
867
670
556
555
332
225
270
54
-163
-121
-127
-241
-183
-156
-367
-445
-197
-77
-404
-411
-210
-369
-331
-184
-311
-378
-233
-260
-351
-223
-234
-340
-295
-184
-228
-461
-253
-69
-398
-328
-140
-289
-202
-104
-278
-283
-152
-209
-283
-164
-211
-157
39
-293
-510
-329
-193
-183
-282
-268
-206
-305
-236
-59
-278
-350
-188
-349
-354
-122
-193
-382
-243
-104
-305
-330
-141
-253
-281
-86
-218
-339
-199
-27
-21
-99
101
117
-27
162
221
147
201
256
236
70
46
99
62
109
22
-172
-158
-114
-348
-487
-311
-337
-434
-327
-270
-341
-393
-293
45
997
2847
4804
6250
6665
4914
2417
1367
952
302
-15
-42
-286
-544
-540
-600
-750
-672
-631
-736
-567
-592
-849
-708
-565
-652
-741
-626
-514
-693
-673
-442
-618
-702
-434
-446
-602
-565
-397
-462
-475
-237
-284
-327
-136
-62
-70
51
241
304
345
561
672
609
771
921
821
778
788
735
636
647
574
206
158
159
-120
-86
-59
-218
-214
-248
-346
-364
-366
-329
-378
-383
-248
-358
-417
-220
-330
-475
-324
-318
-410
-316
-307
-432
-399
-274
-347
-446
-295
-239
-349
-278
-184
-332
-376
-164
-164
-390
-334
-268
-397
-283
-142
-300
-351
-182
-274
-383
-198
-230
-427
-297
-236
-332
-291
-288
-303
-346
-300
-225
-351
-350
-227
-322
-375
-258
-296
-351
-255
-226
-248
-276
-231
-177
-117
57
7
-119
101
177
15
113
187
61
86
209
128
64
60
-87
-196
-121
-76
-322
-428
-306
-421
-476
-330
-333
-410
-373
-386
-417
102
1275
2849
4761
6458
6574
4475
2182
1231
680
217
43
-191
-387
-347
-537
-843
-740
-594
-702
-791
-660
-572
-740
-736
-629
-701
-669
-571
-610
-731
-613
-467
-680
-644
-452
-617
-575
-400
-535
-539
-335
-334
-292
-163
-214
-205
15
212
217
254
431
564
582
694
875
829
746
822
735
652
733
535
372
482
302
-73
-127
-68
-215
-298
-196
-262
-416
-167
-148
-501
-428
-284
-383
-364
-260
-393
-476
-291
-234
-401
-373
-257
-330
-376
-243
-259
-420
-231
-210
-438
-290
-212
-324
-261
-205
-290
-325
-213
-237
-322
-229
-206
-268
-281
-220
-176
-363
-325
-142
-341
-295
-145
-360
-336
-225
-343
-382
-204
-144
-406
-376
-248
-381
-311
-213
-394
-422
-194
-186
-354
-270
-162
-251
-77
59
-140
-94
58
27
28
136
272
172
-16
66
38
-49
69
23
-179
-133
-101
-373
-445
-301
-295
-384
-433
-395
-402
-345
-314
-391
-1
1020
2444
4311
6056
6354
4542
2240
1115
712
448
-26
-408
-441
-477
-538
-603
-651
-609
-698
-752
-581
-657
-761
-584
-508
-610
-687
-746
-777
-653
-507
-600
-719
-552
-459
-622
-533
-397
-559
-444
-213
-410
-422
-220
-206
-209
-36
230
189
206
432
455
481
654
794
793
728
784
717
557
704
621
316
333
253
22
36
139
-64
-398
-358
-266
-360
-325
-317
-413
-326
-195
-347
-460
-281
-293
-430
-299
-226
-295
-237
-262
-492
-394
-217
-362
-286
-178
-259
-344
-322
-211
-302
-320
-165
-172
-233
-259
-326
-207
-87
-283
-409
-324
-198
-260
-397
-162
-140
-417
-285
-236
-364
-257
-186
-256
-238
-187
-304
-414
-296
-176
-251
-372
-283
-171
-330
-310
-259
-309
-175
-125
-281
-271
-79
-118
-97
170
190
-32
60
174
55
80
145
159
156
132
114
22
-26
3
-58
-136
-198
-404
-503
-255
-198
-447
-404
-284
-394
-430
-285
51
1065
2817
4672
6197
6472
4656
2262
1278
968
419
18
-214
-375
-558
-630
-547
-634
-696
-488
-614
-887
-690
-589
-688
-585
-528
-687
-729
-629
-650
-702
-496
-493
-719
-557
-375
-563
-605
-379
-400
-475
-320
-309
-371
-100
74
-92
-47
240
286
312
555
618
643
776
797
759
741
794
724
575
596
531
276
270
240
-91
-95
-21
-306
-402
-191
-259
-490
-350
-218
-381
-330
-192
-325
-455
-310
-251
-398
-280
-228
-383
-338
-219
-302
-482
-248
-140
-440
-401
-254
-333
-289
-156
-295
-336
-176
-184
-278
-290
-203
-292
-346
-191
-249
-297
-172
-224
-351
-322
-258
-289
-312
-182
-143
-311
-308
-223
-343
-349
-201
-287
-340
-227
-293
-307
-203
-202
-244
-311
-275
-285
-346
-193
-189
-244
-22
-41
-195
48
211
31
-3
164
165
107
250
207
129
206
145
17
87
159
-109
-232
-156
-196
-388
-369
-206
-385
-333
-193
-378
-371
-343
-320
100
1182
3018
5070
6599
6596
4466
2102
1329
910
231
137
41
-451
-607
-539
-658
-691
-546
-558
-679
-679
-699
-804
-707
-567
-609
-636
-559
-569
-742
-662
-516
-628
-608
-471
-506
-525
-391
-432
-558
-381
-269
-356
-226
-34
-109
-7
292
203
149
439
650
700
651
724
802
792
918
863
682
754
730
405
290
285
140
-5
-51
-141
-193
-134
-310
-412
-309
-199
-319
-497
-289
-187
-360
-357
-229
-287
-381
-307
-351
-416
-309
-285
-357
-342
-324
-301
-137
-233
-447
-379
-215
-191
-269
-238
-187
-209
-255
-232
-230
-228
-127
-247
-417
-266
-186
-317
-287
-135
-191
-327
-191
-206
-397
-278
-179
-337
-285
-115
-340
-387
-138
-225
-393
-243
-147
-329
-277
-131
-246
-143
-42
-55
-22
-35
92
19
19
272
222
116
157
117
82
174
137
27
84
-15
-132
-198
-292
-302
-420
-336
-164
-348
-431
-277
-318
-432
-317
5
748
2308
4369
6230
6685
5047
2571
1143
851
464
34
-95
-267
-501
-533
-538
-664
-727
-530
-422
-769
-773
-563
-715
-722
-570
-608
-684
-574
-563
-686
-567
-457
-542
-544
-455
-437
-594
-508
-362
-463
-274
-206
-383
-183
86
1
21
259
329
338
498
679
633
701
899
884
807
783
769
623
554
504
320
204
258
179
-207
-123
-82
-419
-287
-229
-404
-344
-248
-291
-367
-320
-320
-374
-300
-321
-368
-323
-321
-360
-361
-256
-292
-378
-217
-203
-390
-300
-179
-346
-343
-121
-228
-331
-182
-235
-324
-191
-134
-299
-346
-172
-215
-297
-191
-219
-300
-289
-271
-248
-195
-289
-401
-362
-242
-197
-343
-300
-129
-226
-344
-231
-227
-359
-224
-179
-266
-207
-261
-318
-203
-45
-110
-93
122
65
-5
72
159
163
83
156
171
130
187
118
-44
-105
-19
-24
-248
-286
-281
-426
-346
-262
-370
-383
-295
-331
-380
-196
271
1181
2853
4812
6171
6121
4211
1878
873
702
227
-179
-196
-289
-553
-600
-505
-679
-703
-575
-687
-742
-599
-557
-696
-675
-515
-581
-661
-526
-454
-587
-612
-550
-640
-496
-336
-568
-626
-360
-343
-498
-304
-199
-184
58
-19
-135
25
234
375
430
574
609
548
675
819
781
745
838
777
560
506
471
241
164
193
-29
-154
-26
-140
-378
-303
-253
-387
-348
-225
-255
-334
-340
-331
-435
-330
-234
-317
-220
-221
-359
-389
-263
-260
-403
-235
-64
-297
-394
-255
-267
-364
-214
116
-217
-494
-212
-289
-299
-163
-228
-237
-189
-217
-323
-303
-243
-352
-351
-208
-268
-349
-207
-242
-429
-309
-232
-343
-174
-83
-402
-511
-273
-256
-364
-277
-226
-312
-248
-136
-317
-403
-280
-322
-321
-156
-92
-168
-102
90
82
25
100
128
94
154
124
6
109
180
80
65
16
-105
-197
-250
-238
-294
-289
-261
-432
-512
-344
-293
-456
-451
-324
14
978
2574
4545
6302
6701
4890
2396
1376
1047
352
-5
-71
-334
-505
-543
-688
-744
-619
-673
-810
-734
-586
-635
-783
-592
-561
-853
-692
-490
-707
-699
-504
-651
-707
-493
-509
-668
-426
-289
-587
-487
-254
-369
-379
-158
-55
-135
-13
198
176
289
563
601
670
755
639
648
818
819
738
776
644
380
277
287
133
-112
-58
-30
-263
-285
-264
-392
-368
-257
-292
-391
-290
-301
-516
-418
-169
-336
-490
-268
-298
-439
-312
-265
-375
-368
-240
-335
-444
-223
-230
-394
-262
-223
-383
-318
-207
-305
-269
-187
-312
-390
-243
-203
-343
-262
-185
-311
-273
-264
-400
-410
-312
-163
-237
-313
-211
-362
-391
-278
-339
-373
-283
-231
-309
-293
-191
-334
-472
-255
-241
-393
-232
-146
-218
-87
43
1
25
146
98
43
181
133
-13
139
221
96
88
80
-22
-181
-143
-134
-359
-234
-195
-553
-542
-311
-336
-422
-312
-318
-513
-223
636
1856
3739
5975
6942
5594
3305
1729
870
408
222
-69
-354
-440
-588
-669
-577
-638
-801
-727
-597
-625
-682
-672
-581
-652
-726
-624
-651
-664
-576
-576
-617
-556
-592
-651
-487
-424
-563
-506
-305
-361
-417
-217
-157
-233
-24
245
112
86
396
442
501
773
737
613
770
863
821
775
727
606
494
495
350
82
51
101
-152
-273
-213
-339
-375
-237
-269
-422
-351
-251
-364
-378
-265
-350
-373
-212
-319
-420
-280
-248
-344
-335
-203
-284
-353
-184
-279
-451
-273
-158
-203
-184
-202
-286
-276
-129
-215
-359
-140
-76
-338
-319
-142
-279
-319
-152
-235
-351
-166
-146
-365
-283
-125
-290
-403
-197
-134
-325
-275
-191
-377
-253
-106
-385
-413
-212
-231
-261
-171
-97
-124
-31
154
46
-64
137
248
99
144
142
-7
157
225
21
-54
21
-49
-188
-112
-167
-473
-435
-264
-405
-399
-231
-291
-240
-268
-385
108
1221
2930
4794
6147
6169
4101
1642
879
689
92
-44
-66
-430
-568
-515
-621
-685
-577
-531
-670
-712
-572
-596
-693
-573
-535
-719
-572
-511
-645
-491
-512
-602
-515
-455
-543
-569
-375
-368
-501
-414
-267
-280
-290
-100
-33
-61
146
284
258
411
593
578
601
937
892
519
706
815
600
568
580
380
210
252
220
4
-143
-223
-336
-289
-214
-330
-424
-200
-152
-432
-344
-252
-425
-328
-212
-344
-348
-237
-280
-384
-277
-185
-373
-423
-234
-287
-328
-162
-216
-312
-312
-292
-273
-245
-177
-253
-303
-174
-203
-327
-241
-142
-266
-298
-233
-230
-249
-283
-276
-351
-270
-153
-338
-312
-124
-307
-377
-163
-268
-379
-176
-92
-311
-430
-247
-225
-332
-275
-193
-181
-62
73
-21
-23
85
10
64
255
193
19
191
272
-61
-5
197
-16
-155
-12
-26
-327
-392
-263
-394
-431
-180
-282
-511
-355
-363
-486
-110
643
1712
3554
5648
6479
5397
3242
1581
959
573
193
-60
-310
-406
-553
-674
-600
-637
-648
-616
-655
-748
-746
-533
-620
-773
-562
-575
-716
-576
-490
-654
-634
-480
-625
-621
-400
-485
-575
-377
-348
-425
-235
-140
-323
-223
52
39
62
262
397
359
497
750
682
649
801
803
722
729
654
543
516
422
281
153
76
45
-139
-246
-197
-295
-309
-176
-247
-389
-255
-229
-414
-312
-191
-314
-306
-280
-391
-370
-196
-260
-382
-176
-242
-459
-348
-204
-251
-337
-170
-135
-360
-265
-165
-310
-282
-69
-41
-298
-288
-235
-349
-203
-169
-290
-234
-195
-293
-340
-225
-231
-378
-232
-46
-276
-361
-211
-282
-344
-184
-104
-327
-289
-141
-320
-348
-189
-241
-360
-185
-194
-368
-225
-157
-217
-96
116
114
4
108
139
37
160
262
93
66
179
58
55
229
73
-120
-62
-114
-259
-244
-235
-447
-514
-267
-236
-450
-419
-347
-454
-151
698
1922
3800
5972
6894
5594
3254
1655
963
655
380
-192
-451
-357
-521
-711
-649
-596
-760
-720
-466
-635
-880
-694
-631
-742
-629
-573
-713
-685
-463
-570
-761
-540
-509
-616
-456
-398
-537
-544
-424
-452
-414
-232
-176
-31
133
27
-105
90
389
423
473
702
766
686
754
836
729
775
848
506
360
488
342
134
79
-33
-184
-179
-193
-356
-373
-227
-336
-439
-284
-269
-418
-380
-201
-268
-352
-277
-419
-530
-329
-272
-417
-350
-215
-297
-380
-309
-287
-365
-312
-51
-160
-444
-209
-223
-356
-153
-156
-308
-241
-159
-326
-341
-253
-336
-332
-196
-215
-363
-268
-210
-396
-324
-130
-235
-346
-276
-322
-417
-323
-235
-340
-356
-74
-185
-513
-310
-256
-404
-277
-215
-304
-301
-203
-156
-123
8
42
-20
36
88
77
125
302
171
-68
94
113
-19
60
61
-137
-154
-108
-283
-419
-326
-335
-462
-345
-283
-399
-386
-337
-394
-253
593
2007
3822
5835
6833
5580
2975
1414
870
337
97
-54
-294
-408
-394
-646
-815
-612
-707
-800
-622
-649
-747
-604
-580
-683
-648
-646
-725
-706
-566
-603
-647
-460
-463
-593
-533
-462
-518
-516
-375
-355
-356
-230
-174
-218
-88
207
158
80
351
486
497
698
813
702
748
841
747
727
781
647
436
450
403
79
36
118
-115
-304
-240
-259
-406
-245
-112
-407
-434
-242
-364
-375
-204
-309
-431
-319
-220
-281
-430
-334
-233
-297
-239
-260
-320
-177
-101
-280
-341
-227
-254
-252
-174
-230
-252
-173
-180
-240
-286
-166
-172
-322
-156
-152
-313
-220
-175
-258
-266
-199
-255
-306
-203
-218
-332
-187
-31
-301
-368
-150
-213
-314
-225
-181
-286
-289
-227
-275
-130
-16
-187
-109
100
87
0
118
193
43
128
271
170
125
176
104
2
89
77
-129
-85
-73
-323
-324
-229
-254
-243
-334
-371
-364
-342
-220
-105
371
1508
3096
4858
6204
5842
3535
1542
1004
586
196
67
-258
-479
-498
-524
-640
-629
-468
-546
-636
-536
-554
-634
-519
-486
-662
-617
-386
-404
-572
-582
-597
-653
-512
-417
-516
-490
-369
-389
-413
-282
-249
-334
-170
6
-56
76
224
143
217
480
577
548
702
753
709
753
759
725
655
667
548
351
360
262
-80
-121
48
-134
-286
-126
-29
-229
-390
-335
-286
-215
-277
-425
-356
-173
-217
-390
-299
-208
-319
-301
-205
-276
-352
-258
-270
-336
-218
-132
-221
-292
-221
-315
-299
-109
-216
-293
-167
-207
-242
-174
-206
-236
-247
-191
-231
-295
-161
-84
-265
-346
-192
-187
-292
-306
-275
-297
-239
-198
-319
-292
-118
-203
-375
-232
-210
-381
-285
-216
-298
-177
-87
-180
-129
-62
-56
-5
103
99
-3
103
288
174
28
124
53
-15
101
169
-27
-143
-22
-227
-324
-185
-324
-443
-347
-303
-409
-366
-236
-369
-346
191
1044
2385
4357
6041
6114
4351
2238
1079
722
396
-170
-310
-255
-504
-647
-593
-568
-648
-624
-579
-713
-794
-624
-530
-697
-635
-531
-720
-725
-553
-592
-584
-552
-623
-541
-498
-511
-540
-565
-402
-263
-314
-373
-259
-243
-193
14
34
99
297
365
402
595
700
561
595
747
672
585
695
694
415
368
350
151
103
71
-127
-275
-179
-221
-293
-222
-323
-417
-343
-229
-299
-436
-334
-263
-373
-345
-253
-344
-354
-251
-291
-299
-228
-281
-352
-297
-265
-366
-321
-127
-188
-345
-260
-217
-310
-224
-128
-234
-263
-191
-289
-325
-186
-203
-348
-240
-94
-344
-373
-141
-296
-315
-104
-288
-422
-246
-218
-335
-275
-151
-248
-334
-251
-196
-320
-286
-191
-329
-250
-148
-310
-341
-179
-138
-209
-194
-98
-115
10
252
15
-97
127
160
127
134
181
228
149
114
89
2
74
-50
-246
-171
-182
-385
-362
-254
-353
-275
-234
-436
-504
-390
-212
140
1199
2906
4809
6413
6412
4271
2010
1266
877
231
-7
-27
-298
-574
-560
-591
-684
-641
-592
-581
-664
-636
-646
-744
-498
-550
-798
-579
-491
-680
-648
-485
-589
-637
-452
-506
-599
-444
-417
-439
-317
-274
-377
-335
65
70
-193
4
201
191
343
603
538
527
762
713
656
855
822
592
658
657
327
216
305
311
45
-169
-104
-238
-304
-174
-281
-363
-183
-258
-394
-239
-260
-410
-345
-226
-274
-361
-312
-191
-244
-356
-323
-368
-341
-197
-295
-331
-209
-244
-315
-236
-189
-260
-203
-187
-269
-268
-209
-234
-321
-197
-154
-358
-341
-166
-250
-338
-148
-186
-384
-313
-204
-283
-349
-226
-228
-325
-240
-280
-458
-337
-187
-293
-316
-169
-284
-311
-112
-318
-450
-285
-224
-259
-280
-241
-310
-327
-130
-111
-164
82
248
-9
-92
91
78
120
237
179
57
183
252
27
10
92
-77
-182
-84
-118
-345
-418
-335
-417
-392
-262
-315
-341
-341
-331
-254
468
1925
3695
5728
6920
5845
3264
1643
1119
508
145
-12
-328
-491
-470
-610
-725
-578
-623
-749
-619
-653
-753
-684
-632
-597
-647
-659
-643
-701
-610
-496
-611
-665
-518
-582
-590
-336
-437
-542
-282
-304
-511
-402
-41
-8
-228
-2
174
120
324
525
545
574
743
815
679
765
854
722
730
679
422
356
432
199
-9
52
-95
-265
-193
-202
-336
-304
-184
-264
-403
-331
-202
-355
-378
-199
-231
-253
-290
-465
-419
-203
-244
-350
-270
-219
-339
-288
-121
-291
-307
-116
-241
-358
-116
64
-318
-393
-70
-215
-264
-126
-222
-315
-201
-97
-257
-241
-137
-339
-348
-186
-204
-250
-222
-220
-302
-265
-92
-126
-328
-295
-208
-229
-174
-227
-318
-237
-149
-274
-336
-116
-109
-179
-56
-49
-84
67
212
47
-37
225
351
168
112
199
92
89
274
114
-84
71
-13
-245
-132
-209
-361
-175
-207
-432
-371
-194
-234
-373
-322
70
791
2104
4022
5700
6359
5207
2658
1077
810
455
-43
-195
-123
-393
-656
-549
-529
-643
-563
-439
-625
-704
-542
-625
-655
-434
-455
-610
-502
-459
-658
-599
-449
-476
-493
-436
-363
-441
-388
-238
-376
-328
-130
-237
-99
127
-49
-63
202
365
392
459
676
713
625
789
864
738
774
925
759
509
583
472
262
375
188
-223
-144
-23
-205
-245
-144
-271
-322
-168
-255
-376
-275
-205
-317
-292
-93
-248
-372
-168
-217
-359
-254
-190
-304
-165
-28
-348
-334
-82
-271
-355
-139
-76
-182
-213
-140
-216
-303
-132
-124
-335
-173
-82
-328
-235
-116
-216
-229
-166
-206
-290
-177
-130
-280
-242
-174
-265
-187
-142
-292
-309
-178
-176
-317
-238
-6
-219
-453
-147
-50
-188
-22
117
14
140
331
87
-63
149
184
53
150
215
51
73
172
99
100
31
-190
-345
-310
-267
-397
-350
-159
-230
-367
-301
-313
-344
79
944
2158
3893
5875
6569
4793
2328
1120
665
305
71
-186
-342
-331
-513
-605
-431
-469
-648
-649
-613
-665
-659
-541
-584
-681
-463
-477
-750
-605
-501
-617
-494
-404
-524
-571
-423
-403
-545
-352
-210
-454
-409
-102
-163
-205
133
140
-19
319
521
313
418
693
641
612
835
800
584
664
666
487
412
361
313
217
30
-85
-118
-137
-248
-361
-299
-236
-347
-322
-188
-320
-394
-233
-221
-375
-352
-200
-311
-419
-225
-243
-375
-237
-197
-289
-333
-272
-231
-268
-188
-242
-317
-191
-160
-296
-302
-113
-203
-362
-217
-165
-262
-221
-175
-271
-224
-138
-314
-357
-146
-211
-373
-243
-186
-266
-174
-173
-358
-313
-128
-253
-414
-268
-116
-227
-277
-145
-289
-359
-126
-135
-189
-36
117
241
135
-58
-82
25
217
163
16
165
250
129
90
91
21
-98
-105
-109
-287
-276
-215
-368
-333
-232
-405
-442
-262
-343
-319
259
1157
2572
4646
6352
6229
4285
2267
1279
712
290
52
-228
-343
-402
-626
-672
-494
-630
-760
-559
-563
-749
-686
-512
-637
-722
-553
-557
-670
-572
-476
-552
-522
-486
-610
-574
-403
-488
-570
-408
-324
-401
-323
-189
-177
-51
81
58
111
364
418
339
503
701
674
667
849
781
581
711
765
503
408
378
203
69
156
176
-242
-327
-166
-320
-323
-225
-322
-353
-227
-296
-438
-298
-209
-366
-257
-142
-378
-320
-190
-352
-374
-200
-144
-318
-388
-242
-217
-253
-179
-250
-349
-202
-18
-198
-406
-226
-198
-257
-130
-131
-121
-200
-338
-331
-288
-187
-218
-343
-253
-137
-320
-369
-230
-316
-269
-129
-298
-347
-176
-262
-274
-113
-291
-406
-252
-219
-306
-314
-188
-204
-308
-191
-36
-151
-171
86
89
38
151
41
32
317
283
-26
40
192
99
64
113
50
-107
-83
-120
-361
-325
-149
-337
-511
-357
-327
-375
-295
-327
-369
21
1028
2580
4642
6480
6592
4648
2425
1409
814
279
127
-145
-428
-471
-542
-662
-631
-665
-806
-688
-534
-712
-757
-473
-633
-829
-567
-619
-774
-634
-511
-527
-656
-648
-615
-683
-536
-439
-551
-501
-341
-312
-379
-322
-215
-183
-11
110
105
244
450
443
495
703
672
676
774
767
686
640
670
551
409
367
226
141
68
-105
-130
-164
-274
-356
-379
-307
-343
-418
-302
-266
-393
-381
-280
-334
-439
-356
-309
-452
-285
-96
-450
-486
-185
-307
-411
-271
-293
-366
-259
-204
-339
-336
-165
-244
-366
-212
-189
-346
-221
-105
-312
-328
-215
-301
-288
-168
-336
-477
-236
-182
-401
-356
-212
-285
-352
-265
-249
-346
-193
-191
-511
-356
-135
-414
-445
-211
-250
-293
-205
-248
-300
-132
19
-70
-46
127
53
-42
200
260
-8
34
213
63
-34
186
113
-160
-128
-90
-222
-345
-331
-327
-415
-355
-344
-437
-314
-274
-547
-532
139
1082
2609
4793
6499
6547
4611
2200
1031
744
362
-41
-251
-321
-479
-676
-645
-585
-700
-748
-633
-686
-767
-576
-599
-816
-666
-604
-753
-690
-530
-567
-664
-548
-495
-606
-566
-480
-534
-453
-321
-409
-455
-260
-106
-248
-179
183
114
47
337
359
356
634
723
671
859
878
673
726
817
672
523
537
471
223
80
54
-45
-160
-165
-250
-339
-206
-249
-377
-296
-295
-398
-326
-174
-234
-428
-364
-270
-366
-308
-180
-221
-290
-252
-326
-393
-245
-203
-307
-193
-111
-288
-294
-157
-208
-255
-148
-144
-161
-146
-270
-370
-235
-117
-248
-226
-132
-232
-288
-206
-182
-296
-255
-165
-270
-334
-149
-148
-349
-251
-162
-343
-302
-85
-234
-369
-208
-204
-247
-99
-2
63
213
131
-103
-36
242
243
43
159
267
97
101
207
79
-94
-28
-43
-308
-278
-127
-364
-429
-261
-351
-416
-271
-280
-398
-101
414
1160
2722
4732
6126
6016
4120
1842
850
644
379
-13
-343
-341
-467
-637
-540
-560
-619
-542
-472
-589
-674
-594
-655
-681
-515
-519
-615
-474
-386
-595
-649
-469
-439
-470
-450
-458
-491
-363
-280
-429
-340
-56
-97
-206
-85
-8
50
253
408
389
479
695
681
633
873
917
682
739
815
580
506
499
289
239
172
-59
-76
-34
-162
-297
-294
-213
-288
-332
-227
-287
-388
-313
-253
-328
-335
-237
-253
-341
-274
-245
-347
-226
-73
-325
-449
-224
-251
-311
-211
-159
-33
-69
-284
-390
-300
-132
-206
-281
-117
-120
-255
-114
-137
-389
-326
-163
-265
-316
-141
-84
-278
-338
-149
-173
-288
-233
-235
-317
-200
-103
-290
-287
-172
-293
-271
-136
-177
-168
-122
-195
-94
130
76
-46
36
146
126
131
300
269
87
155
230
97
98
270
53
-227
-59
-13
-292
-294
-195
-379
-293
-123
-291
-343
-293
-374
-286
359
1386
2704
4647
6384
6272
4219
2132
1198
707
334
137
-142
-239
-332
-598
-637
-538
-583
-621
-525
-548
-665
-567
-440
-631
-712
-588
-592
-467
-454
-655
-608
-452
-401
-499
-553
-387
-348
-459
-346
-268
-347
-287
-128
-116
-125
99
200
148
333
577
499
503
741
745
783
951
795
618
755
751
535
475
492
191
-23
77
-20
-121
-44
-131
-329
-203
-33
-312
-408
-127
-246
-479
-278
-151
-283
-279
-203
-250
-325
-263
-207
-301
-146
-73
-385
-308
-71
-279
-382
-186
-146
-236
-195
-131
-217
-181
-99
-255
-244
-85
-148
-234
-140
-111
-242
-246
-175
-213
-246
-169
-182
-215
-90
-119
-375
-338
-169
-226
-222
-135
-158
-294
-277
-172
-240
-268
-121
-209
-311
-134
-128
-187
-106
-82
-161
-87
161
133
-38
115
234
160
289
267
32
87
250
254
86
111
91
-215
-169
-119
-375
-312
-201
-336
-342
-260
-312
-427
-316
-271
-106
673
2096
4032
5938
6880
5612
3011
1622
1198
484
115
53
-217
-473
-549
-573
-643
-610
-562
-641
-668
-575
-596
-672
-645
-630
-687
-595
-490
-661
-729
-449
-405
-702
-576
-430
-564
-453
-321
-386
-449
-303
-240
-301
-93
-54
-182
95
257
135
301
591
575
583
804
766
691
824
986
856
562
604
520
313
317
228
-3
21
136
-241
-380
-144
-318
-382
-209
-173
-229
-368
-428
-416
-337
-243
-323
-386
-279
-251
-338
-276
-250
-368
-382
-251
-219
-309
-224
-226
-389
-326
-207
-278
-250
-108
-198
-296
-187
-194
-237
-150
-217
-368
-268
-89
-241
-369
-191
-175
-337
-304
-161
-243
-339
-219
-266
-354
-245
-184
-191
-237
-289
-380
-362
-205
-291
-317
-85
-104
-266
-61
66
-120
-32
121
24
9
353
386
-89
-8
225
24
29
176
161
10
-147
-200
-334
-358
-282
-403
-427
-294
-252
-374
-435
-411
-502
-228
619
1815
3663
5929
6933
5625
3236
1547
931
596
159
-186
-278
-318
-503
-607
-624
-750
-807
-703
-655
-725
-743
-645
-673
-663
-530
-560
-617
-624
-645
-667
-659
-572
-522
-599
-554
-465
-556
-502
-367
-389
-357
-209
-160
-239
-64
128
3
178
415
374
545
699
618
651
814
827
723
746
768
621
498
356
182
108
68
45
-47
-163
-287
-360
-296
-270
-353
-394
-221
-248
-450
-412
-279
-329
-428
-325
-318
-351
-262
-311
-402
-299
-198
-258
-304
-286
-313
-339
-256
-249
-315
-243
-178
-271
-152
-74
-373
-395
-150
-163
-299
-176
-163
-351
-317
-232
-278
-319
-244
-273
-321
-206
-203
-331
-364
-242
-298
-214
30
-296
-519
-270
-203
-333
-284
-132
-191
-210
-46
4
-33
57
73
-30
73
224
125
7
184
253
100
66
70
-33
-167
-102
-194
-386
-183
-188
-555
-426
-176
-422
-437
-236
-404
-357
358
1367
2848
4815
6139
5815
3832
1813
934
530
243
-29
-358
-307
-330
-719
-739
-484
-472
-713
-727
-592
-724
-709
-519
-635
-696
-490
-575
-657
-499
-533
-602
-522
-457
-574
-522
-280
-454
-582
-356
-334
-442
-319
-150
-175
-52
170
44
37
330
450
448
584
698
671
838
876
614
577
710
658
470
601
566
-29
-144
57
-142
-269
-130
-213
-428
-282
-189
-396
-406
-230
-296
-412
-271
-290
-412
-307
-265
-334
-289
-232
-332
-394
-272
-117
-262
-433
-213
-244
-378
-215
-250
-252
-101
-229
-329
-160
-139
-326
-305
-148
-226
-291
-187
-172
-263
-330
-223
-254
-342
-180
-242
-347
-215
-197
-288
-295
-235
-286
-295
-182
-238
-348
-260
-210
-290
-223
-194
-273
-247
-76
-25
-71
154
218
-105
-14
308
121
65
309
160
-55
111
160
-10
-35
-6
-108
-248
-239
-295
-409
-267
-221
-372
-308
-228
-408
-450
-95
371
1313
3140
4970
6155
6073
4052
1757
967
728
208
-87
-111
-259
-572
-607
-481
-613
-683
-503
-568
-761
-625
-587
-664
-579
-641
-728
-666
-534
-539
-579
-491
-577
-654
-521
-384
-469
-459
-341
-477
-388
-217
-285
-318
-203
19
37
2
175
264
307
511
605
569
724
833
669
730
842
627
459
495
459
190
148
212
-55
-200
-73
-181
-402
-256
-272
-431
-286
-287
-426
-377
-281
-371
-452
-270
-243
-411
-321
-252
-277
-360
-366
-308
-381
-280
-218
-316
-271
-229
-347
-343
-194
-235
-342
-222
-174
-238
-143
-217
-443
-370
-222
-265
-324
-274
-263
-367
-317
-206
-296
-288
-254
-376
-387
-191
-243
-414
-269
-271
-396
-340
-249
-266
-341
-281
-291
-390
-222
-226
-461
-343
-92
-201
-306
2
128
-23
5
34
-50
52
272
153
12
184
88
-85
65
116
-44
-169
-157
-256
-381
-260
-271
-485
-462
-297
-419
-478
-267
-427
-430
457
1561
3108
5302
6701
6056
3779
1892
1172
585
154
-18
-259
-382
-493
-612
-740
-701
-673
-805
-726
-592
-688
-805
-677
-664
-746
-644
-653
-696
-585
-617
-776
-601
-428
-590
-608
-529
-557
-591
-375
-216
-560
-503
-160
-255
-100
121
-3
46
297
382
378
553
787
731
650
733
636
648
769
592
430
449
296
28
-42
5
-106
-289
-157
-116
-438
-426
-252
-382
-441
-301
-304
-381
-334
-339
-503
-461
-284
-388
-409
-163
-300
-563
-369
-286
-423
-329
-203
-351
-420
-257
-254
-333
-269
-268
-396
-263
-103
-261
-341
-261
-316
-444
-320
-270
-369
-290
-273
-356
-354
-311
-352
-365
-220
-251
-429
-352
-245
-339
-420
-300
-272
-409
-323
-277
-423
-349
-211
-341
-305
-219
-406
-437
-276
-151
-270
-285
-102
-155
-107
89
3
-104
67
170
138
118
89
75
61
164
123
-84
-52
-55
-208
-221
-128
-353
-562
-319
-332
-552
-421
-304
-435
-450
-335
-77
824
2465
4456
6305
6835
5032
2385
1247
996
301
-69
-20
-303
-559
-598
-727
-811
-736
-620
-725
-831
-615
-635
-862
-670
-544
-759
-697
-547
-732
-756
-565
-606
-674
-563
-548
-661
-580
-360
-489
-592
-365
-351
-358
-154
-85
-116
59
234
170
257
547
597
532
651
796
789
750
839
735
507
526
482
360
319
231
-40
-174
-76
-202
-323
-175
-195
-414
-337
-252
-378
-352
-278
-341
-354
-293
-357
-389
-289
-333
-370
-266
-326
-349
-204
-216
-395
-422
-251
-211
-286
-289
-208
-246
-341
-180
-138
-323
-269
-205
-318
-277
-152
-267
-342
-182
-262
-298
-84
-215
-430
-350
-237
-303
-321
-175
-250
-408
-296
-231
-323
-264
-238
-348
-364
-207
-214
-399
-280
-171
-327
-313
-213
-225
-167
-87
-122
-66
31
-13
-15
122
222
102
71
235
210
-22
71
261
-28
-129
32
-197
-432
-186
-74
-473
-472
-298
-484
-399
-226
-410
-406
-6
482
1467
3370
5352
6334
5681
3443
1402
773
545
67
-200
-162
-291
-585
-641
-571
-641
-690
-520
-597
-797
-636
-570
-731
-656
-509
-635
-670
-504
-441
-567
-657
-516
-572
-573
-368
-510
-576
-383
-372
-444
-214
-148
-323
-164
20
62
93
265
383
363
526
636
637
710
760
794
723
690
663
504
500
531
392
195
54
-109
-177
-87
-137
-299
-264
-245
-339
-269
-298
-507
-463
-255
-285
-378
-290
-242
-255
-233
-259
-341
-366
-274
-278
-362
-279
-182
-361
-203
254
-328
-726
-215
-204
-322
-178
-150
-280
-282
-166
-240
-311
-199
-225
-353
-255
-173
-330
-278
-45
-272
-479
-260
-216
-319
-277
-191
-266
-380
-306
-308
-385
-268
-177
-410
-470
-279
-373
-379
-241
-351
-397
-297
-330
-338
-268
-253
-259
-236
-80
47
-42
8
31
-78
94
183
-15
32
205
54
-51
57
-31
-246
-111
-67
-395
-468
-365
-416
-459
-254
-214
-541
-462
-323
-567
-301
539
1649
3488
5647
6620
5602
3370
1601
876
425
92
-140
-382
-447
-585
-762
-710
-541
-540
-824
-866
-734
-743
-625
-667
-821
-643
-545
-697
-718
-687
-695
-726
-624
-524
-688
-640
-437
-547
-563
-370
-458
-455
-171
-204
-324
-165
-23
8
157
320
349
404
559
644
618
840
835
531
612
643
486
431
469
377
82
-2
-23
-211
-222
-145
-285
-342
-246
-328
-453
-368
-292
-438
-433
-216
-306
-466
-341
-356
-454
-352
-307
-399
-335
-253
-282
-175
-219
-451
-450
-276
-218
-310
-333
-76
4
-369
-371
-231
-354
-243
-195
-311
-221
-163
-301
-330
-211
-255
-378
-215
-70
-310
-334
-139
-297
-400
-213
-203
-332
-276
-237
-289
-214
-156
-251
-339
-278
-198
-282
-266
-213
-289
-181
-77
-276
-346
-155
-195
-289
-98
-85
-240
-99
97
70
86
181
143
102
240
305
136
145
334
234
169
287
90
-171
-73
-29
-262
-311
-226
-338
-261
-110
-324
-466
-319
-278
-428
-133
790
2089
3998
6091
6886
5517
3130
1685
1085
706
418
-254
-478
-259
-369
-573
-572
-502
-758
-759
-523
-641
-752
-619
-569
-705
-624
-488
-669
-653
-467
-577
-610
-523
-425
-464
-591
-502
-499
-474
-328
-375
-403
-208
-128
-168
70
173
-47
103
453
484
544
750
670
633
884
885
657
698
817
656
531
550
365
166
138
30
-70
-80
-135
-275
-354
-254
-290
-386
-276
-192
-279
-365
-324
-366
-423
-264
-215
-366
-286
-237
-401
-326
-212
-315
-366
-224
-179
-325
-280
-171
-272
-270
-173
-261
-300
-168
-143
-168
-160
-256
-344
-238
-154
-254
-336
-237
-208
-329
-266
-198
-247
-287
-249
-243
-333
-234
-186
-325
-280
-215
-246
-262
-295
-352
-361
-199
-219
-358
-235
-165
-310
-233
-6
-231
-449
-237
-189
-298
-63
79
-101
-14
135
36
26
250
331
97
123
306
128
32
259
179
-83
-37
-5
-178
-231
-211
-335
-303
-230
-340
-412
-304
-212
-352
-327
49
707
2115
4131
5901
6620
5380
2848
1242
