-183
83
-173
-329
-21
-28
-294
-81
46
-264
-160
93
-172
-238
73
-60
-319
-50
54
-250
-163
94
-131
-247
38
-41
-274
-65
37
-221
-201
-2
-178
-264
12
-70
-315
-69
-8
-334
-205
55
-226
-351
-23
-93
-354
-82
43
-325
-268
21
-201
-313
-20
-77
-345
-128
-7
-317
-229
-4
-235
-276
75
29
-216
39
159
-153
-27
297
86
-22
264
160
-145
51
109
-255
-182
14
-263
-337
-42
-143
-397
-164
-74
-376
-293
4
-177
-362
124
744
1258
2002
2070
750
-459
-663
-712
-526
-83
-178
-424
-168
-80
-387
-256
4
-270
-369
-53
-146
-386
-124
-35
-320
-192
38
-211
-271
22
-81
-285
4
98
-228
-123
155
-72
-151
191
116
-128
149
289
10
130
417
244
177
461
479
315
572
727
415
514
822
567
450
766
624
334
588
602
197
244
394
30
-97
167
5
-265
-43
18
-306
-199
14
-257
-326
-33
-131
-399
-158
-49
-298
-213
-37
-210
-271
1
-66
-309
-70
50
-272
-217
31
-236
-331
18
-103
-361
-139
-79
-329
-225
5
-259
-368
-44
-148
-419
-166
-18
-317
-268
8
-223
-348
-31
-118
-396
-137
-11
-339
-254
34
-237
-344
28
-78
-372
-128
-17
-324
-236
59
-152
-247
73
17
-225
35
181
-104
30
319
29
-75
282
128
-184
74
97
-254
-149
60
-222
-339
-38
-108
-384
-161
-24
-345
-250
57
-211
-133
812
1513
1841
2151
1267
-389
-818
-440
-373
-320
-50
-113
-368
-177
-65
-330
-218
50
-219
-329
20
-68
-308
-67
3
-255
-143
79
-143
-194
115
-11
-246
43
153
-134
-37
191
-39
-80
281
224
-47
262
431
95
233
548
350
328
662
600
426
687
811
535
598
892
677
524
814
701
388
551
581
197
180
376
75
-75
164
24
-215
1
114
-224
-200
104
-178
-315
88
-14
-332
-49
95
-203
-120
124
-135
-259
83
33
-243
25
112
-219
-117
72
-124
-194
30
-68
-293
-24
57
-266
-152
102
-138
-234
46
-27
-243
-33
45
-263
-145
134
-122
-204
41
-60
-228
-28
42
-251
-174
87
-140
-237
42
-28
-229
9
134
-119
-20
242
33
-10
308
221
-22
207
284
-96
-32
234
-84
-249
40
-101
-385
-95
-13
-335
-197
26
-217
-292
46
29
-287
153
945
1337
1922
2162
948
-421
-577
-561
-643
-159
18
-316
-193
51
-197
-279
48
-38
-333
-70
68
-243
-159
133
-96
-221
72
-8
-193
58
121
-182
-90
207
-9
-123
218
184
-83
147
294
1
124
466
224
91
454
414
208
532
635
348
515
768
545
523
821
704
469
681
766
436
416
595
294
85
299
140
-168
28
86
-254
-165
78
-253
-361
27
-93
-388
-103
1
-325
-199
99
-176
-314
28
-46
-310
-13
75
-266
-118
145
-141
-230
106
0
-301
-79
23
-280
-186
70
-189
-296
-2
-111
-346
-62
64
-289
-225
82
-140
-298
1
-56
-342
-98
35
-315
-226
60
-194
-296
17
-44
-313
-121
-42
-317
-174
63
-171
-222
123
90
-178
55
223
-69
39
305
25
-58
240
54
-240
-63
4
-283
-269
-16
-249
-361
-43
-123
-403
-186
-62
-362
-226
35
-2
609
1713
2077
1655
850
-194
-803
-480
-47
-264
-360
-47
-128
-361
-118
-66
-363
-185
47
-262
-351
-9
-79
-319
-67
19
-285
-203
52
-175
-243
80
-57
-271
25
109
-187
-78
203
1
-96
184
135
-56
213
339
71
201
482
299
307
647
563
391
668
779
478
608
890
548
405
719
567
223
390
395
23
107
263
-82
-195
90
1
-276
-82
51
-285
-223
103
-159
-321
-14
-110
-402
-132
16
-297
-241
9
-213
-329
-21
-57
-300
-91
15
-262
-154
69
-203
-269
61
-44
-314
-75
47
-263
-221
54
-147
-262
51
-27
-315
-98
17
-272
-174
55
-198
-291
-7
-53
-285
-87
29
-248
-138
105
-183
-309
40
-19
-306
-51
92
-196
-126
153
-11
-121
162
112
-98
187
320
33
78
295
-10
-169
151
9
-298
-83
-19
-337
-258
-10
-260
-369
-48
-135
-384
-90
2
-343
90
1086
1573
1948
2040
779
-610
-617
-303
-387
-229
15
-256
-374
-33
-139
-411
-108
-8
-378
-268
23
-220
-296
3
-103
-330
-56
39
-284
-180
80
-142
-239
104
85
-210
10
160
-119
-32
223
24
-31
290
231
36
303
423
170
312
626
449
385
704
642
452
719
830
545
565
755
484
297
545
416
75
216
248
-93
-53
131
-164
-262
36
-106
-337
-86
-37
-350
-247
28
-228
-381
-65
-141
-414
-120
-4
-317
-209
29
-202
-297
-2
-87
-344
-73
40
-328
-243
75
-191
-324
29
-115
-437
-141
-4
-331
-239
37
-233
-368
-50
-122
-358
-103
-11
-337
-263
2
-246
-309
6
-123
-355
-109
-19
-355
-277
8
-239
-331
-44
-170
-421
-175
-59
-341
-269
-61
-248
-297
-27
-102
-335
-43
127
-194
-95
178
-59
-92
240
136
-121
120
192
-202
-155
94
-184
-320
-47
-178
-448
-196
-109
-427
-321
-49
-315
-441
-72
-144
-392
307
1269
1631
1981
1727
144
-870
-578
-427
-503
-205
-112
-421
-332
-111
-336
-407
-101
-180
-453
-178
-20
-387
-296
32
-230
-370
-40
-98
-355
-117
-21
-315
-224
56
-151
-255
92
37
-223
41
176
-102
20
331
120
46
422
371
144
450
604
333
467
769
562
476
780
709
470
671
742
383
396
598
248
53
318
192
-132
14
47
-295
-186
72
-246
-394
-81
-179
-420
-163
-82
-409
-337
-71
-285
-355
-63
-188
-395
-111
-30
-337
-245
-2
-243
-319
-4
-116
-359
-87
23
-321
-270
2
-234
-346
-9
-107
-379
-104
21
-312
-259
13
-222
-332
-12
-91
-380
-124
12
-317
-239
22
-232
-361
-16
-60
-354
-116
4
-339
-216
78
-226
-340
-40
-140
-359
-109
27
-286
-254
3
-222
-322
-5
-80
-340
-84
70
-212
-111
179
-33
-143
210
181
-71
212
317
-28
25
241
-35
-161
122
-8
-282
-70
-11
-330
-232
18
-258
-345
-13
-106
-309
-54
8
4
862
1920
2121
1708
850
-284
-830
-404
-34
-305
-252
46
-205
-339
-15
-81
-318
-73
24
-253
-163
99
-110
-240
66
-23
-277
6
112
-167
-105
146
-20
-149
132
87
-153
111
266
-37
66
352
116
56
421
339
95
401
547
268
412
736
530
457
810
751
502
763
868
528
599
808
512
362
563
375
44
238
294
-65
-31
180
-100
-258
67
-24
-315
-65
31
-301
-236
73
-158
-337
-4
-44
-316
-84
46
-268
-185
121
-130
-254
76
-14
-281
-25
84
-264
-179
107
-179
-309
50
-25
-308
-16
98
-297
-210
91
-182
-292
63
-44
-321
-54
34
-309
-186
120
-178
-329
24
-58
-347
-62
48
-309
-161
125
-178
-270
42
-80
-306
-51
7
-298
-192
77
-165
-300
32
-34
-339
-122
46
-224
-138
204
30
-107
158
131
-86
180
325
-18
29
269
-16
-171
137
3
-345
-115
-4
-365
-273
26
-249
-386
-92
-173
-367
-82
-5
-90
680
1700
2020
1923
1168
-221
-917
-495
-132
-316
-233
-8
-302
-394
-34
-165
-409
-121
25
-284
-222
72
-204
-303
29
-93
-321
-36
82
-236
-187
86
-127
-218
124
34
-236
8
132
-129
2
293
47
-45
328
246
16
342
485
222
372
689
482
420
763
674
455
744
821
475
555
790
491
286
514
372
-4
154
260
-140
-157
103
-145
-281
-50
-150
-371
-187
-74
-373
-338
-41
-278
-417
-71
-131
-428
-197
-26
-327
-273
18
-209
-341
4
-70
-375
-132
-1
-311
-251
36
-202
-331
-21
-156
-367
-84
-60
-354
-228
-19
-283
-391
-80
-117
-389
-159
0
-351
-318
-32
-262
-349
-31
-138
-402
-119
37
-325
-263
34
-234
-367
-39
-130
-398
-108
-12
-374
-276
-4
-259
-311
56
-43
-264
20
119
-158
-42
243
6
-117
195
59
-239
-1
62
-262
-217
-54
-325
-388
-63
-148
-389
-199
-106
-372
-315
-29
-238
-288
447
1126
1577
2165
1753
136
-732
-625
-648
-509
-64
-149
-458
-213
-76
-364
-300
-54
-296
-384
-56
-141
-383
-148
-21
-298
-235
18
-199
-281
61
2
-250
-8
99
-194
-77
197
-34
-110
257
176
-128
129
345
107
170
469
302
233
567
554
353
654
848
530
616
951
692
497
777
699
413
558
588
182
133
351
35
-175
121
24
-297
-118
-7
-324
-268
-14
-297
-405
-73
-148
-410
-153
-16
-366
-270
-1
-239
-306
33
-44
-305
-33
35
-299
-161
124
-154
-292
57
2
-289
-70
44
-282
-207
66
-200
-295
34
-83
-363
-117
17
-302
-247
39
-211
-372
5
-11
-358
-167
-18
-335
-270
4
-200
-336
-83
-124
-362
-139
-39
-332
-205
85
-145
-236
105
33
-212
68
222
-63
-8
202
-70
-208
81
-34
-368
-152
-45
-410
-340
-78
-353
-477
-156
-193
-467
-230
-48
-387
-325
323
863
1440
2141
1741
278
-475
-577
-736
-448
-85
-343
-452
-140
-253
-523
-246
-74
-420
-379
-91
-299
-391
-112
-166
-396
-192
-77
-308
-230
-25
-211
-308
8
-17
-302
-73
97
-223
-118
234
-35
-157
183
154
-35
224
357
91
235
555
368
293
633
589
386
700
783
420
548
807
519
360
575
505
199
230
264
-41
-52
138
-114
-289
-14
-63
-378
-206
-75
-391
-346
-46
-273
-439
-116
-192
-478
-189
-44
-371
-291
-23
-264
-357
-34
-102
-376
-171
0
-276
-258
21
-192
-353
-29
-112
-420
-164
-36
-372
-302
15
-221
-367
-51
-168
-420
-140
-34
-365
-318
-2
-206
-343
-31
-113
-383
-162
-40
-311
-254
-14
-232
-339
-24
-106
-386
-162
-27
-292
-212
93
-96
-212
143
74
-208
98
266
-45
45
334
92
-112
132
45
-297
-82
30
-336
-267
3
-268
-367
-9
-149
-454
-184
-22
-282
-244
180
549
1193
2109
2155
1069
63
-409
-641
-374
3
-235
-397
-46
-125
-435
-134
11
-379
-310
-6
-235
-341
-7
-102
-386
-88
42
-287
-191
70
-181
-252
80
-9
-267
-10
151
-136
-67
231
21
-120
244
222
-57
256
469
135
244
613
380
301
690
669
451
731
868
504
583
885
604
451
750
587
213
390
412
28
56
238
-43
-197
72
-6
-260
-60
23
-281
-230
-9
-263
-384
-35
-75
-405
-167
-21
-370
-289
-48
-277
-386
-89
-98
-392
-211
-30
-319
-293
-2
-234
-373
-16
-128
-440
-146
-2
-357
-286
9
-249
-377
-57
-129
-394
-166
-26
-318
-290
-50
-227
-336
-79
-89
-358
-171
25
-301
-265
53
-196
-349
-21
-77
-378
-119
57
-299
-256
36
-182
-331
-13
-32
-280
-34
137
-101
-72
170
15
-61
237
153
-123
106
204
-181
-168
83
-175
-375
-95
-153
-477
-235
-53
-401
-362
-66
-331
-406
-22
-181
-321
580
1531
1743
1920
1399
-169
-889
-443
-262
-424
-203
-77
-383
-326
-47
-288
-415
-93
-142
-389
-172
-49
-372
-307
39
-197
-363
10
-27
-321
-83
53
-250
-160
112
-116
-238
100
121
-159
42
204
-97
23
347
105
43
413
382
172
427
609
377
459
769
616
493
828
796
476
660
760
400
361
563
280
26
276
188
-216
-25
137
-229
-182
84
-202
-371
-54
-56
-344
-190
-51
-372
-310
-3
-261
-403
-103
-147
-405
-196
-27
-322
-293
-16
-213
-342
-55
-87
-354
-147
21
-300
-248
41
-223
-365
-39
-95
-368
-126
23
-332
-289
39
-189
-353
-14
-49
-370
-146
21
-264
-245
-52
-213
-325
-84
-107
-338
-109
19
-276
-229
1
-222
-342
-31
-94
-360
-117
68
-196
-98
229
-53
-186
241
221
-24
231
268
-49
41
226
-39
-208
64
-17
-327
-85
30
-309
-242
36
-177
-325
-29
-74
-312
-94
74
276
1132
2055
2197
1461
354
-580
-937
-441
-8
-287
-301
-7
-190
-328
-25
-62
-346
-115
30
-306
-277
31
-155
-303
5
-16
-275
-73
87
-208
-161
123
-86
-212
94
99
-165
40
227
-45
-1
295
124
25
371
358
114
401
632
375
479
821
637
524
853
818
597
833
954
655
640
839
561
314
565
489
108
215
305
-8
-46
163
-86
-248
76
4
-302
-120
62
-189
-200
33
-171
-294
36
-5
-313
-84
87
-242
-208
75
-135
-253
53
17
-267
-53
164
-149
-147
139
-61
-211
86
31
-282
-37
138
-202
-185
98
-111
-271
38
-13
-282
22
111
-297
-212
90
-122
-291
3
-9
-269
-35
99
-210
-147
125
-55
-164
178
157
-146
90
246
-33
49
350
157
-12
267
188
-138
54
151
-200
-170
91
-123
-311
-55
-83
-378
-199
-38
-300
-248
42
-172
-216
587
1282
1608
2038
1536
-24
-786
-596
-566
-418
0
-141
-452
-145
24
-325
-299
-2
-191
-332
-16
-9
-301
-124
42
-261
-223
91
-85
-240
39
35
-231
-19
194
-109
-92
228
28
-120
225
205
-81
181
376
96
187
505
308
212
614
616
349
633
836
513
579
909
675
514
805
715
325
462
588
176
96
288
31
-160
75
40
-271
-170
-47
-360
-335
-26
-217
-391
-118
-141
-440
-241
-58
-386
-356
-28
-229
-399
-86
-72
-390
-217
-18
-314
-263
43
-192
-381
-58
-88
-414
-183
4
-286
-244
-2
-217
-367
-60
-82
-401
-210
-7
-334
-345
-36
-220
-365
-89
-89
-327
-180
-57
-344
-301
-1
-217
-416
-122
-83
-338
-178
-19
-346
-325
55
-107
-275
58
46
-280
-18
256
-34
-34
248
57
-140
89
47
-280
-171
-39
-354
-369
-50
-210
-455
-200
-192
-482
-279
-123
-389
-327
-17
144
729
1704
2021
1378
404
-404
-822
-558
-143
-337
-453
-154
-256
-531
-296
-129
-435
-411
-72
-281
-473
-83
-107
-489
-260
-44
-324
-285
-11
-202
-346
-34
-51
-377
-172
80
-213
-216
103
-73
-226
109
121
-180
32
266
25
101
462
303
182
537
577
350
548
777
511
454
788
624
385
640
577
203
280
398
48
-73
180
13
-260
-42
-21
-357
-208
-12
-343
-312
-27
-270
-435
-131
-158
-463
-245
-85
-409
-407
-108
-218
-390
-169
-216
-460
-234
-67
-353
-360
-58
-250
-418
-121
-154
-410
-225
-70
-338
-330
-32
-198
-379
-92
-124
-410
-175
-7
-358
-370
-55
-200
-385
-117
-116
-395
-171
8
-342
-316
-9
-239
-412
-102
-87
-384
-201
-18
-335
-318
-31
-206
-364
-23
38
-264
-38
166
-160
-110
226
61
-100
201
188
-182
-83
71
-237
-279
-49
-245
-404
-149
-193
-457
-245
-62
-387
-431
-106
-229
-431
-30
533
1023
1725
2017
1063
-175
-555
-647
-594
-143
-101
-463
-322
-79
-355
-387
-45
-209
-426
-122
-96
-378
-199
-5
-280
-274
31
-168
-365
-48
-3
-275
-130
61
-181
-162
144
-46
-214
137
157
-122
85
279
1
-4
353
262
134
461
490
266
490
734
486
492
822
660
498
771
723
413
557
674
317
233
433
194
-25
203
146
-187
-54
125
-197
-234
97
-78
-341
-60
-13
-343
-197
0
-312
-322
8
-182
-388
-75
-51
-369
-218
-1
-296
-332
-7
-152
-333
-17
-5
-342
-187
2
-264
-253
13
-177
-350
-34
6
-310
-177
-1
-293
-303
18
-128
-331
-76
-49
-312
-176
33
-188
-246
13
-110
-329
-77
0
-259
-134
40
-250
-241
86
-125
-312
-8
0
-313
-144
111
-173
-179
170
31
-157
132
200
-71
132
373
53
-4
295
70
-177
100
41
-332
-159
50
-281
-306
4
-191
-402
-89
-97
-412
-146
54
-243
162
1289
1788
1784
1542
294
-906
-765
-298
-375
-354
-52
-161
-386
-117
-83
-411
-241
-33
-301
-282
-9
-191
-380
-79
-10
-327
-173
76
-188
-202
103
-73
-281
66
136
-224
-67
192
-58
-51
252
124
-25
250
279
68
280
484
273
323
673
567
418
747
790
489
664
897
597
555
851
618
311
545
536
120
174
323
2
-81
164
-11
-271
21
74
-311
-170
45
-247
-280
6
-132
-350
-59
-24
-355
-172
47
-250
-316
4
-102
-342
-61
-15
-317
-157
45
-237
-276
26
-131
-325
-32
-16
-335
-158
57
-236
-259
1
-110
-304
-127
-77
-342
-175
32
-284
-306
17
-137
-346
-64
-23
-339
-209
15
-252
-292
-9
-159
-337
-67
4
-201
-31
175
-79
-112
244
144
-75
233
263
-71
69
212
-107
-170
64
-87
-291
-91
-82
-377
-229
-9
-310
-370
-55
-203
-370
14
-40
-213
647
1574
1724
1591
830
-557
-1144
-717
-368
-388
-224
-64
-308
-333
-19
-156
-372
-65
-11
-340
-207
44
-204
-244
79
-106
-351
-9
68
-227
-69
116
-164
-127
203
3
-153
179
153
-135
75
295
54
67
419
318
135
443
510
260
432
683
483
448
780
715
504
747
819
511
614
834
479
330
558
302
47
239
138
-201
-77
86
-214
-284
4
-176
-429
-108
-66
-413
-237
-28
-315
-318
-23
-140
-322
-96
-46
-304
-167
54
-189
-263
44
-67
-327
-30
41
-279
-112
105
-182
-244
16
-109
-311
-77
1
-286
-171
20
-279
-290
33
-131
-344
-27
-12
-389
-234
13
-252
-307
-12
-132
-368
-118
-60
-322
-140
75
-181
-180
160
35
-175
152
239
-85
66
291
23
-14
205
-27
-250
-23
-70
-392
-250
-47
-357
-422
-79
-243
-459
-153
-159
-416
-250
-5
162
830
1778
1940
1128
138
-569
-896
-550
-145
-362
-482
-148
-166
-448
-255
-157
-424
-299
-63
-340
-415
-77
-200
-409
-132
-82
-355
-229
-4
-251
-313
14
-99
-321
-24
36
-284
-95
164
-171
-193
191
58
-121
217
290
-13
181
494
272
217
565
504
306
643
723
400
588
790
460
382
638
447
132
322
351
-41
-18
200
-125
-255
56
-108
-338
-50
-30
-380
-246
8
-269
-338
-35
-174
-411
-149
-77
-379
-235
5
-312
-391
-34
-156
-402
-109
-44
-345
-215
-17
-269
-294
11
-126
-347
-88
-21
-336
-210
62
-223
-318
8
-102
-350
-93
66
-252
-256
13
-210
-279
26
-71
-287
-91
-9
-304
-193
85
-219
-336
32
-22
-229
60
154
-147
-31
244
26
-44
318
210
-71
213
231
-143
-30
120
-242
-354
-27
-123
-378
-95
-22
-384
-238
19
-297
-295
60
-137
-28
1037
1762
1750
1470
507
-696
-823
-245
-183
-336
-104
-70
-357
-215
25
-256
-325
34
-87
-337
-23
43
-296
-157
78
-192
-216
92
-17
-222
-31
57
-198
-70
183
-85
-159
195
102
-174
115
215
-55
158
394
124
128
479
401
242
553
669
381
524
814
573
508
812
698
451
632
684
357
352
529
200
28
281
102
-172
92
103
-265
-103
102
-232
-305
-16
-152
-373
-120
-60
-377
-233
36
-262
-345
-16
-135
-379
-93
-5
-360
-233
55
-216
-272
41
-109
-323
-71
-37
-334
-193
31
-267
-327
-23
-120
-363
-129
7
-294
-164
80
-231
-272
60
-83
-322
-49
51
-271
-172
70
-205
-253
63
-99
-349
-53
56
-219
-52
208
-47
-88
209
109
-26
282
333
25
151
388
39
-130
192
8
-310
-51
9
-300
-202
23
-243
-329
-23
-156
-365
-40
30
-333
32
988
1429
1757
1880
669
-685
-700
-399
-444
-197
29
-233
-300
8
-76
-340
-80
12
-289
-137
98
-178
-265
48
-44
-283
-22
83
-219
-106
148
-107
-146
184
79
-108
124
165
-84
40
312
90
-4
359
281
44
362
490
229
455
752
484
431
776
689
470
753
856
564
648
828
514
391
667
442
107
369
339
-54
35
247
-22
-182
89
-6
-245
-5
79
-223
-150
103
-148
-259
62
-50
-281
-5
58
-251
-135
188
-75
-250
79
-22
-230
47
97
-208
-92
177
-82
-203
119
41
-185
52
108
-182
-59
187
-82
-175
135
9
-248
17
99
-228
-91
185
-64
-137
205
154
-117
129
292
24
121
410
170
23
313
161
-114
131
136
-176
-87
95
-153
-279
47
-10
-357
-134
27
-291
-142
174
-142
97
1166
1664
1750
1608
388
-918
-961
-511
-422
-306
17
-50
-293
-68
46
-245
-144
129
-121
-186
146
-5
-231
57
100
-211
-67
196
-75
-121
223
86
-143
101
208
-42
66
336
111
19
355
304
58
321
465
198
359
671
427
378
729
645
509
790
834
547
670
934
622
500
816
635
306
485
485
73
88
293
-24
-152
103
-47
-295
-60
61
-331
-298
18
-254
-356
-20
-111
-332
-89
3
-283
-175
91
-204
-311
60
-16
-273
-31
56
-254
-143
116
-162
-278
46
-56
-330
-59
19
-324
-219
27
-224
-275
73
-61
-344
-66
36
-294
-180
103
-125
-198
131
78
-166
104
275
-47
42
352
53
-94
181
19
-269
-43
43
-311
-259
-38
-313
-403
-93
-196
-442
-188
-116
-418
-284
-47
-214
209
1295
1747
1583
969
-242
-1109
-946
-368
-334
-452
-170
-227
-453
-192
-159
-457
-303
-48
-333
-404
-47
-205
-458
-166
-67
-367
-239
19
-269
-332
22
-80
-319
-57
87
-195
-122
141
-109
-175
177
127
-111
140
324
32
152
484
246
210
581
525
332
626
763
393
475
805
508
354
623
469
142
273
305
-57
-30
171
-189
-355
-60
-157
-404
-200
-119
-437
-347
-64
-283
-414
-134
-196
-423
-177
-111
-385
-279
-44
-259
-344
-25
-109
-352
-93
15
-320
-252
38
-218
-348
-11
-115
-394
-139
-44
-334
-230
-6
-218
-269
-23
-160
-407
-138
-16
-355
-237
89
-139
-223
158
99
-214
82
266
-68
69
336
19
-77
215
62
-250
-49
24
-335
-276
3
-281
-438
-73
-142
-427
-187
-99
-351
-221
52
88
617
1633
1970
1412
512
-400
-871
-548
-89
-239
-385
-92
-116
-388
-167
6
-305
-275
9
-220
-314
11
-105
-357
-120
12
-312
-252
83
-154
-250
126
16
-266
9
114
-161
-18
241
4
-81
234
157
-46
249
360
75
197
508
365
285
633
682
370
557
769
496
550
794
561
411
661
547
206
342
419
46
15
241
-20
-198
81
27
-274
-95
37
-276
-239
10
-251
-361
4
-95
-396
-117
-2
-379
-290
14
-261
-375
-31
-108
-365
-93
-30
-382
-236
40
-220
-326
-24
-127
-390
-126
-1
-324
-268
43
-208
-403
-59
-128
-408
-116
2
-330
-255
47
-169
-371
-65
-77
-321
-22
138
-182
-66
234
-35
-95
312
259
-42
135
275
-71
-108
141
-118
-277
-3
-98
-388
-200
-60
-384
-335
-51
-306
-419
-69
-89
-378
-30
705
1106
1671
1989
806
-566
-665
-481
-545
-220
-55
-385
-288
-17
-269
-361
-53
-138
-350
-85
-3
-342
-234
63
-143
-263
14
-52
-328
-40
92
-274
-141
134
-145
-202
195
108
-197
79
256
-24
40
334
153
56
387
350
135
447
618
341
474
763
556
473
778
717
432
611
741
426
427
593
227
56
360
181
-148
100
159
-203
-137
105
-154
-271
-3
-99
-334
-159
-73
-355
-284
0
-260
-407
-62
-135
-420
-152
-23
-320
-217
34
-205
-287
29
-60
-329
-89
44
-302
-228
119
-121
-298
12
-60
-343
-75
43
-303
-227
48
-199
-338
-12
-71
-363
-107
39
-317
-238
74
-201
-328
57
-43
-368
-87
64
-209
-73
188
-46
-110
244
180
-58
204
333
10
7
202
-56
-210
51
-54
-356
-145
-38
-389
-365
-59
-279
-425
-71
-147
-388
-111
-32
-35
788
1719
1790
1184
195
-787
-1089
-565
-161
-397
-350
-49
-263
-357
-60
-122
-368
-126
18
-316
-238
46
-197
-295
23
-48
-320
-87
51
-259
-173
128
-88
-201
121
81
-140
109
232
-87
5
367
147
10
387
350
123
414
538
294
443
760
537
391
718
685
440
673
811
454
452
696
368
166
433
259
-87
122
201
-165
-147
99
-173
-295
31
-98
-354
-80
31
-293
-210
53
-240
-359
13
-52
-307
-80
-1
-275
-188
76
-146
-279
35
-54
-329
-71
29
-266
-200
33
-162
-296
-40
-64
-294
-147
-28
-279
-252
17
-172
-325
-25
-89
-413
-167
22
-331
-269
88
-127
-246
96
56
-172
97
243
-41
15
273
42
-153
159
98
-345
-181
-15
-349
-293
-42
-287
-407
-82
-152
-457
-227
-53
-274
-286
12
357
897
1687
1777
634
-484
-875
-1092
-781
-153
-238
-391
-101
-141
-381
-160
-9
-323
-293
-20
-242
-346
-21
-72
-311
-75
51
-232
-163
74
-137
-240
100
73
-217
23
182
-108
-36
253
57
-73
260
246
-8
291
468
174
307
616
437
397
758
667
377
656
819
513
574
828
553
321
559
469
92
227
299
-100
-106
124
-151
-293
17
-98
-408
-145
1
-352
-301
8
-203
-350
-34
-55
-355
-142
13
-286
-243
20
-124
-258
-41
-89
-346
-90
86
-256
-229
52
-175
-323
21
-39
-383
-142
-1
-331
-260
16
-210
-370
-51
-45
-313
-153
-11
-282
-255
85
-147
-386
-35
11
-240
-13
181
-128
-75
276
58
-81
305
239
-118
66
204
-138
-176
86
-181
-379
-54
-123
-436
-223
-54
-382
-333
-16
-262
-373
-44
-12
140
1038
1792
1777
1284
302
-707
-811
-224
-108
-374
-186
-44
-357
-293
29
-173
-339
-42
-21
-312
-137
45
-252
-236
40
-161
-298
32
-5
-299
-57
91
-232
-128
165
-64
-206
101
101
-114
108
269
10
26
371
194
20
433
447
179
450
657
398
458
755
529
391
741
686
343
500
611
232
198
445
106
-143
161
62
-282
-52
89
-259
-224
28
-199
-339
-46
-107
-403
-205
-48
-305
-239
-2
-242
-383
-87
-96
-363
-162
25
-285
-317
12
-112
-340
-68
-73
-364
-159
-28
-304
-235
14
-222
-315
-14
-129
-398
-157
-4
-306
-278
-5
-222
-395
-75
-52
-369
-214
-3
-286
-247
108
-96
-244
123
112
-136
91
249
-27
7
290
49
-194
64
-2
-349
-162
-55
-416
-378
-88
-294
-471
-204
-216
-458
-278
-131
-378
-317
301
822
1267
1932
1595
69
-685
-589
-652
-419
-35
-267
-444
-80
-66
-379
-172
19
-299
-253
69
-155
-326
7
-39
-362
-111
83
-277
-257
92
-91
-247
40
32
-216
-36
115
-166
-81
239
24
-104
272
251
-46
253
448
159
253
586
418
313
684
648
393
648
787
484
490
758
512
269
553
484
105
200
288
-76
-99
195
-104
-313
49
-6
-333
-138
5
-325
-265
33
-191
-340
-50
-64
-354
-152
40
-318
-285
91
-132
-336
-5
1
-309
-133
38
-239
-232
21
-142
-288
-34
-69
-334
-126
-7
-323
-214
27
-267
-401
-54
-58
-379
-175
6
-312
-301
8
-184
-353
-57
-98
-380
-146
57
-285
-217
159
-63
-213
139
134
-128
102
278
8
18
280
77
-134
83
-18
-349
-178
-39
-336
-340
-103
-243
-387
-195
-165
-399
-266
-39
-369
-287
607
1170
1537
1968
1107
-515
-891
-552
-556
-359
-28
-281
-467
-109
-123
-406
-186
-8
-306
-347
-49
-203
-387
-67
-50
-351
-159
35
-250
-235
69
-101
-274
69
57
-294
-54
162
-135
-78
247
55
-107
237
274
11
200
455
230
212
592
455
277
643
626
356
614
744
393
428
723
468
221
451
368
-26
107
259
-163
-236
80
-139
-340
-56
-136
-401
-177
-49
-369
-370
-70
-248
-408
-116
-147
-441
-247
-45
-326
-325
13
-149
-372
-75
-78
-346
-158
-40
-320
-279
8
-197
-377
-58
-84
-431
-218
-4
-330
-331
-4
-191
-402
-97
-66
-367
-213
-31
-313
-318
-32
-192
-359
-95
-76
-320
-194
-43
-292
-295
9
-151
-339
9
67
-215
-12
177
-88
-72
226
120
-59
172
141
-204
-43
133
-242
-290
0
-228
-427
-130
-123
-411
-250
-97
-412
-375
3
-234
-440
340
1166
1551
2043
1616
-64
-915
-606
-507
-474
-103
-106
-435
-277
-53
-319
-330
-32
-209
-413
-109
-38
-329
-159
35
-281
-275
47
-129
-321
0
29
-294
-104
139
-155
-181
137
-30
-162
187
152
-130
106
320
82
127
444
306
192
572
627
311
487
743
496
463
752
620
430
657
609
262
369
473
121
41
253
30
-207
74
58
-301
-137
31
-294
-284
35
-185
-380
-72
-100
-379
-178
-4
-298
-285
48
-126
-338
-49
-24
-274
-123
18
-223
-206
61
-104
-289
-27
7
-319
-209
48
-220
-275
29
-141
-356
-85
-23
-304
-156
40
-257
-247
96
-104
-338
-53
-42
-335
-137
94
-213
-197
174
-4
-224
98
136
-129
116
333
77
57
325
139
-130
134
128
-253
-131
50
-245
-266
4
-182
-352
-62
-75
-375
-186
75
-194
-221
462
1032
1513
2239
1841
132
-725
-636
-705
-397
63
-146
-389
-68
7
-344
-193
65
-236
-253
95
-76
-296
15
37
-263
-71
114
-156
-138
191
17
-217
103
152
-163
16
269
-3
-63
248
148
-20
300
370
79
271
522
263
300
731
577
315
642
718
443
633
860
547
489
784
609
339
513
466
91
168
334
-26
-98
206
-54
-309
-10
-25
-336
-174
35
-221
-248
49
-114
-341
-43
32
-261
-119
80
-209
-216
96
-74
-277
20
70
-273
-75
192
-169
-205
121
-41
-235
39
75
-246
-106
119
-152
-192
99
-43
-234
30
27
-278
-114
73
-210
-190
156
34
-178
103
173
-139
50
331
45
7
361
216
-85
153
173
-199
-73
93
-240
-293
-14
-155
-381
-94
-31
-409
-265
-2
-277
-311
14
279
856
1807
2222
1441
274
-465
-977
-819
-138
-142
-412
-163
-87
-380
-251
-19
-319
-368
-20
-176
-345
-14
-6
-339
-183
81
-175
-232
51
-73
-264
-8
66
-226
-81
154
-137
-124
223
46
-133
212
259
2
197
429
248
266
572
481
334
648
698
409
620
884
604
562
853
645
409
626
527
163
250
409
61
-131
176
25
-336
-71
-25
-378
-230
-21
-317
-373
-28
-145
-384
-76
-34
-369
-189
64
-175
-252
9
-60
-257
-3
54
-291
-111
130
-205
-261
72
-50
-304
-19
47
-291
-184
21
-235
-287
42
-118
-410
-83
-33
-399
-195
29
-295
-323
-11
-159
-345
-12
-14
-398
-216
74
-187
-196
158
11
-197
97
169
-102
75
318
49
-12
258
51
-226
3
-2
-348
-242
-33
-315
-377
-57
-218
-445
-146
-117
-382
-200
-5
-20
640
1744
2172
1851
1071
-72
-822
-516
-75
-305
-359
-57
-198
-424
-160
-71
-380
-248
4
-271
-333
-26
-157
-372
-80
-4
-289
-128
41
-268
-229
61
-100
-233
52
61
-221
-31
184
-83
-92
232
132
-62
242
345
70
224
478
284
302
653
521
297
632
704
401
602
824
497
408
702
496
182
385
366
9
75
249
-68
-154
128
-61
-301
-24
19
-299
-152
57
-231
-259
-21
-222
-396
-94
-25
-317
-204
51
-225
-306
26
-132
-354
-65
-16
-281
-150
62
-202
-294
31
-95
-351
-67
-7
-340
-183
102
-179
-261
71
-81
-349
-27
57
-284
-119
98
-210
-218
94
-41
-258
-23
47
-255
-117
107
-205
-227
131
5
-173
171
237
-112
50
353
87
119
457
200
-30
237
239
-104
-34
167
-115
-199
66
-93
-301
-48
-3
-308
-168
76
-198
-213
86
72
424
1524
2258
2139
1485
347
-638
-638
-76
-64
-287
-19
22
-329
-180
64
-208
-242
69
-102
-319
21
72
-231
-90
118
-130
-201
125
44
-225
14
103
-205
-51
214
-54
-96
232
110
-101
202
262
-11
163
402
208
211
553
465
265
581
707
435
601
846
571
560
871
687
441
675
640
270
372
504
127
33
286
82
-180
44
122
-224
-204
50
-203
-308
-4
-108
-357
-92
-27
-356
-202
31
-298
-374
20
-85
-344
-73
-18
-283
-94
69
-211
-221
42
-63
-268
-28
47
-253
-126
94
-202
-264
63
-65
-293
-55
-16
-314
-180
84
-164
-256
13
-105
-310
-45
0
-286
-130
70
-228
-303
26
-110
-373
-81
-5
-307
-141
87
-237
-256
122
-1
-201
89
225
-87
50
416
86
-15
389
233
-72
191
238
-144
-62
141
-184
-253
44
-117
-344
-97
-6
-282
-218
-33
-255
-227
63
77
529
1643
2271
2042
1271
98
-768
-658
-75
-59
-286
-73
-12
-281
-170
40
-211
-250
73
-68
-328
-55
24
-278
-126
126
-162
-208
147
-16
-249
51
114
-181
-51
189
-59
-83
235
100
-134
163
308
15
164
434
164
142
537
450
231
605
750
426
585
892
639
522
863
762
414
617
670
264
290
470
127
-12
234
54
-198
70
91
-261
-136
96
-154
-247
38
-56
-318
-63
31
-308
-189
56
-185
-239
53
-51
-300
-18
101
-229
-96
180
-77
-178
133
67
-245
-24
105
-221
-128
130
-124
-169
148
-39
-276
10
75
-232
-131
140
-113
-237
99
-28
-310
4
80
-257
-102
154
-102
-153
198
93
-182
104
269
20
142
406
142
-2
302
165
-129
104
137
-204
-170
23
-206
-287
0
-141
-373
-100
-30
-303
-185
61
-219
-162
764
1377
1695
2128
1407
-183
-752
-566
-554
-375
-6
-104
-359
-61
40
-296
-167
95
-129
-228
89
13
-256
25
88
-230
-67
173
-76
-111
194
57
-183
99
213
-91
22
258
21
-23
295
239
-8
248
412
101
260
575
318
323
703
597
375
679
805
494
623
919
648
539
816
605
295
525
508
79
141
368
49
-145
91
-4
-256
-74
-5
-303
-224
-3
-292
-371
-57
-177
-376
-95
-37
-337
-185
64
-221
-270
69
-72
-286
14
52
-283
-145
137
-129
-235
97
-11
-317
-66
26
-316
-190
56
-233
-342
-23
-89
-349
-119
-28
-322
-191
32
-249
-324
3
-111
-369
-119
-45
-343
-228
49
-183
-266
55
-10
-216
53
192
-114
3
317
45
-88
172
5
-227
6
-19
-309
-203
-37
-290
-378
-63
-180
-444
-124
-26
-409
-262
22
-272
-23
1075
1697
1907
1942
857
-554
-743
-318
-380
-379
-30
-192
-457
-140
-60
-421
-293
8
-248
-352
-37
-130
-359
-69
-10
-354
-224
37
-230
-296
37
-69
-268
-10
60
-253
-148
142
-110
-169
194
105
-145
108
245
-44
104
454
204
110
493
476
286
587
678
359
490
752
507
406
679
469
137
348
370
18
14
174
-136
-271
30
-108
-375
-131
-55
-389
-329
-96
-343
-428
-132
-261
-517
-251
-135
-437
-351
-94
-328
-415
-75
-154
-457
-190
-54
-363
-262
-53
-301
-373
-81
-172
-400
-154
-67
-363
-257
0
-248
-366
-52
-148
-418
-168
-70
-366
-273
-20
-236
-389
-96
-151
-449
-187
-60
-348
-249
-24
-268
-405
-117
-140
-342
-77
50
-237
-103
150
-79
-108
223
110
-151
121
209
-178
-149
103
-201
-388
-82
-183
-467
-219
-132
-439
-318
-91
-364
-468
-108
-153
-391
227
1113
1552
2046
2010
562
-639
-501
-399
-524
-233
-132
-425
-345
-81
-320
-419
-85
-185
-446
-193
-81
-372
-278
-13
-272
-368
-33
-161
-396
-97
-1
-313
-207
67
-183
-284
20
-55
-260
29
135
-156
4
237
-39
-39
333
253
60
357
507
259
398
681
456
414
724
623
421
625
626
253
327
558
183
-36
248
106
-197
22
72
-277
-221
63
-200
-376
-28
-119
-417
-161
-32
-383
-346
-67
-329
-438
-102
-179
-407
-186
-105
-368
-270
-23
-287
-391
-38
-138
-426
-135
20
-322
-261
1
-240
-326
-30
-134
-383
-132
-20
-357
-261
61
-214
-352
-8
-113
-396
-119
2
-352
-247
36
-238
-334
-19
-112
-391
-105
33
-344
-258
40
-217
-365
-17
-60
-303
-10
148
-132
-45
270
62
-23
351
306
-19
139
196
-176
-59
176
-142
-259
2
-128
-393
-133
-24
-338
-242
6
-251
-318
39
-74
-142
787
1717
1969
2115
1480
-106
-769
-296
-185
-376
-118
6
-321
-254
24
-216
-309
-12
-138
-380
-108
26
-305
-204
81
-217
-308
53
-27
-311
-30
119
-206
-92
165
-77
-165
153
90
-147
137
281
-51
48
376
137
78
400
335
176
474
640
358
476
804
571
499
833
704
434
675
726
360
424
596
239
63
318
171
-135
64
145
-188
-146
85
-191
-308
0
-124
-381
-110
-13
-309
-247
-6
-233
-344
-16
-123
-363
-61
12
-310
-174
78
-168
-253
51
-48
-308
-20
109
-235
-157
105
-159
-254
63
-32
-318
-81
59
-272
-183
67
-198
-258
40
-82
-335
-81
11
-348
-219
96
-217
-360
12
-12
-284
-83
47
-212
-63
251
-37
-114
284
227
7
199
254
-74
-41
201
-58
-205
54
-69
-356
-114
13
-324
-248
47
-220
-362
-31
-67
-342
-94
424
889
1680
2290
1638
286
-381
-672
-791
-233
30
-325
-252
64
-169
-327
9
-51
-319
-48
48
-301
-210
73
-175
-243
99
-27
-301
-43
100
-226
-138
191
-54
-192
180
130
-147
140
288
-27
64
360
158
73
411
359
121
466
649
330
470
802
576
443
770
717
461
724
793
427
476
667
349
123
347
222
-109
72
175
-121
-143
57
-150
-296
-20
-101
-360
-106
31
-265
-200
64
-171
-319
4
-17
-286
-32
140
-217
-167
160
-76
-176
132
10
-215
36
122
-177
-128
143
-64
-213
117
27
-293
-28
102
-236
-149
156
-78
-218
71
7
-272
-42
116
-244
-207
82
-172
-274
62
3
-201
59
199
-78
-26
285
106
-43
275
222
-91
114
220
-135
-87
146
-151
-306
-3
-70
-328
-118
20
-259
-291
-47
-221
-284
33
-64
88
1151
1963
1993
1654
704
-503
-834
-324
-150
-325
-114
-19
-322
-248
47
-201
-348
14
-47
-341
-100
81
-250
-238
95
-140
-259
136
51
-233
30
139
-181
-90
223
-11
-146
209
155
-149
125
304
-12
80
466
298
117
477
485
254
565
745
450
553
873
628
486
874
772
350
551
625
224
245
445
115
-83
192
85
-248
-71
48
-308
-279
47
-231
-413
-81
-165
-442
-213
-82
-360
-306
-75
-286
-378
-30
-89
-423
-188
7
-287
-239
25
-189
-277
17
-63
-350
-126
39
-299
-213
76
-234
-363
-41
-99
-394
-189
-24
-328
-268
14
-210
-380
-69
-103
-405
-157
6
-341
-273
72
-211
-425
-76
-129
-402
-171
-58
-365
-317
-4
-211
-374
-20
-46
-307
-40
125
-161
-73
205
-23
-88
254
169
-132
80
229
-109
-130
104
-147
-345
-47
-108
-409
-176
-41
-370
-302
38
-203
-380
12
-3
-171
607
1577
1870
2100
1761
202
-726
-299
-134
-424
-203
1
-358
-330
-8
-257
-416
-91
-119
-415
-223
-61
-351
-297
-1
-237
-375
-13
-77
-399
-133
60
-293
-260
121
-91
-287
78
25
-277
1
191
-129
-86
268
82
-58
292
302
114
363
538
308
385
738
560
406
717
688
406
603
768
410
313
525
275
26
275
197
-149
42
188
-158
-166
121
-122
-333
-47
-77
-369
-141
30
-338
-306
-6
-236
-403
-89
-68
-381
-188
-21
-350
-265
25
-211
-354
-39
-47
-356
-146
54
-279
-237
103
-133
-359
-36
-11
-329
-129
71
-232
-202
53
-160
-288
34
18
-318
-111
115
-233
-248
60
-166
-300
50
-28
-323
-62
105
-214
-203
108
-85
-253
119
124
-183
54
257
-55
-22
324
147
-11
276
209
-72
103
218
-135
-169
93
-133
-292
-7
-92
-395
-135
34
-332
-287
24
-151
-321
47
583
1135
1976
2410
1560
219
-379
-546
-500
-52
-31
-355
-188
-30
-329
-286
60
-171
-365
-17
-41
-367
-148
74
-251
-265
81
-90
-303
13
57
-252
-60
145
-144
-115
175
1
-134
169
127
-142
135
327
20
52
396
295
209
524
469
207
509
727
421
524
880
644
488
794
734
386
527
639
234
180
435
141
-100
184
86
-242
-31
100
-222
-237
-5
-225
-374
-61
-124
-442
-206
-68
-411
-334
11
-205
-431
-126
-98
-339
-120
49
-257
-281
22
-122
-327
-53
-45
-372
-174
35
-272
-273
23
-166
-360
-46
-76
-390
-146
37
-306
-295
38
-132
-357
-65
-25
-343
-172
25
-270
-259
52
-170
-365
-37
-46
-334
-147
25
-275
-277
51
-108
-236
139
135
-176
77
303
-22
2
327
119
-99
210
167
-215
-51
98
-278
-303
13
-155
-347
-105
-113
-390
-189
15
-263
-229
22
26
544
1641
2175
1839
1028
-66
-864
-736
-144
-153
-376
-101
-94
-368
-189
-17
-275
-253
39
-126
-306
-30
1
-297
-148
61
-194
-161
140
-76
-266
48
103
-194
-43
168
-122
-103
237
56
-126
226
265
-32
179
391
102
156
519
339
157
568
615
306
573
798
490
511
852
634
385
660
667
273
306
476
116
28
289
34
-226
21
32
-281
-148
43
-274
-311
19
-150
-397
-101
-24
-340
-216
23
-217
-264
69
-60
-331
-35
33
-262
-92
86
-192
-210
134
-21
-307
-17
31
-260
-60
125
-211
-253
71
-98
-278
0
-4
-293
-141
95
-219
-276
54
-129
-320
0
6
-321
-142
67
-247
-244
98
-46
-210
120
149
-189
3
310
30
-12
352
155
-117
170
145
-221
-55
148
-217
-280
42
-123
-359
-56
-11
-366
-158
50
-274
-180
79
-31
380
1402
1971
1797
1209
218
-779
-892
-279
-166
-342
-44
-50
-397
-165
78
-262
-286
45
-121
-336
-59
-40
-318
-133
83
-192
-246
61
-68
-281
-6
52
-227
-49
169
-101
-94
195
21
-141
204
268
-43
151
403
124
161
560
466
262
548
717
453
535
815
546
480
828
687
436
658
603
200
285
415
69
-35
196
5
-284
13
47
-411
-267
2
-319
-351
-11
-229
-483
-178
-127
-402
-240
-7
-275
-343
-23
-131
-349
-83
-5
-296
-190
42
-234
-288
40
-123
-353
-46
-40
-385
-200
22
-288
-308
26
-175
-379
-54
-43
-353
-180
5
-295
-325
-12
-162
-381
-90
-42
-353
-247
-22
-267
-335
-3
-84
-322
7
135
-212
-58
202
-71
-70
265
86
-139
148
127
-223
-122
29
-255
-346
-84
-239
-462
-156
-104
-462
-297
-41
-380
-383
-8
-207
-91
950
1707
1864
1819
1004
-406
-868
-353
-254
-458
-182
-109
-471
-323
-49
-324
-402
-103
-197
-441
-175
-67
-379
-238
-11
-316
-350
45
-84
-396
-130
-46
-346
-186
41
-205
-241
19
-94
-259
34
119
-185
-18
298
58
34
359
231
60
366
482
275
469
719
456
401
778
632
307
580
610
201
242
445
99
-110
164
-19
-327
-42
-4
-367
-222
14
-307
-417
-69
-171
-464
-189
-81
-426
-326
-51
-340
-461
-114
-190
-406
-136
-84
-407
-280
-8
-247
-313
3
-135
-352
-63
-46
-396
-262
-1
-287
-370
-55
-186
-406
-126
-59
-375
-235
2
-306
-378
-5
-126
-390
-87
-18
-386
-272
-7
-284
-300
35
-165
-411
-141
-10
-242
-119
184
-55
-184
157
110
-87
179
238
-52
77
273
-41
-162
70
-138
-415
-142
-66
-389
-280
-30
-324
-426
-49
-138
-440
-128
-26
-335
283
1332
1685
1929
1905
610
-719
-598
-221
-421
-310
-28
-280
-387
-71
-188
-431
-128
-25
-362
-280
-1
-252
-360
-13
-84
-271
-62
-14
-263
-197
56
-171
-261
90
-14
-277
2
93
-188
-21
237
-26
-106
249
188
-17
289
442
139
227
558
337
323
718
603
392
640
749
454
480
709
416
244
510
313
-61
135
181
-160
-101
107
-160
-267
43
-100
-406
-138
-13
-382
-327
13
-264
-439
-103
-221
-457
-166
-73
-374
-301
-43
-269
-391
-84
-163
-407
-163
-27
-324
-244
19
-242
-334
1
-62
-348
-100
4
-357
-241
46
-217
-348
-3
-49
-387
-131
48
-285
-197
40
-249
-370
-15
-52
-315
-83
-15
-342
-236
13
-256
-356
-11
-55
-268
2
128
-167
-98
197
5
-80
274
145
-192
31
128
-193
-187
20
-240
-406
-96
-170
-460
-211
-86
-401
-283
-36
-311
-379
-80
-72
188
1231
2047
1967
1320
299
-693
-862
-276
-115
-432
-266
-93
-385
-307
-16
-267
-370
-2
-109
-392
-114
-20
-377
-286
26
-209
-350
-1
-37
-333
-81
83
-223
-177
120
-52
-206
101
73
-187
112
235
-104
29
334
132
41
394
382
108
411
641
360
455
759
549
463
753
640
348
537
627
235
228
457
122
-96
203
108
-251
-69
62
-284
-252
27
-228
-371
-50
-115
-402
-179
-39
-396
-306
51
-231
-377
-18
-94
-366
-113
-9
-340
-254
59
-159
-294
23
-55
-374
-169
32
-261
-289
2
-174
-340
-49
-90
-370
-172
-20
-308
-230
63
-230
-384
-25
-73
-350
-116
39
-252
-164
133
-92
-178
164
101
-138
124
288
-32
-27
242
49
-140
69
-1
-306
-83
32
-362
-312
-44
-265
-384
-111
-176
-442
-218
10
-288
-303
395
966
1428
2085
1727
230
-574
-655
-802
-420
53
-237
-454
-116
-150
-451
-188
-13
-388
-326
-5
-248
-375
-47
-35
-298
-125
46
-271
-239
94
-110
-280
68
41
-259
-53
116
-123
-112
190
50
-113
254
288
37
298
475
236
341
636
485
354
667
722
451
683
897
564
582
849
556
321
589
479
70
242
336
-25
-14
172
-57
-244
3
-24
-344
-154
8
-324
-295
11
-174
-330
-4
-4
-342
-90
121
-268
-240
118
-68
-240
59
16
-276
-39
127
-213
-193
111
-68
-247
5
58
-202
-144
49
-227
-286
72
-86
-309
-24
-2
-302
-145
28
-267
-247
25
-150
-250
58
46
-234
-11
203
-87
-31
286
99
-76
201
180
-172
-38
122
-197
-232
-14
-225
-387
-72
-118
-448
-202
-61
-380
-321
-25
-198
-410
32
624
1061
1818
2190
1199
-64
-485
-722
-671
-137
-93
-376
-220
-92
-359
-283
21
-235
-402
-52
-63
-362
-177
-6
-294
-240
48
-156
-338
-66
-10
-284
-121
96
-189
-221
89
-38
-200
133
160
-173
21
286
60
54
375
273
116
436
523
278
446
683
457
484
782
578
370
659
618
252
395
516
132
41
274
48
-186
29
-4
-297
-187
-52
-367
-386
-62
-270
-446
-93
-140
-452
-247
-73
-323
-332
-27
-187
-407
-86
-103
-384
-157
2
-298
-293
22
-147
-327
-95
-108
-307
-155
44
-215
-278
53
-176
-403
-62
-89
-396
-207
38
-243
-291
4
-164
-343
-101
-69
-322
-190
36
-227
-311
-53
-224
-408
-19
68
-284
-73
148
-168
-112
209
69
-106
114
117
-231
-114
135
-192
-279
4
-218
-446
-162
-150
-434
-265
-96
-434
-505
-136
-177
-418
-16
600
1042
1833
2271
1303
-12
-449
-535
-516
-153
-155
-511
-304
-69
-368
-394
-89
-254
-481
-178
-140
-433
-259
-78
-340
-343
-85
-228
-376
-129
-119
-339
-113
32
-305
-277
41
-68
-211
68
132
-188
-29
252
-27
-29
319
197
74
377
425
232
408
628
500
478
708
591
405
662
669
352
406
525
229
109
279
75
-136
125
102
-259
-80
109
-248
-332
-40
-165
-395
-118
-60
-379
-232
-23
-313
-351
-44
-168
-390
-95
-14
-341
-190
50
-244
-297
55
-94
-372
-30
47
-298
-132
84
-204
-252
43
-92
-292
-36
-10
-298
-130
69
-254
-303
34
-92
-322
-26
35
-315
-146
108
-217
-248
59
-163
-355
-1
-19
-358
-129
85
-229
-242
146
18
-253
71
212
-69
22
292
94
48
357
152
-111
184
211
-149
-11
186
-212
-296
74
-75
-328
-73
-29
-334
-220
54
-152
-271
69
379
935
1869
2284
1659
589
-228
-691
-460
61
-114
-380
-94
-76
-368
-223
25
-233
-296
70
-102
-372
-102
-41
-282
-137
50
-246
-268
77
-74
-237
41
67
-233
-150
110
-100
-172
167
78
-168
105
214
-65
72
338
164
160
450
350
199
530
626
335
495
832
602
449
760
626
326
547
548
184
264
417
22
-88
212
-6
-255
67
52
-282
-105
19
-270
-294
7
-134
-426
-123
-40
-388
-260
12
-257
-353
-28
-138
-376
-113
-4
-314
-185
57
-256
-268
54
-115
-313
-67
19
-272
-227
49
-185
-304
25
-95
-334
-52
24
-300
-190
92
-184
-320
42
-82
-448
-127
86
-277
-231
60
-218
-336
56
-44
-338
-61
18
-296
-129
161
-70
-120
184
66
-138
203
294
-18
110
289
19
-69
137
37
-182
-43
3
-289
-221
39
-247
-354
18
-133
-410
-108
43
-235
-185
180
459
1235
2206
2152
1139
102
-496
-745
-383
60
-214
-309
35
-104
-348
-59
-20
-318
-153
62
-205
-262
83
-47
-299
-3
89
-238
-86
201
-98
-142
180
35
-196
74
238
-80
6
302
61
22
342
256
36
347
485
209
385
644
432
420
765
694
446
700
847
510
607
913
597
429
703
512
170
411
439
12
97
276
-90
-187
153
46
-270
-41
58
-267
-161
69
-185
-219
90
-53
-291
14
112
-252
-125
158
-119
-188
122
9
-216
72
193
-164
-96
172
-91
-193
107
-2
-230
63
117
-223
-96
160
-69
-190
64
-32
-268
20
158
-179
-115
147
-111
-243
51
30
-178
38
175
-114
10
316
-19
-85
314
217
32
263
334
-18
27
261
-85
-213
133
19
-302
-85
40
-281
-204
88
-175
-330
5
5
-278
-10
579
994
1665
2227
1524
264
-285
-578
-632
-87
120
-257
-193
127
-183
-310
103
-1
-331
-76
93
-228
-128
126
-173
-187
144
29
-194
-11
111
-130
-42
260
26
-164
199
169
-168
113
293
-32
72
377
148
54
411
385
107
416
646
312
446
817
546
461
854
755
472
681
740
400
414
608
257
15
308
179
-177
26
102
-232
-192
56
-153
-347
-93
-140
-409
-159
-39
-394
-296
22
-287
-401
-21
-102
-296
-90
-48
-286
-187
83
-144
-283
-10
-80
-280
-46
12
-303
-232
54
-172
-356
-34
-61
-358
-164
-5
-316
-272
-3
-241
-350
-49
-106
-376
-164
-32
-357
-290
17
-224
-342
-5
-37
-307
-91
112
-191
-142
209
-14
-159
197
112
-235
7
132
-269
-228
72
-213
-417
-73
-119
-446
-186
-49
-419
-351
-71
-310
-390
-68
-178
-240
678
1617
1838
1847
1233
-147
-852
-451
-279
-434
-147
-45
-405
-342
-85
-333
-408
-70
-133
-443
-216
4
-361
-361
5
-209
-384
-46
-71
-370
-135
24
-312
-225
71
-181
-285
65
8
-260
5
144
-129
-50
262
117
-54
312
374
85
335
565
312
382
685
528
385
648
654
371
490
676
324
183
424
139
-80
175
34
-278
-97
1
-307
-276
-29
-217
-395
-151
-124
-409
-230
-99
-420
-301
-55
-339
-474
-154
-159
-448
-248
-69
-345
-308
-50
-269
-357
-8
-116
-396
-110
25
-301
-276
20
-197
-410
-32
-62
-440
-204
-12
-305
-253
61
-144
-350
-31
-35
-374
-182
21
-235
-202
52
-214
-411
-70
-51
-338
-157
58
-217
-184
170
-25
-219
161
167
-187
116
293
-110
-42
280
-10
-248
94
-29
-376
-122
-35
-394
-326
-28
-294
-423
-76
-171
-482
-180
-15
-232
334
1421
1859
1861
1579
332
-833
-604
-148
-358
-329
-61
-286
-466
-164
-120
-391
-268
-106
-389
-386
-54
-186
-376
-142
-143
-381
-189
-19
-303
-314
-7
-155
-339
-16
-2
-302
-106
44
-220
-180
140
-10
-190
160
160
-103
153
341
103
235
588
365
222
579
559
294
565
729
361
324
602
416
147
339
260
-105
34
160
-139
-227
-47
-168
-293
-39
-104
-420
-233
-74
-379
-345
-13
-243
-443
-143
-146
-344
-163
-27
-313
-329
-33
-183
-371
-94
-48
-376
-181
43
-333
-338
30
-145
-373
-48
-39
-341
-129
18
-335
-303
46
-165
-313
49
-8
-357
-189
-34
-294
-281
3
-169
-346
-26
-4
-195
6
88
-158
-96
218
99
-73
240
251
-79
105
235
-130
-180
47
-149
-363
-96
-89
-384
-203
-77
-399
-386
-99
-338
-442
-26
-112
-25
1071
1866
1894
1620
543
-657
-831
-448
-147
-279
-228
22
-288
-408
-5
-192
-519
-84
-93
-546
-336
14
-286
-380
-5
-231
-477
-64
-63
-363
-14
305
-39
-289
25
250
40
4
179
49
151
327
-38
20
396
115
-150
258
369
-61
307
562
-137
139
694
220
-24
366
480
220
572
431
-293
124
518
28
-464
-175
7
-471
-235
-56
-338
-480
-468
-317
-452
-247
-296
-863
-281
4
-828
-539
-114
-446
-621
-482
-93
-405
-374
-87
-636
-523
101
-119
-585
-271
-51
-154
-315
-375
-256
-446
-287
-181
-432
-269
-70
-247
-381
-46
-282
-267
193
-257
-318
148
96
-349
-44
393
-39
-118
409
312
-69
222
398
34
87
348
41
-207
85
48
-430
-129
9
-516
-185
42
-586
-484
13
-187
-472
-192
521
970
1503
1951
1167
-316
-960
-719
-659
-535
-421
-592
-459
-376
-379
-431
-468
-348
-569
-473
-322
-714
-506
-211
-607
-685
-224
-177
-526
-352
-322
-536
-339
-228
-559
-457
16
-256
-514
-196
-94
-299
-167
24
-140
-227
5
67
-89
160
312
82
240
534
310
263
544
418
277
577
542
168
336
521
140
50
284
43
-238
24
29
-375
-188
30
-325
-343
-59
-231
-427
-117
-41
-390
-225
35
-303
-352
7
-121
-349
-27
56
-282
-164
104
-119
-247
32
-60
-259
52
93
-229
-72
151
-146
-187
124
-42
-253
27
90
-197
-10
261
-16
-15
357
195
-37
331
368
42
253
456
164
91
327
129
-131
120
117
-224
-52
130
-132
-145
99
-54
-255
40
125
-146
-51
310
617
1310
2261
2226
1010
-22
-467
-686
-226
190
-140
-172
127
-23
-258
46
160
-244
-78
232
-121
-224
124
-2
-256
9
98
-195
-39
270
-58
-184
204
110
-164
124
248
-39
136
371
121
129
398
305
159
450
637
323
367
662
497
502
792
686
507
795
856
583
777
930
530
397
711
514
124
378
396
-41
35
202
-36
-51
159
16
-119
177
161
-190
-81
123
-68
-94
175
-7
-212
105
147
-106
21
257
-5
-97
245
164
-92
57
144
-48
110
281
-41
-174
97
22
-190
114
148
-221
-55
256
30
-43
308
139
-121
284
395
54
198
478
236
114
356
228
-95
111
193
-209
-91
165
-168
-251
58
-92
-306
-25
14
-310
-127
97
-33
485
1472
1920
1764
1186
37
-886
-743
-236
-226
-289
23
-29
-324
-80
83
-299
-185
184
-162
-215
94
-84
-244
25
139
-198
-53
236
-62
22
286
-79
-96
434
390
11
236
393
-44
94
410
234
324
603
384
176
701
729
123
552
1027
396
251
899
870
637
710
718
707
352
606
755
-34
-1
302
-14
78
357
-117
-364
-57
-251
-446
-62
-110
-581
-387
-5
-486
-662
-52
-261
-643
-385
-117
-481
-563
-85
-432
-638
-143
-197
-615
-242
-185
-827
-418
-3
-622
-606
-312
-502
-669
-513
-266
-568
-672
-134
-76
-561
-482
-283
-159
-114
-188
-395
-634
-122
-44
-637
-248
-107
-858
-379
-291
-921
-647
-580
-608
-759
-482
-625
-1245
-507
-304
-821
-622
-287
235
1061
1406
1034
-107
-1164
-1061
-920
-768
-258
-639
-894
-375
-472
-829
-528
-286
-690
-615
-275
-586
-757
-408
-387
-791
-545
-184
-630
-693
-228
-402
-585
-289
-242
-570
-410
-23
-397
-399
-73
-480
-547
22
-33
-341
-14
110
-52
245
492
187
135
490
493
262
409
589
356
423
658
296
119
428
177
-147
160
163
-203
-82
86
-229
-322
-35
-128
-424
-139
40
-343
-249
34
-218
-284
37
-48
-269
9
67
-265
-127
153
-98
-182
172
81
-243
-7
177
-127
-97
167
-51
-124
198
59
-172
112
229
-17
81
374
161
89
461
353
68
325
420
36
100
331
-26
-137
195
30
-303
-31
108
-226
-142
102
-175
-254
195
102
-253
283
1026
1339
1888
2009
706
-428
-357
-301
-417
-67
49
-280
-164
28
-195
-222
-22
-120
-309
-95
-34
-345
-193
108
-197
-336
66
-38
-363
-60
74
-238
-117
133
-123
-178
170
83
-170
106
228
-61
96
388
114
53
432
390
212
515
653
354
481
787
540
458
793
680
404
557
660
375
292
442
173
12
259
116
-216
-19
108
-227
-192
84
-166
-301
26
-91
-366
-31
66
-350
-229
74
-214
-326
21
-36
-281
7
128
-259
-173
158
-133
-245
151
37
-270
-27
99
-211
-147
151
-108
-240
136
134
-120
114
294
-26
45
377
105
-30
342
265
-45
155
241
-155
-142
118
-160
-264
58
-77
-337
-120
-30
-331
-269
15
-187
-300
26
252
635
1603
2218
1666
630
-178
-701
-636
-109
-54
-337
-104
46
-302
-226
81
-151
-268
26
-55
-260
-57
43
-219
-163
81
-158
-256
65
12
-257
-24
121
-186
-103
167
-47
-136
192
151
-137
136
333
10
135
455
210
153
529
489
283
537
728
497
496
766
595
419
649
607
329
448
497
101
66
265
9
-181
53
-10
-308
-77
30
-379
-302
-42
-290
-337
-28
-112
-381
-175
-99
-357
-229
-14
-235
-349
-51
-50
-306
-122
43
-273
-244
67
-202
-316
36
-95
-399
-113
105
-303
-329
28
-218
-366
4
-50
-382
-140
30
-329
-282
59
-136
-244
111
26
-268
-1
176
-60
10
293
73
-99
277
197
-181
13
82
-282
-208
65
-211
-411
-107
-160
-431
-146
-77
-441
-297
13
-265
-310
533
1262
1595
2091
1538
-150
-782
-446
-441
-383
-58
-206
-442
-109
-9
-413
-316
36
-227
-362
-9
-75
-368
-118
65
-250
-214
67
-175
-325
14
-20
-295
-2
134
-230
-137
158
-48
-191
120
181
-72
117
332
92
134
433
299
216
527
501
254
510
733
455
477
765
521
381
669
486
187
357
391
48
18
193
-106
-274
39
-22
-315
-128
-19
-326
-262
-17
-254
-379
-96
-139
-394
-182
-17
-302
-315
-35
-167
-320
-4
-8
-317
-95
46
-245
-183
27
-157
-241
-2
-74
-346
-93
72
-311
-268
58
-183
-337
6
-38
-337
-124
23
-269
-221
90
-133
-345
13
4
-321
-67
97
-261
-204
146
-112
-292
96
109
-177
72
273
-99
-18
376
121
-18
349
287
-51
132
217
-149
-115
67
-203
-323
-16
-42
-395
-207
7
-358
-320
38
-129
-282
-33
217
656
1641
2288
1725
582
-238
-703
-677
-178
-118
-418
-224
-62
-373
-278
12
-266
-412
-45
-27
-352
-181
44
-224
-253
63
-88
-286
40
40
-269
-59
104
-192
-137
212
8
-202
125
130
-143
87
306
35
121
431
197
124
502
476
224
517
698
388
475
759
525
379
702
673
335
476
547
146
136
375
61
-150
136
17
-354
-129
36
-321
-298
17
-172
-376
-57
-49
-356
-156
-13
-311
-253
25
-177
-314
27
50
-313
-160
77
-222
-243
65
-114
-306
-3
-10
-319
-124
36
-309
-261
71
-183
-365
-21
-65
-375
-109
58
-298
-294
-8
-200
-384
-84
-79
-402
-232
-35
-356
-319
54
-118
-280
9
23
-204
-16
188
-37
10
266
63
-61
225
130
-211
-23
107
-220
-243
15
-170
-334
-41
-97
-391
-130
36
-330
-241
117
-187
-102
948
1607
1812
1928
966
-524
-884
-522
-461
-391
-63
-92
-386
-200
6
-292
-262
109
-93
-353
7
41
-326
-121
55
-226
-177
48
-119
-216
65
65
-160
13
141
-87
-43
245
81
-91
242
283
-11
233
465
135
192
567
430
324
631
620
385
596
731
469
526
778
569
396
635
528
173
339
453
14
-35
288
10
-228
73
17
-273
-76
88
-213
-229
91
-117
-368
-27
36
-291
-121
140
-159
-215
133
-25
-226
79
50
-185
48
148
-148
-155
81
-20
-134
52
18
-256
-110
112
-178
-215
91
-72
-239
32
-7
-264
-45
93
-252
-206
103
-171
-321
0
-71
-349
-96
120
-166
-120
207
-13
-198
162
210
-39
145
300
13
-25
257
36
-196
86
1
-354
-167
3
-308
-316
-50
-240
-388
-96
-129
-383
-114
-7
-215
397
1400
1786
1804
1252
-17
-908
-731
-301
-402
-340
-35
-253
-427
-79
-105
-398
-172
7
-304
-281
17
-209
-388
-82
-44
-317
-111
117
-216
-232
100
-84
-282
40
89
-212
6
183
-150
-62
243
76
-19
277
275
36
272
485
239
250
620
524
299
607
626
327
547
716
410
389
616
380
110
324
282
-108
22
188
-190
-246
48
-168
-391
-54
-74
-439
-238
-52
-356
-330
-13
-194
-389
-90
-61
-324
-136
56
-251
-262
92
-88
-323
-14
-27
-350
-165
27
-199
-229
-1
-167
-365
-78
-79
-352
-167
-23
-332
-298
15
-209
-385
-89
-98
-418
-218
8
-365
-348
9
-219
-384
-44
-90
-396
-184
12
-274
-256
117
-49
-274
98
162
-142
77
276
-7
0
278
112
-93
142
102
-231
-62
72
-293
-325
-16
-182
-404
-117
-120
-420
-198
-65
-353
-268
57
270
831
1785
2158
1390
314
-397
-751
-482
-32
-178
-385
-121
-130
-457
-245
-26
-341
-318
6
-181
-346
-65
-87
-319
-135
-2
-285
-259
85
-122
-331
10
2
-304
-59
165
-155
-139
214
22
-153
207
231
7
250
385
82
156
532
385
212
554
593
276
494
723
413
413
723
506
232
490
515
149
202
328
-58
-119
188
-62
-319
-29
-44
-353
-173
-45
-368
-351
-72
-241
-408
-99
-72
-426
-241
37
-302
-330
21
-193
-393
-59
-42
-339
-172
0
-283
-259
38
-201
-397
-62
-114
-460
-210
-4
-322
-320
-21
-195
-402
-96
-53
-333
-142
17
-304
-285
10
-219
-384
-26
-71
-394
-190
-47
-333
-282
7
-186
-310
-7
-47
-301
-43
191
-101
-100
221
69
-108
224
220
-182
-44
125
-246
-257
7
-257
-400
-131
-198
-466
-243
-60
-380
-374
-24
-193
-448
85
808
1288
2018
2159
742
-547
-608
-559
-493
-84
-84
-427
-234
-4
-311
-315
23
-176
-361
6
-8
-337
-115
96
-225
-259
69
-102
-335
-7
68
-256
-67
172
-155
-145
195
11
-138
223
224
-51
175
335
83
118
468
372
176
545
641
348
559
808
540
469
786
662
431
743
709
303
447
566
170
91
317
65
-192
73
57
-294
-137
72
-200
-209
52
-116
-359
-92
-7
-341
-168
17
-308
-239
74
-178
-339
13
-9
-295
-121
15
-256
-219
103
-69
-293
-11
-14
-346
-138
40
-256
-201
63
-176
-325
-1
-48
-352
-128
59
-300
-329
39
-123
-370
-49
-20
-371
-176
42
-284
-286
55
-148
-366
-42
-1
-304
-128
23
-330
-280
43
-140
-264
81
61
-255
-8
248
-28
-33
299
114
-100
212
173
-222
-96
97
-243
-324
-7
-200
-395
-125
-189
-442
-239
-61
-369
-318
3
-218
36
1195
1895
1904
1609
493
-757
-843
-302
-278
-414
-132
-146
-491
-305
-62
-364
-375
-49
-240
-460
-138
-52
-393
-276
-12
-305
-318
41
-127
-353
-55
13
-268
-85
135
-136
-184
140
33
-208
176
277
-98
102
363
120
185
576
411
134
480
575
281
508
759
479
440
736
589
357
612
563
129
253
408
11
-99
179
-29
-322
-41
-26
-392
-212
4
-317
-323
7
-172
-383
-97
-97
-392
-184
74
-230
-323
2
-140
-333
-18
4
-304
-147
56
-252
-269
39
-128
-364
-95
-16
-342
-191
42
-270
-318
-1
-158
-382
-96
-84
-387
-214
-1
-308
-374
-30
-197
-422
-92
-68
-391
-188
-14
-355
-303
-3
-189
-324
-34
23
-234
-90
127
-162
-122
293
83
-178
153
207
-135
-35
126
-166
-248
-41
-180
-328
-65
-72
-436
-298
-40
-305
-320
-34
-138
-320
38
697
1183
1832
2164
1115
-211
-590
-790
-767
-134
-23
-374
-151
55
-251
-244
71
-103
-300
6
49
-230
-45
112
-244
-235
131
-20
-233
87
109
-238
-34
241
-56
-103
233
117
-76
191
253
-5
197
447
149
158
567
427
202
596
704
398
617
844
538
532
865
718
437
672
700
318
394
538
165
50
304
71
-236
-1
6
-346
-200
38
-281
-325
-1
-175
-395
-102
-58
-381
-220
-6
-287
-249
36
-188
-344
-37
-17
-265
-144
50
-197
-297
12
-112
-327
-23
-34
-392
-223
-34
-313
-344
-69
-168
-401
-183
-147
-453
-240
-38
-337
-312
-48
-225
-423
-168
-136
-407
-236
-36
-339
-324
86
-52
-296
29
84
-256
-26
242
-57
-80
236
32
-274
-5
26
-331
-207
-56
-389
-417
-102
-261
-469
-190
-161
-463
-291
-4
-349
-311
606
1226
1599
2069
1366
-259
-794
-523
-570
-419
-51
-262
-493
-146
-127
-459
-249
-63
-387
-301
26
-241
-426
-112
-85
-333
-209
-48
-282
-280
83
-98
-332
26
34
-280
-42
189
-132
-105
256
94
-83
233
292
25
226
480
244
250
600
454
256
645
692
358
585
809
453
440
755
452
186
447
330
-36
122
205
-177
-188
114
-107
-354
-50
-70
-423
-250
-41
-356
-379
-33
-239
-439
-52
-61
-442
-207
61
-269
-315
7
-130
-301
-25
-28
-324
-151
19
-268
-264
3
-141
-305
-40
-46
-371
-196
34
-282
-323
31
-143
-406
-71
-5
-373
-179
53
-275
-238
44
-183
-357
-68
-31
-339
-143
64
-270
-229
118
-59
-217
135
94
-210
119
320
-11
32
302
106
-95
115
76
-237
-107
-25
-373
-351
-38
-209
-421
-158
-128
-395
-272
-8
-257
-333
393
1011
1515
2244
1925
413
-493
-534
-550
-370
16
-130
-432
-140
-91
-408
-191
2
-264
-250
-27
-188
-348
-74
-50
-385
-232
35
-272
-312
70
-99
-339
-11
71
-234
-69
197
-93
-117
231
75
-88
260
288
-18
196
422
183
256
581
468
357
635
659
423
610
827
532
484
775
551
304
529
444
87
181
314
-34
-115
146
-72
-309
-78
-25
-322
-228
31
-260
-354
-11
-157
-382
-81
-67
-346
-141
15
-294
-304
37
-71
-308
-63
-20
-326
-138
103
-215
-224
76
-135
-320
-23
-21
-311
-158
13
-274
-272
41
-118
-296
-37
-35
-289
-151
24
-250
-285
49
-127
-345
-34
-15
-318
-129
88
-241
-255
132
16
-174
113
180
-71
139
335
30
40
318
162
-77
126
152
-180
-53
100
-268
-303
-20
-196
-399
-120
-71
-377
-184
17
-259
-214
160
428
1085
2088
2276
1243
96
-409
-699
-499
10
-158
-404
-97
-54
-391
-214
22
-291
-290
6
-188
-322
-21
-10
-285
-146
45
-246
-278
51
-115
-319
1
18
-249
-46
132
-120
-122
187
92
-73
216
263
-2
187
442
186
200
618
475
316
701
697
408
645
888
579
532
821
583
355
628
551
98
191
343
-73
-147
121
-67
-244
25
43
-340
-229
8
-302
-341
-12
-142
-388
-127
-86
-396
-170
58
-260
-244
47
-159
-306
-2
-13
-306
-110
132
-170
-238
89
-64
-319
-28
13
-306
-127
52
-238
-225
24
-177
-337
-31
-13
-354
-174
51
-264
-235
81
-119
-329
-29
-8
-312
-97
133
-135
-128
227
21
-182
238
244
-93
117
318
-2
-62
211
8
-224
32
-31
-383
-178
-17
-357
-315
2
-227
-384
-34
-88
-385
-207
242
677
1364
2171
1913
639
-161
-591
-921
-441
-11
-310
-325
-7
-225
-363
1
-73
-367
-131
38
-257
-233
74
-86
-288
-14
5
-295
-68
155
-174
-143
142
-52
-149
131
161
-106
78
296
12
57
350
151
41
386
423
192
417
675
422
444
793
670
506
772
798
487
649
854
464
359
606
347
42
248
205
-146
20
143
-238
-255
-2
-218
-395
-89
-68
-345
-232
-72
-332
-329
14
-157
-310
20
-23
-352
-163
51
-221
-253
31
-117
-344
-71
-16
-337
-142
67
-338
-338
-1
-223
-385
-76
-74
-354
-186
-5
-302
-325
-24
-198
-358
-44
-90
-393
-180
1
-338
-371
-25
-170
-389
-76
-80
-400
-131
90
-219
-174
128
-70
-170
166
167
-108
72
265
-39
-79
157
-60
-223
3
-99
-373
-185
-65
-405
-348
-19
-191
-364
-91
-70
-430
-50
768
1179
1807
2245
1202
-208
-493
-540
-623
-199
-24
-367
-312
-41
-277
-382
-72
-124
-386
-176
-13
-350
-344
6
-191
-384
-38
-51
-335
-111
12
-271
-215
79
-84
-290
14
74
-220
-34
209
-68
-72
298
153
-20
388
416
70
401
683
277
330
718
501
367
708
691
401
584
685
302
285
501
149
-82
190
103
-247
-122
9
-338
-342
-40
-305
-502
-173
-197
-499
-277
-102
-456
-425
-68
-274
-462
-135
-165
-465
-231
-12
-323
-266
53
-230
-410
-89
-116
-395
-180
-46
-418
-362
-20
-271
-403
-44
-109
-415
-191
-30
-320
-247
4
-264
-386
-76
-95
-360
-244
-53
-314
-348
-47
-248
-400
-86
-110
-369
-163
5
-241
-132
203
-44
-224
180
188
-140
132
333
-55
1
296
-57
-260
64
-3
-346
-156
22
-359
-322
51
-216
-417
-92
-129
-368
-103
48
51
841
1899
2121
1658
850
-231
-806
-343
-24
-373
-305
2
-223
-385
-112
-167
-407
-166
-52
-358
-289
25
-195
-387
-32
-65
-400
-157
43
-262
-242
114
-78
-299
56
64
-258
-27
185
-106
-35
333
96
-89
309
320
37
311
562
287
314
662
518
359
705
728
463
661
772
434
436
681
391
136
379
312
-37
77
159
-167
-149
113
-133
-326
19
-59
-379
-155
-12
-291
-279
-3
-249
-449
-93
-113
-417
-156
5
-370
-336
-15
-177
-332
-23
-29
-387
-166
40
-295
-229
93
-167
-347
14
-45
-398
-154
19
-332
-305
3
-230
-413
-74
-89
-347
-155
-49
-302
-243
30
-234
-400
-9
-76
-421
-154
12
-344
-312
-18
-215
-360
-3
-23
-358
-82
93
-233
-109
213
18
-90
224
184
-100
110
198
-192
-154
111
-178
-379
-55
-63
-386
-228
-43
-338
-320
-15
-289
-403
-84
-125
107
1179
2035
2016
1557
615
-525
-725
-197
-162
-391
-125
8
-356
-311
-7
-252
-349
12
-122
-418
-122
-14
-340
-212
83
-170
-318
33
-9
-317
-65
99
-229
-122
169
-84
-145
177
112
-95
132
264
-22
50
429
256
92
472
505
240
518
729
442
521
811
596
474
782
697
409
619
650
264
262
420
106
-102
136
67
-205
2
65
-312
-213
58
-206
-325
-25
-95
-379
-188
-63
-319
-273
-65
-291
-383
-5
-80
-463
-212
-24
-361
-282
-13
-280
-403
-72
-125
-412
-156
-41
-428
-331
-8
-235
-364
-115
-197
-441
-214
-75
-331
-283
-87
-342
-434
-91
-181
-401
-164
-77
-365
-327
-18
-248
-418
-76
-116
-364
-172
-78
-369
-304
-4
-261
-404
2
-42
-322
-3
179
-201
-111
255
-55
-182
184
47
-209
26
92
-270
-259
-22
-294
-376
-85
-217
-455
-252
-130
-409
-327
-54
-262
-424
-41
469
993
1894
2303
1288
11
-489
-704
-540
-74
-158
-445
-198
-49
-377
-329
-53
-295
-401
-77
-136
-376
-161
-62
-358
-232
38
-244
-333
2
-77
-330
-55
121
-190
-83
184
-113
-180
174
118
-114
147
304
5
134
471
213
145
551
499
303
639
800
485
559
859
636
466
779
718
353
528
566
138
174
377
50
-132
126
-16
-309
-78
-11
-343
-262
-21
-258
-346
-67
-165
-424
-198
-64
-356
-239
37
-274
-378
-11
-88
-343
-116
-30
-334
-207
85
-204
-317
-1
-82
-339
-105
37
-309
-229
105
-201
-355
-8
-116
-366
-52
37
-329
-211
36
-260
-304
66
-102
-386
-89
16
-322
-225
41
-214
-279
4
-63
-215
15
130
-136
-63
282
104
-55
284
189
-123
169
192
-198
-72
135
-153
-298
-35
-147
-371
-65
-14
-370
-251
-20
-289
-268
13
-41
294
1307
2001
1819
1130
162
-751
-921
-358
-151
-370
-121
-26
-363
-191
57
-249
-330
26
-55
-372
-140
-14
-309
-187
90
-164
-267
58
-33
-262
45
154
-166
-48
210
-26
-78
275
170
-111
193
377
87
176
478
283
210
546
512
389
709
783
523
671
943
706
595
886
770
484
672
719
277
228
430
106
-50
193
11
-249
-10
20
-303
-185
10
-247
-352
-86
-149
-382
-129
-43
-320
-195
54
-205
-329
26
-11
-300
-77
51
-249
-178
68
-203
-292
87
-66
-376
-81
5
-349
-237
39
-260
-369
-21
-123
-384
-92
-12
-371
-242
10
-273
-291
-27
-251
-437
-135
-61
-371
-250
-18
-322
-328
72
-74
-275
68
103
-192
10
247
29
-53
173
74
-191
-9
64
-279
-190
31
-340
-421
-70
-223
-464
-223
-158
-397
-308
-45
-226
-362
211
833
1293
2095
2177
849
-249
-474
-648
-469
3
-161
-456
-159
-72
-419
-281
16
-259
-339
-22
-183
-412
-92
-11
-360
-196
80
-222
-277
51
-68
-258
17
43
-237
-20
230
-70
-100
259
138
-112
213
345
47
210
476
255
263
648
571
374
676
755
519
652
873
640
542
819
618
331
559
483
87
208
362
-9
-130
111
-96
-329
-54
-56
-404
-252
2
-345
-397
-37
-233
-437
-144
-136
-451
-269
9
-324
-371
-1
-209
-453
-115
-85
-410
-239
-28
-307
-357
-39
-189
-380
-65
-66
-364
-211
-17
-296
-351
-17
-170
-408
-101
-64
-380
-182
42
-347
-376
30
-146
-408
-108
-70
-376
-207
-1
-273
-294
-15
-161
-306
-34
-17
-305
-67
257
-117
-183
223
91
-71
290
296
-86
52
261
-53
-118
172
-25
-288
-62
-46
-328
-202
-22
-282
-303
4
-125
-359
-40
22
-218
490
1539
1899
2115
1818
354
-665
-368
-155
-357
-172
-16
-306
-315
-4
-141
-401
-139
-43
-335
-178
8
-299
-315
7
-121
-315
16
57
-253
-81
142
-152
-213
153
36
-172
124
159
-115
76
293
10
48
411
272
115
406
492
287
455
717
506
493
845
722
561
874
850
561
724
835
457
360
614
328
4
294
260
-142
31
207
-208
-231
148
-66
-322
-16
-41
-348
-121
52
-243
-245
13
-171
-318
-7
13
-304
-147
67
-254
-279
52
-107
-300
-13
-13
-332
-112
143
-201
-237
140
-60
-336
-14
41
-270
-103
78
-236
-274
50
-106
-327
-27
-43
-335
-146
26
-231
-250
44
-114
-340
-38
-35
-340
-107
106
-219
-236
85
-102
-248
103
135
-113
53
205
-17
70
420
242
0
311
319
-63
92
276
-99
-159
94
-127
-294
-10
-30
-357
-155
54
-317
-248
156
-122
-363
241
1007
1517
2193
2286
911
-320
-389
-399
-352
39
-31
-376
-178
19
-272
-283
16
-160
-353
-28
-9
-362
-188
27
-278
-255
79
-129
-306
84
92
-262
-60
156
-148
-131
229
3
-223
151
203
-100
99
367
123
133
464
340
207
543
606
360
572
786
541
599
896
707
538
781
758
410
447
541
183
119
346
86
-161
99
114
-239
-136
28
-314
-278
55
-197
-404
-66
-69
-407
-166
12
-343
-281
-13
-254
-353
-46
-119
-366
-123
28
-266
-250
30
-117
-287
-23
-42
-355
-151
99
-231
-277
65
-141
-350
-13
16
-329
-182
46
-249
-266
39
-167
-314
24
-31
-309
-96
33
-279
-229
97
-135
-294
16
-54
-330
-111
86
-222
-241
83
-117
-271
103
73
-216
38
249
-29
30
322
104
-32
280
261
-54
84
165
-174
-171
23
-223
-370
-60
-104
-395
-187
-45
-292
-265
-63
-217
-393
2
616
1108
1926
2418
1458
136
-368
-637
-551
-9
-17
-353
-146
0
-347
-282
6
-208
-340
-97
-126
-364
-155
-4
-323
-303
26
-139
-305
5
-40
-266
7
101
-238
-181
131
-33
-159
119
93
-104
155
314
69
136
437
287
201
580
583
317
603
840
522
582
951
755
553
868
828
434
562
651
267
223
412
132
-76
196
143
-212
-67
77
-224
-216
46
-132
-319
-19
-21
-359
-143
20
-290
-214
98
-146
-316
7
-73
-364
-91
90
-240
-163
142
-102
-254
30
4
-273
-82
102
-203
-171
159
-101
-309
44
12
-330
-126
60
-264
-258
48
-142
-299
-6
-64
-321
-48
98
-235
-179
38
-229
-333
33
-24
-402
-115
120
-207
-113
199
-7
-120
225
197
-81
158
258
-69
-2
183
-57
-151
51
-51
-313
-132
37
-294
-321
14
-193
-353
-30
-79
-319
-117
265
662
1476
2244
1840
739
-81
-709
-863
-288
11
-302
-247
60
-150
-321
-19
-58
-338
-65
104
-233
-162
162
-94
-254
117
67
-257
-3
177
-163
-94
227
-19
-148
209
161
-97
179
296
-35
81
396
170
69
440
418
192
497
649
390
568
871
634
515
855
797
533
801
842
463
530
673
296
108
335
166
-160
54
143
-248
-235
61
-178
-356
-30
-115
-413
-145
-28
-361
-276
2
-256
-366
-24
-121
-389
-95
60
-263
-204
89
-130
-261
70
4
-270
5
70
-303
-193
68
-187
-291
36
-57
-358
-110
19
-306
-233
41
-208
-360
-24
-84
-404
-132
16
-350
-265
21
-288
-425
-61
-131
-407
-94
57
-291
-133
165
-111
-142
226
121
-143
65
171
-139
-113
132
-182
-347
-13
-158
-507
-254
-109
-435
-360
-76
-380
-494
-56
-122
-469
-169
402
873
1667
2262
1575
242
-407
-607
-652
-237
-104
-454
-371
-116
-322
-415
-128
-206
-462
-215
-76
-398
-310
10
-255
-359
6
-101
-360
-70
23
-288
-150
80
-176
-246
63
-12
-253
14
149
-178
-96
247
60
-28
339
288
30
358
518
212
471
776
447
386
758
686
384
686
780
300
332
565
228
6
229
76
-243
9
61
-342
-215
7
-285
-357
-102
-209
-482
-289
-150
-412
-352
-97
-324
-458
-121
-213
-529
-187
-39
-431
-337
-67
-321
-415
-77
-196
-437
-131
-65
-367
-249
-18
-275
-392
-74
-174
-444
-132
-40
-408
-290
-25
-288
-384
-60
-152
-433
-161
-46
-389
-309
-20
-285
-424
-83
-158
-402
-152
-47
-381
-285
11
-261
-358
-21
-123
-343
-26
62
-258
-121
183
-44
-159
196
160
-58
201
227
-101
20
205
-96
-191
82
-88
-397
-120
-51
-427
-306
-62
-338
-380
-77
-207
-366
-121
178
640
1474
2235
2049
980
65
-549
-685
-139
-18
-429
-280
29
-279
-423
-102
-203
-443
-168
-80
-419
-292
-5
-325
-396
-10
-150
-349
-46
-25
-292
-168
21
-160
-215
4
-53
-237
-1
120
-144
-6
233
-34
-47
350
242
45
410
533
288
441
710
494
481
841
684
456
770
796
414
493
667
382
209
357
207
-84
72
140
-192
-168
81
-228
-345
39
-119
-400
-138
-97
-422
-309
-67
-360
-431
-103
-289
-543
-230
-195
-505
-342
-117
-369
-414
-87
-231
-470
-149
-30
-395
-307
-32
-327
-369
-36
-181
-440
-221
-129
-395
-307
-102
-339
-380
-71
-220
-475
-185
-111
-455
-309
-44
-314
-392
-112
-243
-453
-177
-116
-409
-251
-46
-384
-443
-94
-235
-449
-143
-95
-392
-204
64
-181
-229
87
-31
-250
85
197
-138
-7
227
-69
-188
116
-28
-354
-98
-45
-423
-320
-48
-331
-433
-110
-231
-482
-215
-45
-380
-303
317
746
1452
2304
1954
594
-271
-502
-601
-286
34
-260
-411
-100
-203
-416
-126
-73
-373
-224
-11
-292
-282
14
-198
-383
-64
-49
-349
-121
90
-253
-255
89
-81
-314
17
85
-230
-36
210
-39
-53
264
169
13
279
328
121
313
552
382
411
727
602
438
792
837
506
678
874
517
427
718
484
118
396
390
-83
40
276
-73
-176
143
-24
-260
13
27
-301
-176
34
-234
-319
-52
-168
-372
-60
-20
-368
-213
41
-239
-248
108
-108
-340
6
99
-237
-146
83
-169
-199
106
-29
-262
-33
54
-199
-87
123
-133
-244
16
-74
-254
45
77
-271
-101
99
-211
-204
97
-68
-273
20
96
-214
-107
103
-181
-216
119
-50
-300
-15
74
-241
-152
69
-227
-275
75
-77
-322
-17
64
-275
-94
189
-123
-110
309
108
-134
257
321
-8
127
274
16
-14
162
-37
-237
37
-30
-402
-154
57
-315
-346
-10
-190
-385
-77
-28
-378
-172
573
1189
1865
2435
1766
203
-445
-452
-524
-165
64
-275
-293
20
-170
-361
-42
-45
-346
-139
75
-202
-232
86
-63
-261
61
75
-229
-53
127
-183
-178
148
16
-153
117
137
-140
77
278
-18
11
359
198
-11
380
497
186
398
679
408
424
842
708
516
835
830
543
723
912
578
473
693
442
185
394
317
-46
49
204
-117
-146
142
-67
-265
25
8
-318
-105
90
-241
-240
43
-141
-323
-7
-6
-341
-132
90
-210
-217
102
-54
-263
36
80
-240
-66
146
-168
-159
176
-15
-211
116
98
-237
5
206
-158
-184
130
-31
-245
53
87
-251
-58
123
-200
-161
114
-93
-280
46
53
-291
-76
126
-213
-186
124
-78
-267
-26
-30
-323
-139
98
-201
-247
63
-120
-320
36
3
-359
-110
89
-211
-140
174
12
-118
174
110
-136
205
375
31
8
290
146
-117
121
151
-246
-166
59
-209
-234
8
-196
-361
-23
10
-354
-136
110
-279
-60
989
1577
1966
2343
1322
-280
-555
-273
-346
-232
34
-152
-338
-29
-13
-332
-132
91
-196
-215
66
-98
-254
44
17
-238
-35
103
-173
-161
139
-21
-200
107
120
-159
39
227
-44
-15
320
158
0
333
347
73
311
591
336
371
758
556
384
788
821
586
784
905
594
625
939
684
406
633
547
170
311
386
-18
-48
210
-41
-226
21
-56
-350
-169
52
-283
-327
17
-185
-385
-68
-84
-372
-193
7
-268
-280
73
-136
-304
32
-31
-282
-91
61
-219
-194
154
-128
-372
46
23
-352
-123
102
-248
-290
86
-110
-358
-30
-26
-357
-167
30
-246
-262
-14
-156
-323
-54
-77
-365
-113
52
-289
-261
52
-154
-369
-48
-25
-333
-171
-22
-314
-267
74
-177
-389
-32
-68
-325
-48
133
-119
-74
189
-60
-192
235
253
-84
83
237
-107
-91
211
-58
-324
-66
-71
-329
-164
-21
-335
-316
-4
-261
-451
-86
-86
-410
20
884
1349
1931
2255
965
-531
-592
-490
-592
-177
8
-361
-309
0
-279
-432
-42
-61
-380
-179
-3
-289
-223
53
-219
-337
34
-28
-301
-17
148
-205
-153
182
-20
-167
150
104
-100
184
314
-6
54
409
224
144
495
392
148
480
692
420
491
820
677
555
889
860
536
764
859
443
502
706
319
85
347
259
-133
38
177
-182
-125
113
-177
-349
-25
-17
-325
-155
32
-280
-290
46
-125
-333
-6
4
-307
-87
102
-242
-231
102
-105
-245
91
20
-268
-21
94
-256
-199
89
-164
-333
-8
-8
-273
-88
43
-269
-198
94
-168
-273
46
-54
-286
-48
38
-271
-194
116
-88
-282
56
40
-282
-5
131
-254
-167
166
-68
-184
203
131
-169
118
282
16
124
397
162
1
311
229
-109
72
143
-207
-173
116
-104
-308
-22
-68
-331
-78
48
-319
-227
156
-128
-56
944
1560
1785
1988
1090
-422
-796
-461
-393
-282
-13
-109
-326
-74
29
-349
-291
57
-212
-364
-19
-70
-316
-83
66
-277
-224
110
-131
-244
93
23
-212
24
154
-151
-53
249
-27
-133
285
246
-100
167
427
140
207
565
376
283
681
652
374
679
904
578
634
923
643
518
809
635
295
444
451
76
70
246
-38
-210
50
-84
-407
-139
-14
-381
-307
-10
-248
-416
-103
-166
-444
-177
-89
-421
-278
-6
-287
-388
-36
-97
-371
-72
23
-372
-248
59
-222
-371
49
-27
-457
-153
8
-413
-281
17
-274
-322
1
-180
-439
-125
-36
-416
-281
19
-242
-377
-122
-172
-435
-230
-112
-440
-338
-70
-352
-438
-94
-170
-430
-124
56
-232
-138
86
-146
-208
157
153
-129
64
145
-194
-92
124
-188
-326
-44
-160
-452
-217
-101
-441
-396
-91
-287
-415
-110
-150
-427
-26
700
1194
1936
2317
1224
-158
-466
-501
-538
-152
-106
-459
-286
-28
-287
-387
-88
-161
-396
-124
-54
-417
-285
23
-259
-354
-14
-68
-287
-82
43
-245
-202
101
-89
-209
71
3
-231
61
234
-93
33
345
93
39
395
328
141
453
577
307
496
839
574
433
784
706
444
737
785
386
454
592
260
111
273
143
-141
21
77
-284
-162
126
-213
-388
-2
-101
-410
-133
-63
-379
-262
-27
-299
-412
-110
-181
-434
-135
-16
-357
-217
35
-263
-343
-4
-152
-394
-77
4
-339
-218
88
-185
-338
26
-79
-445
-148
33
-321
-228
82
-222
-355
-31
-166
-409
-133
-56
-369
-213
55
-259
-339
11
-127
-362
-105
-63
-373
-253
39
-229
-335
57
-27
-255
69
148
-179
-53
266
68
-24
316
183
-135
88
171
-183
-152
97
-222
-369
-6
-118
-421
-125
-2
-367
-244
15
-257
-272
27
124
669
1743
2315
1895
884
-60
-645
-520
-32
-106
-370
-159
-46
-358
-263
7
-293
-341
2
-193
-420
-77
-24
-393
-212
43
-248
-313
-23
-75
-330
-63
96
-278
-170
183
-22
-159
145
79
-143
162
234
-75
124
406
155
151
535
462
303
666
742
438
625
880
578
528
877
700
411
616
655
273
259
452
120
-66
169
19
-259
-64
27
-297
-221
63
-271
-387
5
-141
-429
-138
-62
-391
-262
-6
-268
-327
-20
-177
-409
-126
-9
-316
-219
84
-238
-374
14
-115
-378
-60
-6
-405
-231
122
-219
-350
28
-70
-333
-95
15
-243
-168
54
-225
-315
42
-105
-368
-79
-66
-370
-176
49
-264
-347
18
-133
-401
-72
1
-345
-231
11
-234
-241
32
-158
-357
-67
-31
-373
-203
49
-283
-343
42
-20
-225
58
177
-183
-106
265
28
-45
318
138
-92
177
156
-196
-83
94
-250
-300
16
-181
-383
-42
-20
-390
-237
36
-270
-286
19
-95
278
1489
2203
2095
1541
397
-639
-645
-85
-76
-346
-105
-16
-332
-194
18
-279
-290
61
-81
-334
-37
26
-319
-180
73
-182
-239
111
7
-222
53
113
-166
-22
188
-81
-99
269
162
-94
176
252
-24
144
430
221
194
584
474
252
642
750
416
601
893
644
574
865
693
460
738
692
255
327
495
114
-50
220
54
-250
-16
33
-335
-205
55
-312
-340
13
-222
-390
-108
-157
-474
-304
-55
-339
-356
-62
-269
-456
-132
-89
-401
-224
26
-230
-306
-44
-166
-434
-137
-25
-374
-214
29
-272
-341
-33
-161
-387
-96
-47
-368
-188
40
-301
-325
-3
-205
-400
-53
-11
-381
-265
-13
-282
-331
-17
-160
-353
-81
-22
-358
-239
54
-224
-276
55
-123
-371
-29
17
-342
-132
88
-152
-140
161
72
-133
110
155
-82
169
383
-25
-80
284
74
-187
111
104
-336
-222
2
-309
-325
-17
-190
-400
-116
-105
-438
-224
-13
-326
56
1206
1812
1975
1912
679
-728
-695
-239
-346
-309
-38
-237
-427
-102
-83
-413
-213
36
-325
-376
-24
-163
-341
-76
-36
-332
-204
33
-205
-210
114
-58
-277
55
80
-249
-65
165
-117
-125
241
93
-82
295
325
36
291
535
262
314
718
545
324
702
783
506
718
911
597
562
788
581
309
490
499
72
94
317
-30
-133
144
-102
-315
-27
-32
-330
-179
12
-282
-297
5
-188
-383
-78
-74
-405
-272
-63
-327
-353
-22
-186
-389
-76
-40
-329
-186
9
-279
-271
16
-209
-332
-8
-76
-397
-184
14
-280
-319
-14
-144
-377
-86
4
-311
-254
-38
-252
-275
20
-161
-359
-44
-1
-320
-175
52
-239
-292
15
-130
-364
-93
-19
-287
-74
159
-160
-186
144
-15
-156
216
268
-76
74
300
-35
-103
153
-73
-311
-40
3
-340
-252
-16
-300
-305
51
-148
-393
-145
-24
-273
-197
423
962
1563
2221
1694
306
-351
-650
-828
-293
38
-272
-286
0
-151
-350
-72
-57
-381
-188
102
-204
-282
50
-104
-334
-30
40
-240
-81
121
-158
-207
126
1
-203
107
157
-115
58
260
32
74
394
215
57
455
499
227
449
665
478
568
841
695
593
914
906
590
803
958
588
502
722
468
155
362
309
-73
43
210
-140
-181
55
-159
-294
-13
-23
-355
-176
42
-293
-277
62
-143
-386
-51
13
-341
-131
121
-217
-234
78
-111
-275
42
47
-241
-83
123
-147
-222
73
-85
-304
12
45
-272
-130
72
-242
-269
83
-100
-306
-10
-26
-307
-112
44
-248
-262
38
-141
-392
-67
-60
-385
-138
32
-301
-268
91
-22
-210
48
95
-180
20
278
-34
-49
309
94
-179
110
90
-308
-178
15
-353
-395
-53
-262
-465
-152
-143
-437
-262
-84
-385
-360
-56
-10
487
1582
2165
1774
957
-24
-869
-720
-128
-255
-463
-150
-133
-461
-298
-87
-371
-383
-67
-234
-421
-89
-102
-477
-241
18
-339
-344
-2
-175
-339
-58
-20
-269
-90
142
-146
-165
182
25
-174
167
205
-63
142
361
115
158
546
409
267
634
703
440
628
887
596
517
841
672
397
646
628
216
247
386
19
-131
142
-25
-295
-23
-33
-393
-218
-17
-330
-377
-50
-218
-485
-152
-87
-479
-327
-69
-381
-414
-77
-267
-506
-167
-127
-474
-259
-24
-375
-346
-15
-269
-433
-95
-88
-354
-219
-55
-317
-309
-14
-215
-445
-150
-81
-423
-264
-24
-346
-344
2
-212
-396
-55
-58
-403
-272
-5
-290
-427
-117
-235
-428
-115
-79
-401
-256
-37
-310
-300
28
-114
-279
24
31
-259
-19
220
-20
-34
192
21
-129
122
91
-222
-137
18
-282
-330
-58
-296
-466
-113
-161
-467
-247
-136
-478
-384
-4
-53
335
1502
2135
1940
1334
240
-717
-684
-104
-149
-439
-139
-110
-431
-241
-48
-339
-354
-60
-265
-446
-81
-36
-359
-219
-41
-328
-312
-1
-161
-336
-53
-20
-341
-206
73
-161
-217
60
-63
-178
124
119
-156
81
358
85
86
475
344
193
588
617
338
579
792
492
534
871
598
372
654
596
263
329
371
-28
-77
187
-89
-286
26
3
-339
-225
-32
-298
-350
-65
-235
-459
-124
-97
-470
-276
-31
-359
-391
-71
-254
-437
-92
-64
-409
-254
-47
-336
-330
-12
-176
-388
-110
-75
-382
-164
46
-305
-309
27
-164
-394
-52
-30
-363
-212
-50
-328
-306
15
-176
-408
-68
-22
-369
-204
-30
-334
-284
8
-228
-372
-76
-105
-360
-192
-21
-287
-277
20
-189
-375
-47
-2
-259
-62
163
-136
-122
217
22
-132
200
219
-121
32
210
-171
-242
50
-138
-425
-132
-94
-453
-267
-69
-339
-390
-89
-206
-473
-125
-88
-318
480
1557
1887
1981
1530
96
-807
-428
-151
-377
-187
42
-313
-382
-52
-207
-405
-82
-64
-441
-225
25
-287
-276
-16
-214
-382
-68
25
-238
-118
74
-184
-176
125
-58
-217
89
126
-137
-12
219
-9
-40
341
206
25
413
470
203
429
685
454
484
780
610
499
791
792
511
610
749
453
346
539
332
-6
173
192
-202
-98
112
-226
-304
19
-140
-365
-79
-71
-403
-197
18
-390
-405
-48
-227
-383
-105
-111
-410
-255
-10
-285
-331
2
-161
-366
-8
-3
-325
-150
-33
-340
-288
37
-158
-345
-61
-60
-332
-151
46
-290
-313
63
-114
-341
-83
-62
-360
-220
30
-285
-353
14
-156
-388
-73
-55
-371
-226
8
-241
-281
13
-164
-359
-51
41
-289
-187
89
-244
-299
145
10
-227
118
169
-150
57
295
0
-18
294
129
-129
143
162
-237
-119
114
-241
-330
-24
-199
-353
-48
-74
-398
-209
14
-242
-295
65
447
1064
2077
2431
1483
334
-317
-701
-472
-21
-162
-341
-69
-101
-428
-219
2
-276
-314
12
-151
-405
-58
24
-288
-105
73
-251
-223
92
-99
-301
-1
59
-196
-53
142
-104
-99
219
71
-122
214
287
-42
186
439
192
243
525
415
298
636
754
482
662
900
614
619
901
690
455
710
633
195
311
421
24
-54
206
11
-249
2
-20
-364
-177
12
-324
-346
-32
-229
-439
-117
-47
-367
-210
3
-326
-370
-31
-146
-354
-61
-42
-364
-165
77
-221
-234
50
-118
-310
9
112
-287
-139
131
-231
-253
92
-75
-274
-7
23
-271
-97
132
-262
-304
106
-73
-336
-47
34
-301
-174
103
-186
-247
63
-92
-304
-19
19
-264
-62
112
-206
-199
146
29
-172
141
196
-127
30
298
90
25
302
149
-140
109
191
-202
-140
76
-264
-267
50
-218
-430
-99
-77
-420
-243
36
-235
-329
122
586
1152
2040
2224
1010
-156
-513
-834
-631
-23
-195
-426
-79
-151
-472
-228
-4
-295
-307
23
-158
-393
-84
19
-309
-217
30
-220
-235
47
-89
-202
87
54
-269
-22
248
-59
-92
248
110
-74
239
293
22
198
491
249
219
633
520
359
748
810
513
642
881
673
630
884
667
400
669
614
207
327
442
64
-80
184
47
-255
20
84
-289
-163
52
-243
-273
48
-84
-314
-62
-31
-372
-204
64
-207
-250
105
-23
-297
-32
28
-246
-68
149
-131
-131
168
-47
-282
29
106
-215
-102
84
-191
-209
115
-35
-328
-32
86
-268
-152
157
-131
-287
54
-79
-332
22
83
-291
-139
101
-193
-220
126
8
-191
99
198
-88
19
276
9
-35
319
154
-80
201
170
-225
-88
183
-170
-325
0
-139
-381
-61
-33
-436
-294
-61
-292
-260
-22
-49
365
1413
2059
1893
1270
225
-781
-809
-174
-136
-436
-189
-106
-365
-190
-16
-316
-374
-27
-147
-390
-45
-21
-397
-201
40
-251
-294
74
-23
-264
24
49
-287
-76
220
-128
-187
225
44
-185
194
234
-86
193
420
83
127
493
389
243
582
695
442
637
892
573
495
888
732
401
663
667
232
262
460
105
-53
196
7
-242
-25
-25
-318
-134
27
-343
-363
-48
-192
-356
-115
-102
-361
-235
-20
-293
-359
-20
-149
-352
-82
-62
-354
-188
44
-239
-256
44
-145
-362
-41
10
-333
-152
59
-246
-261
47
-110
-369
-105
-21
-314
-153
67
-240
-298
21
-120
-378
-85
8
-357
-244
71
-233
-370
12
-94
-388
-92
-26
-364
-187
69
-232
-294
53
-97
-363
-20
90
-265
-53
248
-94
-155
193
70
-99
228
304
-55
0
225
-42
-179
51
-74
-296
-83
-100
-433
-292
-26
-355
-414
-23
-209
-456
-122
-19
-84
739
1753
2037
2056
1408
-26
-738
-329
-58
-317
-243
-28
-309
-357
8
-117
-356
-114
-82
-364
-188
56
-260
-278
83
-109
-345
-34
25
-294
-139
121
-149
-190
135
7
-205
70
160
-119
1
249
1
-48
295
233
41
315
434
170
358
705
496
455
818
772
548
798
887
567
697
901
502
358
605
401
100
294
375
-73
-113
168
-103
-210
131
-28
-285
-23
-17
-334
-179
67
-231
-313
-12
-149
-363
-111
-29
-310
-239
-10
-271
-395
-25
-107
-378
-59
-28
-388
-209
50
-231
-304
-11
-150
-353
-82
-16
-310
-223
19
-215
-294
6
-118
-320
-15
0
-392
-208
71
-300
-373
5
-169
-417
-96
-16
-332
-208
50
-222
-280
38
-147
-365
-104
2
-276
-245
47
-232
-316
86
-30
-274
46
181
-106
108
316
-59
-50
348
251
-9
224
299
-69
30
280
-62
-250
22
-116
-381
-92
-5
-299
-204
28
-192
-285
3
-45
-300
118
969
1450
2049
2333
1091
-267
-415
-372
-408
-71
-19
-337
-227
-9
-262
-324
-27
-89
-339
-163
-18
-338
-273
16
-229
-337
-30
-89
-327
-89
37
-247
-157
110
-161
-240
139
30
-217
64
166
-96
26
281
70
22
387
311
114
491
574
256
486
806
560
465
829
776
498
740
795
380
427
642
318
116
304
207
-73
58
108
-191
-127
54
-203
-272
24
-94
-361
-117
-31
-376
-250
16
-283
-376
-28
-158
-451
-134
29
-333
-268
24
-248
-314
91
-31
-372
-75
87
-293
-197
111
-177
-270
98
-26
-323
-47
57
-302
-180
108
-160
-283
-15
-110
-353
-69
18
-298
-149
49
-248
-274
10
-151
-356
-60
-3
-369
-226
59
-243
-354
-11
-102
-354
-110
-14
-324
-234
20
-281
-358
38
-40
-339
-73
99
-192
-119
111
-95
-96
260
166
-112
71
138
-209
-132
104
-229
-379
-64
-144
-427
-183
-46
-392
-364
-101
-306
-355
10
-106
-307
507
1480
1844
2183
1736
115
-767
-442
-294
-348
-88
-68
-385
-250
8
-283
-340
5
-93
-353
-110
81
-283
-270
51
-205
-275
97
-46
-331
-33
88
-263
-112
212
-102
-202
131
61
-176
87
220
-87
88
375
89
44
464
468
243
511
634
350
549
889
619
520
892
804
493
712
855
460
418
647
283
108
402
205
-106
133
182
-185
-128
117
-162
-268
73
-32
-319
-70
67
-289
-223
119
-154
-348
-8
-25
-295
-67
36
-249
-90
99
-164
-217
87
-1
-277
-27
86
-221
-128
118
-154
-204
147
-17
-308
-33
114
-210
-127
145
-152
-207
130
-9
-243
55
177
-205
-119
167
-126
-218
128
43
-217
17
110
-188
-81
200
-35
-186
112
47
-245
28
185
-170
-66
238
-6
-26
291
99
-40
340
409
79
116
415
190
-58
246
196
-133
47
104
-205
-109
105
-123
-180
62
-72
-297
-20
165
-195
-97
678
1250
1777
2320
1708
159
-470
-422
-567
-218
210
-134
-279
156
72
-231
53
108
-232
-61
170
-93
-171
115
42
-175
108
176
-156
-56
223
17
-110
234
169
-119
189
318
11
122
367
161
77
400
361
148
434
562
305
478
800
594
527
878
839
590
835
943
640
752
977
681
494
725
587
202
334
379
20
71
259
-68
-168
144
-45
-325
-53
34
-333
-267
8
-246
-351
-60
-130
-392
-141
-5
-348
-255
23
-227
-345
38
41
-329
-96
101
-285
-211
94
-156
-248
59
-89
-366
-99
9
-264
-185
49
-162
-319
-21
-25
-300
-49
98
-244
-193
65
-164
-281
29
-60
-316
-52
45
-281
-205
32
-240
-332
15
-48
-319
-116
52
-199
-238
-10
-135
-216
122
35
-236
73
204
-98
-3
205
-103
-235
116
39
-339
-119
-40
-482
-377
-9
-267
-474
-156
-184
-458
-217
-53
-405
-226
562
1063
1629
2201
1562
103
-550
-538
-624
-395
-37
-313
-435
-67
-171
-448
-179
-60
-437
-327
-20
-309
-419
-56
-159
-453
-128
-28
-369
-248
32
-217
-373
16
-21
-327
-84
49
-240
-200
137
-30
-170
174
145
-93
189
387
87
256
642
373
279
698
662
384
648
804
488
553
819
505
366
633
404
20
188
273
-133
-139
85
-219
-335
-17
-152
-470
-198
-78
-445
-352
-93
-411
-512
-97
-244
-621
-304
-120
-437
-346
-76
-344
-475
-152
-213
-423
-205
-92
-325
-302
-87
-270
-387
-117
-155
-442
-199
-51
-423
-336
-27
-325
-486
-80
-180
-503
-207
-120
-440
-328
-79
-352
-485
-117
-168
-514
-256
-73
-453
-410
-115
-347
-479
-145
-194
-492
-263
-144
-427
-342
-84
-261
-369
-67
-80
-309
-77
7
-204
-26
139
-137
-261
70
-20
-389
-148
-71
-476
-391
-130
-379
-524
-263
-278
-521
-335
-209
-523
-438
-115
-313
-132
918
1623
1861
1973
1012
-487
-808
-299
-310
-453
-130
-248
-550
-273
-194
-478
-371
-102
-283
-451
-188
-181
-416
-221
-106
-428
-330
27
-252
-399
18
-72
-382
-85
37
-311
-223
127
-71
-192
93
18
-213
100
318
-17
88
469
252
168
537
521
368
640
744
468
533
780
597
447
712
624
229
395
474
66
77
254
-92
-223
63
-123
-412
-179
-78
-366
-317
-66
-300
-424
-113
-202
-485
-271
-142
-410
-402
-168
-357
-509
-164
-232
-601
-299
-70
-421
-385
-98
-338
-437
-122
-248
-502
-255
-117
-422
-363
-33
-287
-463
-102
-163
-482
-197
-63
-463
-359
-20
-334
-515
-133
-197
-487
-203
-111
-478
-398
-103
-357
-460
-87
-179
-493
-217
-62
-376
-254
16
-238
-397
-100
-51
-295
-52
141
-245
-113
302
28
-121
200
127
-168
10
92
-216
-184
30
-221
-450
-163
-195
-468
-199
-86
-454
-388
-72
-285
-467
-87
392
898
1805
2356
1617
448
-283
-711
-551
-101
-204
-446
-172
-84
-427
-354
-97
-323
-446
-117
-177
-414
-153
-37
-315
-226
9
-232
-340
-19
-95
-371
-70
81
-260
-179
160
-94
-220
180
85
-153
110
176
-66
57
362
202
46
426
466
177
506
732
390
498
826
582
444
803
749
369
639
732
183
192
382
29
-96
175
33
-307
-105
45
-284
-240
24
-232
-306
-53
-166
-436
-216
13
-321
-317
-26
-246
-383
-57
-111
-403
-123
53
-287
-282
18
-164
-304
17
-55
-342
-53
80
-287
-196
97
-162
-293
19
-62
-345
-113
44
-278
-252
30
-174
-291
-15
-103
-364
-120
36
-242
-165
77
-232
-379
-7
-64
-370
-124
-14
-318
-216
7
-230
-335
-21
-72
-291
32
186
-126
-47
224
97
37
296
231
-88
112
234
-113
-87
144
-83
-306
-12
-54
-414
-155
21
-338
-283
47
-212
-359
27
-45
-145
821
1795
1957
1938
1212
-246
-834
-431
-268
-382
-134
-23
-327
-250
4
-238
-282
31
-117
-350
-127
-3
-285
-190
145
-139
-275
111
-3
-320
1
148
-243
-160
217
-42
-202
209
143
-139
171
310
26
149
446
256
129
500
541
234
552
804
449
555
894
685
585
935
913
584
773
900
474
444
677
314
132
456
239
-126
91
143
-215
-156
148
-76
-267
37
-56
-373
-88
54
-279
-192
100
-179
-314
18
-35
-309
-114
70
-231
-209
115
-101
-272
60
12
-292
-74
83
-199
-158
116
-120
-223
166
-16
-371
-33
82
-247
-211
55
-147
-343
35
1
-331
-76
52
-241
-249
21
-114
-325
-8
-1
-315
-60
102
-221
-107
229
-13
-138
201
106
-143
191
368
-7
-10
301
65
-169
101
99
-206
-136
-72
-315
-204
-19
-300
-382
-28
-91
-391
-101
64
-310
-150
727
1286
1623
2050
1294
-244
-617
-494
-650
-344
39
-178
-359
-44
-71
-358
-70
55
-334
-263
33
-197
-311
51
-40
-380
-82
103
-256
-172
123
-141
-244
91
21
-233
9
179
-94
-44
264
87
-60
303
270
-31
276
432
170
302
632
499
343
692
739
438
669
876
521
545
845
569
334
550
450
40
142
257
-72
-54
114
-146
-231
41
-35
-293
-154
-88
-359
-256
20
-267
-411
-65
-127
-425
-174
-6
-343
-303
8
-210
-338
22
-29
-350
-155
10
-241
-163
95
-175
-317
-3
-141
-402
-99
28
-319
-306
45
-145
-359
-27
-80
-374
-142
-26
-304
-282
-37
-209
-356
-62
-141
-372
-82
49
-210
-141
158
-31
-201
167
181
-137
74
224
-95
-37
191
-142
-322
-1
-96
-432
-196
-56
-379
-397
-115
-288
-494
-150
-152
-426
-219
-20
54
821
1868
2043
1510
639
-415
-919
-528
-171
-402
-373
-50
-319
-497
-124
-185
-490
-254
-86
-432
-396
-81
-316
-487
-128
-153
-466
-198
-4
-334
-289
1
-226
-329
-1
-47
-258
-7
111
-172
-78
221
47
-56
299
266
-23
256
462
233
396
683
459
384
726
707
442
680
797
438
490
718
406
140
319
207
-108
46
70
-242
-136
68
-217
-386
-63
-113
-468
-248
-46
-382
-368
-34
-274
-488
-123
-91
-413
-191
6
-304
-301
9
-157
-337
-18
-66
-384
-135
83
-256
-275
59
-145
-331
-43
-28
-277
-94
104
-233
-231
87
-174
-343
22
-44
-360
-71
72
-310
-248
72
-210
-336
29
-55
-340
-128
46
-234
-229
94
-85
-276
96
112
-196
68
293
14
70
351
96
-64
264
194
-158
0
70
-252
-208
16
-167
-331
-66
-102
-411
-175
-21
-377
-346
24
-171
-137
914
1707
1880
2066
1360
-202
-715
-228
-260
-408
-72
-155
-424
-192
-78
-343
-312
-59
-248
-356
-41
-116
-360
-117
38
-282
-304
31
-165
-332
54
26
-293
-81
88
-197
-130
175
-27
-159
252
212
-177
113
353
81
149
510
343
182
616
701
422
631
802
552
647
905
666
537
768
653
409
530
535
194
138
299
76
-113
123
69
-195
18
89
-242
-170
120
-129
-322
0
-46
-342
-77
82
-262
-243
27
-162
-268
15
-69
-337
-83
49
-297
-237
85
-106
-276
64
4
-347
-46
120
-212
-158
52
-142
-225
40
-2
-297
-101
74
-248
-228
71
-121
-302
17
15
-271
-93
23
-214
-168
58
-83
-280
-10
32
-288
-107
64
-244
-180
169
-7
-164
179
197
-104
125
378
92
66
341
105
-65
247
98
-275
-28
88
-293
-232
56
-189
-349
-16
-56
-360
-116
16
-304
-236
243
708
1404
2273
2262
1076
80
-330
-621
-363
90
-131
-360
-33
-26
-367
-153
78
-263
-230
119
-71
-261
56
60
-259
-33
146
-165
-86
205
-63
-251
95
113
-189
23
248
-10
32
327
122
5
346
351
127
336
528
254
353
745
563
471
809
770
531
823
988
674
748
998
751
574
800
649
287
469
533
89
79
371
100
-116
159
90
-194
58
187
-175
-140
187
52
-192
13
53
-193
-9
177
-160
-191
176
-42
-259
113
107
-200
88
265
-125
-77
271
40
-125
193
164
-133
33
190
-141
-80
217
-75
-230
159
166
-190
-17
166
-172
-154
150
-93
-235
126
70
-279
-29
179
-162
-124
171
-69
-194
201
216
-106
136
372
11
57
403
140
-15
295
198
-139
34
159
-154
-141
105
-159
-352
-4
-30
-350
-116
84
-259
-235
157
-146
-292
655
1399
1669
2105
1618
72
-693
-495
-436
-335
-4
-85
-354
-121
26
-264
-252
9
-190
-312
20
-92
-398
-100
136
-217
-239
145
-34
-209
113
44
-192
42
147
-131
-78
221
73
-93
172
194
-25
225
389
97
162
527
425
310
631
652
409
630
845
577
609
948
738
510
819
718
266
454
578
104
59
324
37
-176
97
-1
-308
-112
1
-344
-265
85
-235
-459
-127
-142
-408
-195
-77
-388
-301
10
-217
-422
-75
-102
-414
-139
55
-266
-219
54
-188
-318
1
-50
-344
-101
54
-311
-251
86
-173
-386
-58
-40
-338
-148
37
-267
-274
19
-170
-315
2
-48
-325
-105
42
-240
-161
103
-122
-207
163
126
-153
134
293
-51
2
329
74
-157
150
58
-302
-80
76
-280
-304
-57
-262
-389
-96
-168
-436
-224
-41
-239
-272
109
561
1170
2013
2082
1107
104
-510
-822
-498
-45
-218
-390
-136
-167
-444
-212
-43
-348
-317
-29
-197
-365
-60
-79
-379
-110
67
-274
-217
101
-142
-319
48
66
-248
10
218
-142
-112
252
86
-135
195
214
-77
242
484
126
216
635
459
324
691
726
432
692
945
585
575
913
673
460
713
498
65
243
354
-54
-104
189
-27
-283
14
-37
-366
-100
20
-343
-272
10
-229
-333
-74
-154
-404
-238
-28
-333
-325
42
-192
-383
-46
-43
-332
-120
59
-287
-255
37
-178
-274
13
-92
-373
-115
37
-295
-256
31
-227
-406
-21
-25
-358
-185
25
-262
-289
20
-167
-377
-47
-44
-369
-135
31
-306
-295
61
-140
-402
-14
-54
-419
-138
32
-271
-206
95
-76
-205
116
62
-203
107
274
-38
26
324
49
-216
110
68
-296
-113
-4
-369
-317
11
-240
-387
-33
-92
-432
-255
6
-241
-214
487
1021
1527
2333
2116
656
-273
-346
-442
-297
74
-184
-411
-57
-66
-362
-201
-12
-265
-236
51
-170
-307
14
-23
-310
-91
149
-164
-222
94
-97
-261
77
119
-200
-58
220
-94
-108
273
63
-114
284
314
-6
238
512
185
219
623
463
372
710
669
432
700
869
583
620
875
635
383
648
540
132
267
318
1
-10
197
-39
-295
8
16
-318
-136
-10
-304
-256
-18
-283
-485
-136
-115
-421
-249
-81
-373
-360
-46
-251
-396
-16
-101
-471
-250
-40
-339
-345
-23
-214
-367
-84
-125
-414
-206
57
-317
-372
23
-199
-381
23
-13
-405
-198
-2
-317
-283
25
-247
-424
-30
-106
-455
-187
15
-355
-351
-8
-193
-375
-83
-77
-351
-199
-21
-316
-344
-66
-286
-434
-101
-110
-372
-181
41
-155
-200
54
-78
-233
125
125
-161
53
172
-175
-209
59
-133
-342
-95
-132
-426
-243
-50
-354
-392
-72
-242
-413
-50
-94
-437
-46
725
1240
1838
2313
1460
-57
-510
-451
-518
-207
-29
-391
-400
-61
-235
-402
-95
-125
-368
-152
-44
-350
-302
19
-185
-372
-32
-30
-341
-91
103
-261
-217
82
-140
-244
63
46
-206
-11
219
-82
-109
258
114
-66
268
325
88
335
580
341
371
743
638
396
686
749
457
627
797
421
353
657
378
40
309
292
-127
42
214
-254
-284
79
-129
-332
-15
-45
-378
-214
-44
-346
-326
-36
-260
-405
-115
-132
-351
-194
-111
-405
-345
-7
-217
-412
-20
-1
-408
-206
65
-285
-253
138
-183
-430
-80
-91
-386
-166
25
-380
-369
15
-203
-410
-58
-27
-370
-229
32
-264
-316
45
-165
-333
-23
-99
-389
-160
32
-298
-315
33
-160
-434
-75
-43
-388
-174
33
-274
-301
32
-65
-291
-1
98
-216
-29
253
5
-28
306
182
-29
265
282
-91
44
264
-167
-273
60
-128
-294
-21
-86
-370
-170
-22
-325
-339
36
-97
-355
200
852
1334
2083
2249
1060
-213
-384
-455
-576
-106
13
-321
-166
55
-237
-299
12
-118
-336
-58
43
-320
-266
-5
-276
-290
104
-76
-363
-18
58
-269
-67
154
-154
-112
267
88
-135
174
216
-36
167
370
136
185
506
374
196
537
649
368
544
814
590
607
917
762
621
896
828
447
592
737
283
196
497
208
-117
185
142
-248
-55
67
-261
-222
72
-135
-322
6
-17
-338
-156
37
-252
-310
42
-79
-335
-26
59
-299
-177
79
-238
-244
119
-63
-255
25
21
-294
-181
25
-227
-276
52
-88
-317
-28
-35
-361
-137
79
-223
-254
37
-111
-327
5
48
-273
-129
26
-257
-286
25
-136
-310
43
6
-333
-119
89
-174
-139
196
27
-173
150
231
-66
128
385
29
-58
242
41
-242
12
32
-303
-164
6
-300
-334
-40
-201
-404
-99
-49
-274
-75
-16
-142
520
1596
1979
1735
1113
-3
-871
-698
-194
-277
-287
45
-134
-366
-38
7
-316
-206
1
-206
-234
51
-103
-355
-38
44
-270
-121
123
-156
-180
154
-35
-215
147
183
-116
99
281
-30
19
359
189
-14
302
398
132
310
589
320
305
712
618
416
703
769
496
650
869
560
428
730
529
209
434
364
-24
68
209
-133
-197
101
-111
-374
-107
-68
-349
-230
12
-237
-357
-75
-199
-403
-82
-37
-415
-230
80
-267
-334
49
-96
-339
-54
48
-256
-176
81
-173
-271
28
-111
-324
-70
-22
-253
-187
-44
-264
-345
-33
-128
-373
-111
-13
-367
-301
-31
-301
-336
54
-150
-468
-82
-25
-424
-189
95
-222
-253
101
-34
-237
88
120
-169
56
275
-29
-53
183
-58
-278
-4
-12
-369
-247
9
-269
-409
-105
-231
-438
-106
-105
-486
-287
-22
-326
-10
1095
1634
1775
1813
787
-586
-718
-343
-424
-325
-54
-179
-324
-139
-145
-426
-239
-18
-315
-348
-54
-228
-418
-126
-102
-384
-224
17
-236
-310
11
-38
-295
-113
-11
-267
-93
140
-173
-184
156
33
-127
205
309
-36
146
523
242
181
586
501
293
676
748
346
554
843
548
473
728
563
264
459
468
13
78
313
-48
-187
66
-140
-396
-69
-75
-448
-234
-66
-415
-420
-100
-272
-481
-185
-152
-470
-306
-11
-282
-393
-87
-179
-426
-172
-42
-342
-208
-2
-375
-372
3
-192
-423
-110
-64
-378
-237
-2
-268
-395
-59
-136
-441
-139
-47
-424
-264
-31
-317
-309
-53
-237
-430
-152
-61
-416
-315
-53
-356
-412
-69
-199
-435
-150
-15
-338
-206
140
-117
-203
179
110
-150
133
217
-139
-22
174
-154
-231
10
-145
-331
-126
-127
-453
-347
-57
-344
-420
-48
-234
-405
-109
-62
119
1086
2045
2045
1480
663
-447
-875
-309
-54
-406
-345
-105
-403
-475
-123
-253
-507
-211
-128
-440
-308
-69
-323
-406
-32
-167
-500
-182
-75
-382
-228
-9
-280
-334
2
-74
-297
-15
89
-252
-108
203
-103
-146
258
155
-8
331
430
168
314
591
368
316
679
566
313
614
647
305
449
599
214
76
318
140
-162
65
141
-257
-239
-30
-293
-337
-54
-240
-482
-161
-109
-469
-310
-59
-358
-428
-98
-251
-516
-183
-65
-448
-334
10
-331
-473
-48
-171
-449
-180
-134
-417
-253
-3
-291
-398
-46
-138
-401
-153
-87
-424
-301
-4
-296
-412
-69
-191
-417
-133
-106
-414
-277
-36
-294
-383
-39
-165
-460
-189
-77
-396
-277
-13
-321
-436
-122
-199
-439
-170
-26
-330
-207
114
-127
-241
133
79
-175
130
243
-150
2
230
-224
-319
-7
-134
-375
-168
-62
-413
-351
-54
-369
-469
-78
-225
-465
-168
1
158
1099
2055
2073
1516
526
-550
-817
-272
-47
-326
-225
-15
-302
-399
-78
-211
-415
-100
-31
-319
-197
44
-216
-329
-16
-93
-288
-57
0
-242
-129
96
-142
-197
104
-29
-208
88
178
-80
8
263
78
36
369
263
79
402
561
293
406
749
489
419
811
660
452
787
835
562
599
691
416
253
509
342
-23
210
265
-142
-64
165
-89
-141
56
-147
-367
-121
20
-266
-268
-45
-288
-361
2
-120
-377
-95
10
-333
-234
69
-229
-335
15
-64
-336
-93
39
-312
-198
108
-173
-310
18
-75
-349
-91
4
-306
-171
72
-246
-322
26
-93
-358
-71
10
-354
-214
52
-247
-334
-12
-121
-365
-89
40
-309
-260
28
-229
-316
58
4
-255
11
138
-192
-65
263
58
-73
228
179
-96
94
143
-171
-95
86
-209
-314
-5
-126
-381
-107
-29
-367
-256
4
-266
-301
14
-3
281
1341
2065
1963
1428
414
-633
-809
-273
-112
-264
-61
12
-310
-240
44
-163
-232
84
-32
-294
-18
114
-218
-131
173
-91
-172
145
-20
-186
87
149
-140
-58
220
-35
-130
245
184
-65
230
339
46
213
455
198
210
631
590
357
635
803
566
686
927
677
629
969
830
575
824
748
301
401
640
260
71
329
122
-147
74
137
-221
-147
198
-124
-340
32
-32
-292
-25
25
-302
-180
76
-156
-262
28
-34
-241
4
66
-252
-149
153
-42
-205
69
35
-229
11
127
-172
-63
107
-162
-206
112
6
-294
-11
147
-226
-199
105
-92
-217
76
-11
-264
22
124
-126
54
238
-57
-101
277
231
-40
219
368
-4
23
244
-74
-215
71
-9
-312
-146
8
-330
-313
-2
-278
-393
-26
-127
-310
-64
136
473
1333
2083
1845
929
126
-550
-845
-386
-45
-277
-219
36
-221
-346
-10
-37
-288
-109
37
-228
-186
122
-84
-209
94
-4
-241
2
210
-88
-143
173
10
-134
192
181
-93
154
352
21
120
452
226
150
502
415
205
600
698
345
539
862
649
593
902
839
545
749
894
524
557
766
372
143
411
284
-68
149
245
-166
-132
113
-170
-304
38
-38
-331
-77
59
-255
-228
12
-197
-293
20
-34
-301
-91
61
-209
-146
122
-82
-249
52
34
-280
-6
176
-215
-194
72
-99
-207
43
-22
-306
-34
140
-303
-268
105
-140
-286
11
-72
-330
-96
76
-207
-152
163
-62
-186
181
132
-156
107
305
25
32
285
63
-130
171
95
-245
-28
48
-362
-259
68
-223
-360
-28
-106
-384
-194
-36
-304
-264
339
884
1435
2165
2081
786
-198
-392
-576
-335
68
-235
-387
-46
-147
-438
-195
-35
-338
-290
-23
-252
-372
-19
-57
-300
-81
22
-263
-220
40
-155
-231
43
-46
-242
45
170
-160
-70
221
-7
-90
262
190
16
358
411
67
235
584
394
361
731
630
365
660
827
517
571
825
537
364
633
452
87
318
420
-52
-105
136
-117
-211
32
-67
-291
-136
-27
-290
-308
-69
-216
-384
-63
-98
-401
-131
-62
-393
-233
32
-246
-381
-33
-62
-382
-135
48
-315
-246
53
-263
-343
55
-29
-346
-142
20
-282
-223
75
-157
-349
-41
-98
-396
-119
58
-278
-227
49
-223
-320
62
-98
-353
32
116
-198
-78
176
-39
-123
226
187
-115
41
200
-75
-100
136
-111
-316
-40
-140
-441
-187
-61
-439
-360
-51
-352
-469
-75
-82
-415
4
875
1398
2013
2185
921
-368
-472
-410
-464
-166
-77
-397
-359
-81
-289
-477
-132
-128
-435
-147
-54
-435
-300
-23
-248
-377
-22
-38
-409
-163
29
-286
-179
90
-160
-273
67
22
-216
66
201
-147
-82
288
101
10
423
360
80
413
663
352
398
769
590
466
849
790
408
661
808
395
420
610
258
35
279
186
-161
44
129
-271
-204
53
-224
-397
-62
-37
-414
-262
-21
-359
-359
8
-252
-491
-99
-138
-421
-164
-57
-373
-309
25
-205
-382
-21
-92
-385
-103
14
-309
-262
19
-210
-357
-24
-141
-416
-100
12
-353
-276
13
-217
-344
-10
-51
-387
-133
49
-360
-290
57
-194
-305
14
-42
-252
11
174
-128
-74
204
-4
-69
311
251
-106
142
354
-123
-197
133
-116
-311
-58
-109
-376
-162
0
-342
-294
10
-226
-408
-40
-5
-327
218
1198
1718
2230
2195
733
-550
-442
-242
-314
-46
48
-275
-224
55
-224
-368
43
8
-327
-134
45
-228
-191
74
-144
-304
53
85
-249
2
188
-170
-100
177
-49
-139
227
188
-91
162
355
98
126
460
289
107
531
576
241
508
796
480
536
926
719
578
899
858
545
723
855
455
410
658
383
114
394
305
-165
44
251
-153
-150
192
-75
-305
56
16
-341
-77
59
-343
-253
37
-197
-277
29
-86
-363
-81
53
-301
-244
60
-163
-260
81
-7
-312
-74
113
-236
-210
114
-149
-304
66
-48
-357
-61
30
-316
-228
69
-190
-350
23
-34
-380
-139
46
-323
-308
15
-217
-378
-33
61
-208
-87
143
-166
-121
285
44
-139
177
112
-198
-4
126
-240
-241
58
-208
-467
-134
-157
-513
-222
-69
-497
-400
-74
-286
-434
-137
135
544
1536
2220
1756
745
-148
-799
-818
-265
-149
-473
-292
-89
-430
-357
-83
-394
-500
-109
-156
-503
-249
-68
-400
-309
-34
-254
-365
-66
-77
-358
-129
101
-206
-210
107
-74
-209
120
92
-173
57
305
42
32
395
242
80
482
496
177
471
757
479
502
850
628
384
733
707
372
524
559
180
145
340
79
-121
107
9
-318
-153
32
-279
-318
6
-230
-471
-110
-128
-409
-173
-86
-380
-301
1
-195
-388
-69
-60
-351
-126
103
-236
-262
48
-134
-255
68
-27
-349
-113
73
-196
-216
24
-181
-327
-12
-40
-345
-147
48
-284
-252
79
-141
-343
-49
-4
-282
-61
143
-168
-109
176
-45
-142
242
183
-165
50
216
-120
-116
136
-155
-373
-16
-30
-361
-117
28
-370
-332
-39
-257
-406
-18
28
-392
13
863
1229
1783
2158
1118
-267
-500
-509
-581
-80
76
-333
-275
22
-140
-247
-1
-37
-311
-97
88
-251
-192
92
-162
-240
84
-44
-315
-2
172
-166
-105
220
-39
-232
160
133
-141
154
266
-60
70
393
184
105
475
453
227
494
657
421
557
870
671
533
840
810
501
718
841
373
336
638
312
-3
262
153
-225
-13
102
-240
-250
48
-120
-322
-38
-116
-434
-171
5
-377
-310
-5
-300
-401
-72
-121
-406
-214
6
-293
-260
57
-192
-358
-17
-27
-356
-143
71
-221
-228
1
-169
-329
-57
-70
-383
-168
7
-304
-272
-19
-209
-344
-82
-107
-380
-160
76
-206
-178
131
-49
-199
187
192
-133
95
239
-61
-30
196
-87
-293
27
-66
-464
-272
-92
-415
-363
1
-300
-530
-112
-158
-458
-126
-2
-145
570
1642
1959
1815
1247
-18
-850
-496
-114
-416
-384
-95
-308
-434
-185
-186
-464
-287
-105
-422
-351
-69
-308
-466
-131
-146
-447
-235
-76
-355
-311
-7
-180
-375
-66
-72
-383
-134
43
-238
-174
103
-40
-159
189
234
-83
171
452
179
274
636
419
327
689
616
353
586
785
491
443
677
342
70
354
251
-77
59
98
-221
-194
65
-141
-326
-77
-97
-420
-257
-15
-332
-330
-7
-269
-450
-137
-151
-424
-234
-22
-338
-346
-8
-228
-356
-14
-126
-419
-129
46
-311
-242
51
-245
-411
-63
-47
-390
-220
-10
-340
-295
37
-156
-363
-80
-53
-376
-201
-40
-322
-260
-22
-257
-350
-50
-87
-339
-128
106
-168
-157
184
-3
-179
185
214
-95
75
197
-166
-175
70
-148
-312
-90
-206
-465
-186
-60
-386
-355
-84
-271
-434
-61
-75
-313
517
1568
1859
2060
1624
91
-809
-389
-145
-405
-216
-49
-401
-350
-8
-237
-422
-98
-80
-358
-164
17
-286
-266
23
-181
-318
-24
-49
-335
-171
67
-182
-233
84
-102
-281
116
107
-217
33
269
-37
-41
306
216
87
430
488
214
430
677
482
499
787
626
464
819
830
499
672
790
410
350
536
269
67
302
152
-152
54
125
-192
-166
97
-137
-286
28
-73
-397
-164
12
-330
-337
14
-173
-407
-107
-149
-394
-146
-59
-365
-292
14
-205
-395
-56
-33
-375
-166
79
-269
-256
74
-193
-376
-22
2
-334
-159
38
-301
-248
29
-176
-312
-47
-43
-319
-133
53
-273
-261
71
-149
-321
28
26
-329
-140
173
-204
-262
165
6
-176
121
127
-81
184
367
20
-1
329
118
-138
115
86
-275
-128
56
-278
-318
-12
-146
-342
-75
4
-305
-202
41
-245
-157
672
1338
1879
2377
1612
5
-513
-288
-388
-275
38
-211
-399
-75
-90
-414
-204
30
-310
-321
38
-162
-399
-70
-16
-281
-122
56
-215
-263
45
-109
-288
79
59
-315
-61
192
-135
-124
191
28
-83
200
223
-13
184
488
216
192
574
431
323
734
752
426
618
835
515
493
804
543
295
563
439
32
174
240
-165
-161
101
-104
-343
-102
-71
-429
-263
-51
-362
-376
-132
-324
-496
-179
-176
-433
-237
-130
-402
-358
-99
-275
-396
-113
-174
-435
-154
-39
-356
-322
-67
-236
-431
-116
-130
-409
-199
-102
-384
-321
-42
-256
-426
-87
-85
-396
-188
-25
-381
-331
-25
-247
-400
-100
-108
-412
-202
39
-240
-226
79
-64
-232
76
132
-159
38
228
-105
-99
171
-140
-373
-46
-84
-447
-266
-45
-423
-468
-87
-269
-490
-208
-176
-414
-235
-32
57
820
1799
1948
1358
508
-429
-988
-619
-129
-369
-375
2
-222
-464
-116
-48
-427
-266
13
-305
-301
15
-191
-353
-10
-29
-359
-131
77
-249
-246
84
-99
-274
59
59
-260
-48
277
6
-76
266
129
-49
346
412
98
364
613
325
388
769
594
399
747
785
488
658
832
499
450
754
474
131
359
294
-71
37
167
-176
-215
81
-132
-368
-63
-70
-407
-162
52
-321
-338
34
-111
-353
-21
42
-282
-65
76
-280
-184
120
-122
-233
56
22
-208
-53
99
-194
-209
106
-90
-279
51
28
-280
-90
59
-228
-157
104
-145
-301
-18
-12
-295
-126
37
-228
-219
21
-100
-238
60
89
-185
19
209
-104
-90
323
170
-89
199
233
-95
15
182
-151
-189
95
-157
-385
-47
-74
-430
-164
10
-393
-338
14
-100
-290
-82
355
894
1734
2265
1561
355
-305
-674
-681
-179
-94
-463
-275
-58
-386
-370
-29
-208
-441
-126
-98
-412
-220
-19
-301
-282
9
-208
-379
-72
-73
-318
-131
21
-259
-218
95
-12
-204
-22
60
-140
13
212
-33
7
348
219
97
470
485
212
476
720
459
500
817
536
343
692
644
384
538
506
89
62
273
-25
-206
93
-28
-353
-156
-49
-356
-302
-8
-243
-453
-170
-171
-453
-289
-97
-347
-351
-87
-275
-351
-69
-178
-417
-209
-10
-304
-285
34
-185
-355
-63
-65
-379
-161
45
-345
-298
43
-198
-382
-80
-99
-377
-169
-61
-358
-285
7
-188
-370
-83
-89
-388
-173
29
-323
-324
-14
-221
-365
-74
-120
-391
-150
63
-217
-147
190
-7
-137
199
171
-74
113
207
-102
-109
141
-49
-271
-65
-67
-346
-211
-76
-403
-388
-96
-255
-413
-135
-80
-428
-223
466
982
1666
2325
1786
328
-410
-521
-585
-275
-78
-382
-396
-131
-311
-447
-163
-154
-466
-313
-74
-371
-362
-1
-255
-485
-116
-77
-359
-244
-55
-331
-367
-6
-141
-321
1
50
-273
-103
154
-158
-161
252
125
-95
246
324
12
254
544
283
401
700
502
409
675
674
404
593
768
439
382
596
377
134
365
246
-180
40
206
-222
-227
78
-122
-315
-64
-46
-372
-209
-2
-349
-321
31
-191
-424
-95
-146
-501
-255
-18
-336
-390
-7
-183
-435
-77
-47
-377
-225
15
-249
-324
-30
-127
-356
-143
-113
-426
-240
-33
-346
-301
-6
-235
-350
-71
-123
-410
-231
-3
-318
-321
-14
-284
-445
-63
-123
-450
-200
-28
-345
-295
42
-138
-280
52
77
-157
66
234
-51
28
333
116
-107
119
70
-324
-179
7
-324
-328
-86
-288
-466
-148
-124
-481
-288
-66
-361
-398
31
462
1057
2024
2336
1397
215
-428
-685
-480
7
-167
-486
-151
-98
-430
-229
-29
-335
-297
7
-195
-365
-43
-69
-351
-104
94
-214
-275
13
-119
-275
67
58
-290
-88
142
-142
-125
177
-39
-191
195
204
-94
223
435
76
181
529
357
310
696
665
374
631
859
539
510
820
635
379
558
559
145
157
350
2
-93
164
-47
-326
-81
-54
-354
-200
-12
-304
-342
-66
-264
-467
-154
-123
-446
-307
-108
-368
-369
-136
-311
-406
-89
-137
-467
-185
24
-377
-370
-66
-290
-420
-96
-140
-470
-246
-42
-419
-363
-29
-251
-406
-130
-148
-465
-219
10
-357
-349
-28
-264
-458
-76
-79
-426
-221
-56
-334
-313
-43
-205
-441
-134
-31
-330
-136
86
-197
-152
196
39
-130
190
192
-122
97
250
-123
-148
85
-151
-342
-65
-134
-435
-240
-80
-356
-369
-80
-266
-419
-29
-66
-258
565
1567
1884
2064
1609
49
-854
-419
-167
-325
-85
37
-312
-263
68
-117
-294
19
45
-256
-87
98
-207
-203
103
-74
-210
134
118
-213
17
226
-134
-94
275
71
-25
291
213
-8
243
414
102
163
508
321
167
538
619
295
490
795
575
605
912
722
572
966
942
573
792
933
475
441
735
404
135
435
366
-73
68
246
-87
-94
210
-1
-232
96
73
-248
-40
130
-165
-195
91
-78
-253
74
85
-223
-16
180
-156
-133
186
20
-132
121
103
-217
-49
154
-163
-135
185
-42
-269
37
55
-275
-83
143
-225
-184
182
-141
-274
123
60
-290
-59
160
-231
-236
120
-26
-208
97
122
-161
101
274
-70
20
372
162
29
317
237
-39
129
227
-112
-94
182
-73
-286
15
8
-313
-92
54
-292
-209
49
-176
-298
-4
265
631
1585
2274
1764
725
-145
-731
-792
-240
-6
-303
-174
-37
-315
-283
9
-155
-326
11
-13
-329
-28
115
-283
-228
98
-52
-234
79
67
-283
-39
188
-134
-127
195
7
-160
181
235
-45
144
341
82
141
483
324
173
539
604
350
572
767
515
579
868
649
435
758
738
351
517
638
224
182
405
103
-161
66
68
-275
-171
22
-302
-342
-41
-262
-487
-161
-143
-439
-239
-17
-355
-361
24
-195
-387
-36
-81
-335
-47
69
-273
-246
78
-87
-346
-60
-56
-379
-158
13
-306
-295
33
-149
-318
27
-47
-381
-140
61
-233
-260
7
-180
-378
-73
-67
-370
-237
-96
-258
-163
87
-84
-224
91
118
-136
76
254
-79
-89
268
34
-248
45
-26
-352
-122
-31
-378
-330
-30
-233
-448
-131
-106
-436
-234
13
-334
-211
738
1321
1677
2045
1163
-352
-697
-506
-607
-349
47
-232
-441
-46
-111
-451
-207
-11
-313
-330
-27
-228
-375
-6
-81
-403
-140
44
-286
-225
138
-154
-367
41
25
-278
-50
141
-110
-99
167
24
-98
267
278
-46
217
459
173
262
636
451
315
667
669
426
678
848
493
472
724
478
254
480
340
-6
142
201
-115
-171
29
-175
-395
-121
-114
-404
-213
-72
-365
-281
-59
-323
-419
-90
-140
-414
-186
-37
-342
-268
54
-199
-335
-11
-90
-341
-128
-13
-295
-256
25
-153
-327
-64
-104
-410
-202
31
-295
-319
-6
-227
-374
-39
-103
-359
-122
-6
-341
-320
32
-133
-340
-61
-43
-287
-44
152
-170
-118
248
76
-61
236
193
-72
197
341
-95
-110
170
-96
-355
-51
-61
-403
-195
1
-324
-362
-55
-226
-416
-26
-30
-449
3
885
1357
1930
2285
1304
-159
-514
-361
-435
-187
-14
-366
-299
51
-234
-423
-36
-58
-416
-204
-1
-290
-291
-12
-193
-361
-48
-105
-384
-80
37
-309
-201
113
-97
-252
86
70
-226
20
195
-96
12
294
74
-34
319
324
64
335
537
281
375
707
510
357
689
692
414
594
738
345
284
563
277
-29
171
101
-251
-70
74
-297
-253
-16
-269
-387
-138
-209
-448
-264
-163
-467
-375
-79
-336
-506
-201
-199
-456
-237
-82
-369
-346
-88
-262
-411
-97
-124
-421
-194
-15
-323
-292
29
-206
-405
-37
-114
-422
-154
-68
-388
-327
-32
-192
-355
-99
-121
-412
-195
-1
-342
-328
-9
-200
-375
-50
-71
-385
-209
-38
-314
-263
140
-67
-245
134
123
-113
100
306
28
-6
324
87
-169
118
66
-295
-146
-6
-340
-279
21
-253
-440
-73
-68
-408
-198
77
-274
-332
332
880
1505
2333
2105
675
-282
-467
-594
-358
-18
-214
-377
-108
-144
-442
-203
17
-356
-346
24
-179
-333
-6
-63
-353
-139
3
-290
-257
61
-158
-324
56
49
-193
-3
119
-138
-116
184
40
-94
270
303
-26
206
463
208
311
635
441
358
717
673
410
742
918
489
544
881
580
360
643
545
171
265
322
10
-24
168
-71
-254
55
-7
-332
-124
13
-325
-303
-2
-168
-313
-68
-162
-407
-142
-20
-311
-221
66
-111
-283
-10
9
-256
-66
66
-205
-196
83
-63
-254
27
-18
-253
-31
62
-229
-167
179
-55
-292
56
-7
-361
-89
108
-234
-220
80
-91
-287
-4
19
-316
-68
114
-293
-224
89
-142
-235
150
104
-206
47
233
-42
41
342
124
-16
270
244
-67
39
142
-215
-195
89
-183
-317
26
-98
-410
-133
9
-346
-293
54
-144
-249
476
1195
1681
2311
1946
266
-648
-357
-357
-355
27
-62
-334
-132
-31
-303
-205
75
-177
-303
61
27
-292
-70
105
-212
-162
145
-77
-227
131
117
-180
-12
162
-85
-64
229
9
-137
292
279
-87
190
430
123
242
576
346
251
643
666
429
725
930
544
555
873
684
540
793
712
399
545
559
149
179
397
48
-144
144
45
-225
-10
83
-254
-219
44
-173
-303
-24
-75
-336
-124
-27
-329
-182
125
-145
-248
129
11
-327
-54
130
-160
-120
132
-95
-268
44
37
-263
-90
55
-196
-158
147
-33
-217
76
-19
-257
40
138
-209
-152
132
-105
-229
128
36
-290
-22
93
-151
71
254
-41
-79
226
160
-34
229
363
43
84
334
89
-93
137
47
-260
-39
95
-253
-217
91
-132
-279
25
-76
-353
-87
28
-263
102
987
1470
1816
1990
957
-449
-625
-386
-473
-250
68
-164
-337
0
-48
-383
-116
38
-303
-192
67
-207
-298
30
-77
-354
-57
116
-178
-107
165
-54
-150
223
154
-145
117
276
-14
37
301
168
132
367
267
85
378
534
307
468
757
538
486
849
776
523
823
950
569
679
905
528
311
579
464
30
210
327
-102
-106
170
-105
-249
80
-63
-320
-9
97
-278
-262
-8
-231
-267
62
-48
-327
-97
65
-224
-109
135
-159
-231
72
13
-200
-30
56
-185
-98
51
-181
-243
61
30
-272
-96
57
-214
-145
119
-150
-291
80
-12
-353
-66
87
-272
-168
183
-150
-305
156
48
-257
51
178
-53
93
318
73
-74
197
131
-202
-40
41
-252
-189
-65
-329
-386
-113
-207
-460
-246
-134
-452
-340
-21
-313
-353
450
1110
1525
2130
1758
219
-606
-478
-461
-450
-155
-219
-524
-263
-103
-428
-323
-66
-335
-408
-94
-186
-447
-226
-91
-373
-282
69
-192
-418
-114
-141
-316
-50
11
-307
-181
62
-195
-254
120
88
-189
48
202
-81
97
452
198
104
528
544
251
498
693
406
510
804
541
388
681
571
227
382
420
-4
22
234
-92
-226
59
-75
-438
-192
2
-415
-361
-64
-348
-443
-153
-285
-509
-124
-66
-535
-370
-64
-376
-402
-7
-169
-472
-181
-68
-405
-274
14
-293
-389
-67
-233
-434
-99
-61
-385
-258
-7
-228
-377
-33
-56
-436
-187
8
-348
-312
-31
-304
-439
-57
-154
-441
-149
-23
-385
-298
68
-239
-411
-55
-132
-279
13
105
-190
-129
182
34
-76
206
94
-177
111
165
-215
-127
66
-274
-351
47
-179
-520
-158
-63
-365
-303
-107
-275
-310
-20
-138
-43
1035
1928
2052
1949
1147
-295
-782
-211
-120
-416
-185
-95
-447
-313
-27
-301
-374
-35
-149
-389
-64
13
-354
-209
52
-217
-277
85
-37
-309
13
80
-254
-53
189
-122
-157
189
49
-163
183
279
-32
113
415
218
182
519
416
211
555
678
405
607
877
625
582
845
765
547
679
702
355
375
547
181
18
333
162
-148
141
150
-283
-124
161
-163
-233
79
-100
-308
-56
-47
-331
-210
54
-174
-294
9
-61
-297
-55
21
-298
-136
166
-175
-321
95
-15
-361
-85
13
-317
-160
101
-218
-289
42
-130
-336
-42
-31
-316
-177
46
-225
-248
81
-148
-361
-32
12
-287
-135
69
-264
-321
6
-140
-362
-49
-31
-383
-166
64
-272
-303
41
-94
-297
30
100
-205
6
257
-70
-93
296
142
-145
93
160
-199
-144
106
-219
-332
-14
-154
-379
-132
-107
-414
-240
-6
-332
-324
57
-157
-104
954
1817
2037
2038
1188
-287
-714
-257
-205
-312
-90
-61
-337
-192
31
-306
-339
46
-125
-361
-16
12
-359
-198
71
-226
-244
126
-84
-271
76
82
-228
-32
236
-104
-175
177
44
-128
177
215
-34
145
389
190
144
495
458
256
529
653
452
642
843
549
557
920
770
520
755
767
396
411
552
220
68
335
105
-204
90
95
-242
-97
93
-247
-328
-27
-209
-380
-114
-141
-392
-206
-24
-354
-372
-17
-190
-450
-127
-54
-413
-254
15
-283
-375
-39
-173
-403
-71
-23
-374
-209
6
-304
-296
13
-248
-427
-54
-115
-454
-197
-21
-356
-317
-19
-203
-371
-93
-92
-386
-219
-12
-297
-332
-2
-168
-389
-105
-111
-395
-181
4
-297
-330
-60
-188
-364
-117
-98
-334
-109
163
-131
-200
153
28
-131
183
182
-132
40
230
-135
-239
47
-134
-404
-129
-118
-455
-268
-56
-370
-395
-75
-262
-483
-119
-60
-407
125
1136
1587
2023
2075
686
-663
-600
-357
-468
-231
-72
-410
-358
-56
-284
-452
-155
-149
-475
-249
-38
-357
-309
-5
-192
-406
-86
-61
-415
-174
89
-219
-241
72
-99
-285
52
60
-262
-60
165
-74
-32
306
170
14
353
391
120
345
602
397
425
727
600
424
733
779
480
657
780
428
352
531
304
7
173
154
-182
-60
100
-248
-287
20
-207
-427
-102
-114
-469
-255
-34
-349
-324
-75
-282
-438
-173
-169
-427
-210
-45
-282
-242
-29
-209
-334
-18
-113
-402
-123
6
-315
-273
-2
-223
-368
-60
-94
-377
-153
-25
-331
-277
-25
-179
-311
-84
-136
-389
-147
14
-289
-285
-46
-230
-322
-47
-127
-381
-167
14
-277
-208
136
-117
-249
118
22
-227
83
250
-82
-48
282
49
-203
67
50
-288
-99
43
-343
-341
-50
-242
-419
-181
-223
-483
-261
-91
-344
-334
-96
55
616
1649
2050
1450
531
-371
-951
-732
-159
-228
-385
-14
-93
-445
-173
-37
-373
-279
39
-199
-360
-47
-53
-322
-139
55
-244
-234
88
-119
-294
56
70
-239
-12
210
-84
-41
271
69
-86
260
284
-11
279
490
125
189
582
454
339
709
728
446
661
863
587
624
884
598
446
743
540
163
325
360
33
34
191
-103
-318
-6
-36
-401
-170
24
-364
-325
15
-221
-348
-59
-143
-394
-138
66
-242
-229
23
-201
-332
14
32
-299
-91
101
-231
-186
98
-136
-248
59
-57
-311
-41
32
-292
-200
62
-157
-292
28
11
-307
-163
-2
-269
-231
61
-148
-323
-46
-59
-351
-182
16
-317
-262
71
-195
-340
25
36
-229
-14
126
-145
0
268
-38
-144
192
78
-239
-34
86
-260
-218
3
-292
-428
-123
-96
-399
-269
-85
-416
-365
5
-221
-309
520
1290
1714
2185
1575
-10
-665
-431
-443
-422
-95
-176
-432
-164
-60
-364
-287
-32
-266
-375
8
-129
-490
-138
47
-305
-197
84
-157
-250
42
-12
-235
26
142
-214
-105
178
-65
-124
223
152
-111
172
333
64
192
497
313
248
597
548
344
670
799
444
565
862
560
458
785
635
309
472
488
120
114
316
49
-158
80
-43
-322
-40
-3
-412
-298
-38
-319
-429
-116
-214
-460
-190
-97
-410
-293
-50
-303
-349
-30
-134
-386
-112
26
-306
-247
33
-256
-395
2
-36
-338
-116
-17
-372
-233
37
-192
-242
-12
-156
-392
-109
20
-311
-275
-22
-248
-393
7
-41
-411
-110
4
-359
-230
43
-186
-312
0
-84
-373
-67
62
-304
-214
38
-261
-328
59
-27
-279
35
152
-175
-40
272
39
-65
304
224
-72
165
220
-146
-32
151
-206
-266
-24
-216
-407
-132
-60
-412
-325
-30
-330
-360
44
-114
-59
1031
1895
1999
1970
1166
-313
-747
-213
-191
-437
-163
-81
-434
-334
-41
-330
-453
-107
-222
-441
-152
-94
-397
-285
-21
-276
-351
31
-115
-424
-146
-22
-335
-193
95
-269
-344
77
-50
-296
13
90
-193
21
289
10
1
409
295
97
464
578
316
499
786
539
474
809
681
439
685
669
271
313
463
169
20
217
78
-232
-10
72
-323
-245
28
-226
-340
-43
-154
-409
-140
-93
-451
-279
-59
-366
-350
-61
-259
-444
-114
-70
-396
-264
-24
-282
-307
28
-138
-381
-92
24
-283
-234
24
-214
-310
0
-164
-353
-39
-89
-419
-191
9
-300
-313
61
-85
-449
-168
-38
-357
-226
21
-271
-333
-24
-160
-359
-119
-78
-384
-244
2
-297
-356
-11
-143
-360
-73
-8
-310
-165
130
-122
-192
144
31
-148
161
190
-108
133
359
-19
-57
286
68
-211
83
100
-306
-197
87
-237
-365
-9
-95
-372
-101
-31
-401
-160
49
-282
184
1367
1926
2063
1925
664
-663
-572
-123
-311
-304
10
-237
-439
-61
-87
-409
-145
32
-359
-352
16
-175
-411
-76
-23
-331
-174
21
-255
-258
66
-70
-257
-27
-51
-270
-46
162
-80
-101
190
44
-110
239
288
9
236
499
231
287
682
522
440
777
732
499
734
916
600
566
782
551
347
564
475
40
107
328
-31
-118
150
-99
-276
34
39
-356
-214
1
-352
-318
25
-181
-378
-44
-30
-380
-192
31
-302
-298
44
-119
-287
-24
-30
-346
-196
72
-193
-239
119
-54
-336
-45
-29
-321
-75
61
-312
-243
83
-157
-324
-35
-83
-341
-114
34
-265
-275
28
-86
-349
-138
-75
-332
-112
73
-298
-308
52
-117
-372
-26
19
-377
-208
8
-279
-274
33
-163
-295
131
84
-200
83
200
-118
-19
340
131
-55
252
238
-100
34
189
-168
-184
64
-177
-311
-27
-25
-312
-222
-45
-304
-302
-7
-193
-385
87
730
1286
2105
2328
1083
-221
-493
-602
-527
-17
-105
-490
-178
21
-332
-304
-14
-246
-423
-13
0
-411
-197
53
-247
-218
77
-153
-287
76
0
-284
-13
146
-138
-91
205
65
-96
221
182
-183
137
405
72
119
473
316
259
612
583
362
621
830
550
641
997
703
506
885
821
462
602
678
301
275
460
164
-32
210
125
-207
-23
89
-268
-211
147
-84
-358
-51
-35
-328
-76
100
-227
-189
78
-144
-262
63
-3
-297
-60
73
-188
-116
98
-111
-223
111
3
-336
-69
62
-235
-114
182
-107
-314
37
19
-260
-59
65
-252
-207
96
-138
-312
59
37
-374
-153
21
-312
-232
52
-189
-308
-6
-55
-279
-109
53
-168
-141
133
-55
-161
197
195
-115
72
241
-85
-71
151
-107
-282
-20
-129
-453
-178
-14
-369
-324
-114
-399
-455
-134
-192
-418
-283
40
438
1240
2056
1809
736
-126
-690
-937
-444
-38
-329
-342
-54
-248
-444
-89
-78
-427
-200
-51
-325
-250
13
-136
-281
-41
-87
-302
7
113
-261
-145
142
-102
-172
156
71
-187
131
276
-117
53
434
128
26
410
358
157
500
625
285
467
831
579
483
858
785
489
728
900
552
529
748
353
149
450
266
-36
149
158
-237
-171
101
-203
-335
-11
-111
-428
-185
-25
-404
-346
2
-245
-400
-62
-30
-326
-186
-4
-279
-210
71
-186
-348
-13
-11
-306
-130
48
-260
-217
17
-276
-322
2
-136
-356
-101
-60
-378
-251
13
-240
-352
-61
-91
-335
-172
-32
-345
-318
-18
-276
-431
-107
-186
-445
-123
15
-345
-192
101
-144
-184
197
106
-228
89
199
-178
-25
160
-169
-260
-29
-154
-417
-219
-157
-445
-297
-110
-399
-471
-123
-206
-433
-141
-115
-98
853
1897
2036
1627
818
-416
-920
-443
-202
-447
-382
-166
-432
-490
-124
-263
-563
-253
-135
-493
-348
-94
-400
-415
-54
-215
-480
-132
-10
-397
-327
7
-240
-400
-28
-128
-379
-24
72
-267
-82
230
-64
-145
224
118
-123
279
471
110
246
592
368
328
682
609
374
604
710
394
472
651
315
182
341
119
-152
45
57
-297
-213
-36
-337
-340
-46
-279
-471
-201
-191
-493
-429
-170
-364
-478
-176
-257
-516
-229
-146
-484
-288
-53
-390
-417
-44
-245
-432
-38
-84
-447
-264
-37
-316
-387
-66
-187
-427
-107
-98
-453
-244
-24
-340
-342
-34
-251
-390
-110
-126
-413
-252
-25
-341
-331
29
-169
-392
-98
-90
-404
-245
-50
-349
-340
35
-195
-472
-141
-92
-399
-216
59
-240
-255
176
38
-201
111
147
-105
102
276
-20
13
332
7
-290
37
55
-259
-178
-46
-299
-362
-73
-186
-457
-175
-97
-453
-215
2
-318
92
1168
1767
2007
2128
1101
-505
-641
-142
-317
-317
-58
-252
-411
-141
-177
-484
-239
55
-347
-422
-5
-199
-430
-100
-61
-303
-135
21
-279
-331
27
-94
-327
-49
-8
-271
-72
127
-157
-178
132
-8
-186
211
280
-69
177
452
175
244
623
489
308
670
754
442
643
853
542
542
853
614
323
548
474
74
202
303
-87
-137
123
-104
-321
41
11
-426
-204
23
-392
-394
29
-194
-471
-144
-111
-409
-253
-84
-360
-332
-10
-199
-445
-134
-109
-433
-196
7
-326
-287
48
-146
-328
-65
-120
-376
-147
11
-268
-303
-24
-168
-372
-4
-20
-377
-128
-13
-388
-330
13
-214
-403
-60
-56
-358
-184
-6
-310
-323
-37
-194
-372
-82
-77
-379
-149
4
-333
-307
24
-151
-369
-16
22
-252
0
126
-182
-61
247
59
-83
223
228
-126
74
294
-155
-243
78
-138
-329
-48
-123
-429
-208
-39
-334
-351
-66
-221
-379
-43
-102
-261
596
1585
1928
2203
1792
277
-672
-366
-154
-332
-161
12
-246
-260
22
-157
-332
-34
-37
-345
-135
84
-246
-247
113
-64
-281
42
1
-306
-16
160
-169
-121
168
-26
-206
105
170
-110
71
246
-39
39
419
294
77
391
486
198
444
739
459
550
921
697
553
874
848
550
766
894
475
469
677
306
129
413
239
-144
65
207
-212
-203
124
-125
-299
53
25
-374
-200
27
-280
-235
72
-193
-338
26
-13
-307
-95
97
-194
-194
138
-57
-268
71
66
-239
-16
120
-212
-152
153
-91
-250
99
3
-307
-30
149
-173
-176
92
-101
-252
50
56
-253
-90
96
-255
-223
124
-108
-280
58
47
-294
-106
72
-246
-221
88
-107
-274
105
40
-329
-43
117
-279
-170
191
-82
-126
274
186
-39
161
268
18
137
465
213
10
338
279
-126
102
278
-123
-129
109
-138
-275
43
23
-297
-92
76
-259
-208
191
-55
-160
795
1622
1934
2256
1585
-83
-595
-197
-342
-337
25
-42
-319
-99
55
-289
-178
130
-182
-259
81
-102
-373
-75
86
-217
-130
172
-97
-223
156
108
-224
-13
186
-141
-106
262
88
-53
303
277
-106
166
452
151
252
523
338
312
628
640
438
658
842
553
673
1023
678
556
894
694
348
534
622
225
167
391
100
-87
263
115
-297
-61
45
-267
-163
70
-219
-294
58
-78
-360
-97
45
-279
-227
73
-165
-295
74
45
-284
-76
91
-227
-208
125
-60
-264
69
31
-278
-1
132
-172
-116
103
-153
-321
57
-26
-282
8
81
-242
-180
143
-111
-261
109
50
-257
-30
93
-231
-119
153
-117
-243
70
-24
-273
37
216
-124
-72
247
-5
-49
356
208
-46
245
329
-13
29
223
-107
-224
104
-27
-319
-81
16
-273
-200
39
-249
-418
-48
-82
-297
-37
117
288
1198
2075
1937
1169
308
-491
-824
-396
-46
-288
-209
130
-151
-318
51
-80
-337
-35
2
-309
-186
49
-184
-282
33
-38
-310
-26
107
-258
-136
161
-98
-173
161
79
-190
62
197
-104
-5
347
134
5
356
312
139
431
593
346
416
723
522
432
811
714
474
762
803
497
577
716
341
148
381
184
-139
138
184
-273
-163
95
-218
-302
-12
-173
-416
-103
-9
-366
-268
-58
-362
-367
31
-145
-397
-65
-31
-378
-214
83
-188
-310
39
-66
-314
-16
-10
-373
-193
90
-220
-303
44
-123
-386
-100
0
-301
-243
-23
-242
-307
-7
-138
-374
-86
-3
-350
-241
46
-244
-345
-10
-137
-378
-98
-31
-346
-228
12
-286
-307
153
13
-287
56
166
-155
45
300
-44
-95
301
139
-204
31
67
-293
-187
6
-243
-334
-119
-197
-433
-206
-106
-412
-290
-13
-262
-349
193
742
1316
2103
2205
1079
-38
-390
-588
-454
-27
-150
-429
-171
-85
-388
-252
-28
-309
-321
31
-107
-369
-115
17
-272
-211
47
-210
-245
116
-66
-318
33
135
-261
-110
188
-98
-94
201
28
-139
172
237
-67
132
418
160
161
532
438
277
657
741
421
623
844
594
606
846
648
374
592
609
195
244
402
40
-65
188
42
-223
-1
51
-303
-165
90
-194
-274
51
-98
-417
-93
-15
-405
-223
3
-275
-278
22
-115
-358
-89
-24
-322
-155
67
-208
-232
66
-80
-263
-17
26
-263
-122
105
-207
-220
103
-132
-344
44
89
-296
-106
147
-193
-203
151
-51
-287
44
39
-269
-45
118
-199
-224
96
-49
-269
34
-4
-339
-115
99
-189
-222
141
-19
-337
-15
69
-199
60
245
-79
-45
348
200
-63
297
357
-10
180
371
-2
-76
206
-14
-270
-4
-7
-349
-133
108
-267
-285
93
-140
-374
25
-2
-248
447
1432
1839
2182
2163
793
-507
-367
-125
-320
-77
75
-299
-291
49
-159
-349
-2
-37
-316
-140
35
-224
-216
78
-147
-298
29
25
-279
-16
211
-193
-192
178
-15
-187
204
233
-166
10
305
-4
13
416
237
21
364
455
242
506
666
380
494
834
647
502
862
852
535
709
836
457
401
668
357
87
332
232
-138
-46
138
-132
-185
98
-119
-322
-17
-12
-292
-172
-46
-337
-313
-21
-207
-351
-43
-65
-384
-187
38
-239
-237
66
-112
-315
12
91
-228
-88
66
-223
-95
135
-181
-308
-1
-12
-269
-140
-5
-256
-272
54
-95
-313
37
56
-296
-135
44
-219
-220
75
-54
-240
8
34
-190
-51
35
-242
-223
72
-75
-272
1
14
-256
-57
122
-211
-240
99
-80
-262
54
59
-181
9
226
-81
-82
302
97
-59
281
191
-117
160
290
-125
-105
194
-106
-342
-26
-59
-396
-178
23
-310
-322
-15
-170
-293
94
-35
-272
621
1580
1930
2229
1800
263
-728
-408
-144
-302
-93
50
-295
-313
34
-132
-347
13
-6
-331
-51
61
-244
-163
38
-149
-252
59
-3
-296
-16
125
-236
-140
216
-75
-257
169
144
-208
71
282
-79
-32
374
154
-1
437
406
137
500
663
351
512
804
607
528
813
769
464
658
824
431
338
546
275
3
245
163
-188
4
49
-313
-256
-24
-271
-426
-154
-209
-452
-246
-106
-406
-433
-135
-295
-429
-142
-165
-414
-273
-77
-330
-324
-10
-254
-434
-96
-154
-390
-110
3
-377
-339
-10
-266
-441
-72
-26
-340
-226
-49
-316
-252
69
-189
-378
-51
-101
-381
-125
-12
-328
-233
-8
-242
-355
-33
-69
-398
-169
3
-338
-264
131
-102
-307
95
68
-248
55
226
-131
-36
325
127
-36
234
176
-158
21
146
-233
-201
42
-225
-375
-60
-126
-446
-204
-68
-365
-263
-10
-190
-310
-13
383
898
1768
2167
1302
163
-419
-830
-730
-161
-147
-407
-193
-30
-303
-286
-29
-247
-314
-22
-164
-382
-109
-19
-336
-262
35
-129
-284
4
-43
-346
-76
84
-224
-127
155
16
-113
111
58
-175
170
306
-59
103
475
254
187
577
556
357
633
783
490
648
987
639
519
902
706
382
649
690
248
213
430
146
-71
156
26
-287
-60
34
-343
-243
97
-237
-442
-62
-143
-457
-157
0
-405
-299
32
-317
-372
54
-103
-369
-34
122
-231
-167
128
-146
-267
46
-11
-223
-52
6
-289
-191
99
-156
-290
-7
-81
-355
-110
60
-316
-265
47
-251
-374
18
-75
-382
-133
16
-328
-237
81
-203
-326
8
-39
-264
-26
28
-293
-122
158
-121
-161
177
22
-207
137
253
-37
50
263
29
-123
166
67
-235
-57
31
-232
-248
-44
-237
-330
-5
-107
-393
-167
-7
-247
-111
576
1121
1660
2313
1734
194
-416
-450
-565
-285
-4
-238
-334
-11
-111
-414
-156
-55
-365
-216
59
-240
-370
-45
-115
-324
-56
-17
-383
-208
114
-211
-272
163
-11
-333
3
89
-250
-33
250
-65
-114
243
153
-74
230
394
159
322
607
384
374
775
664
378
691
832
522
665
921
578
378
623
429
87
292
289
-129
-52
170
-177
-294
49
-88
-415
-140
-26
-402
-299
15
-267
-445
-66
-157
-456
-133
-75
-411
-268
5
-222
-288
-2
-136
-317
-69
-54
-333
-190
44
-236
-300
40
-115
-384
-118
-45
-374
-246
28
-266
-371
-69
-178
-409
-165
-123
-366
-212
-93
-351
-355
-48
-165
-383
-109
-101
-434
-265
-62
-353
-356
-91
-259
-478
-196
-105
-427
-250
19
-292
-370
21
-59
-309
37
125
-251
-27
285
-35
-99
216
65
-214
37
84
-300
-186
59
-298
-402
-39
-203
-473
-178
-108
-443
-354
-97
-272
-373
-3
453
1075
1987
2276
1405
273
-344
-613
-427
-58
-201
-423
-218
-155
-488
-347
-37
-349
-439
-78
-178
-469
-192
-112
-469
-271
14
-308
-371
1
-149
-429
-92
-34
-369
-164
115
-153
-234
74
-43
-246
94
173
-140
64
323
80
142
511
351
132
529
660
336
549
839
499
439
815
659
409
647
594
146
239
421
7
-77
204
-63
-286
33
-11
-356
-235
0
-230
-346
-32
-187
-458
-139
-85
-419
-242
-17
-370
-392
-57
-205
-395
-105
-63
-379
-217
-12
-294
-309
8
-152
-378
-85
-36
-298
-171
31
-229
-292
55
-129
-403
-58
5
-312
-128
52
-251
-252
91
-98
-349
-11
19
-268
-95
105
-157
-282
25
-69
-321
-1
46
-305
-141
78
-213
-238
25
-155
-303
12
71
-226
-111
94
-170
-180
194
118
-126
180
326
-59
61
420
154
111
414
164
-60
192
159
-161
-66
98
-204
-277
34
-127
-364
-69
-25
-266
-139
-77
-320
-248
64
205
834
1932
2382
1942
983
-29
-605
-455
29
-71
-342
-39
-58
-404
-132
115
-219
-303
-6
-162
-380
-65
9
-294
-176
54
-175
-225
92
-54
-282
54
115
-218
-49
156
-154
-95
205
21
-88
165
179
-63
173
441
148
187
585
431
282
650
690
445
675
893
609
594
928
746
487
768
747
372
407
476
106
8
313
94
-182
120
111
-252
-141
41
-221
-263
1
-190
-356
-40
-72
-400
-208
-19
-342
-333
7
-209
-446
-80
-80
-401
-149
49
-242
-228
64
-129
-311
16
-18
-323
-122
48
-241
-294
35
-83
-352
-89
13
-298
-180
25
-314
-310
44
-151
-369
-63
-22
-334
-123
95
-282
-298
72
-134
-341
11
-30
-310
-46
1
-349
-265
48
-102
-271
73
128
-195
4
245
-39
-32
314
151
-59
229
210
-115
56
154
-238
-240
45
-148
-353
-68
-81
-451
-229
8
-347
-334
74
-157
-445
188
969
1417
2037
2016
633
-511
-569
-592
-517
-50
-127
-440
-138
13
-338
-317
-16
-172
-314
-27
-32
-349
-142
96
-269
-291
112
-91
-344
36
61
-271
-85
95
-157
-123
213
34
-190
178
221
-128
108
390
45
71
479
294
181
604
576
292
614
796
490
594
909
675
493
814
763
391
541
624
175
117
375
103
-141
92
41
-265
-110
25
-343
-339
16
-225
-421
-99
-144
-415
-191
11
-306
-326
-24
-235
-362
-15
-52
-338
-144
12
-234
-243
-8
-174
-338
2
-27
-359
-82
86
-313
-261
56
-137
-245
5
-35
-259
-64
76
-238
-224
69
-90
-273
-60
-68
-305
-108
34
-271
-247
85
-110
-301
81
98
-210
54
268
-46
-52
281
167
-36
273
242
-144
114
246
-214
-203
95
-157
-304
30
-62
-375
-150
7
-292
-293
71
-32
-286
202
829
1209
1974
2223
1055
-110
-438
-638
-540
-22
-6
-311
-94
59
-259
-162
59
-208
-283
31
12
-298
-112
84
-232
-168
186
-101
-296
100
104
-205
48
264
-113
-65
269
12
-97
289
240
-78
171
