599
605
610
610
601
580
548
506
459
413
374
348
337
344
364
394
429
461
487
502
506
499
482
460
435
410
389
373
364
364
374
393
421
458
500
543
582
614
633
636
624
597
560
518
476
439
413
398
395
403
418
439
462
485
505
523
538
550
557
559
555
547
534
519
503
488
479
476
481
492
506
521
535
543
546
543
536
528
522
519
521
526
532
537
538
533
522
507
491
478
470
471
479
494
511
525
533
532
521
502
479
457
442
437
445
463
491
523
554
578
594
598
592
579
564
549
539
535
537
544
553
561
566
567
564
558
553
552
556
566
579
593
605
608
599
577
543
502
458
420
395
387
399
430
475
527
576
616
639
643
628
595
552
503
454
408
369
336
310
288
270
256
244
237
236
241
252
267
283
296
304
303
295
280
262
246
235
232
239
254
274
296
315
328
335
335
330
323
318
316
317
322
328
332
332
326
317
304
292
283
280
283
292
303
312
317
313
301
280
255
232
215
210
219
242
276
315
353
382
398
399
384
357
323
290
262
244
236
238
246
255
264
267
264
256
245
235
228
226
228
233
238
240
237
227
211
192
172
156
148
150
162
182
206
232
255
273
283
286
285
281
280
283
291
305
321
338
352
359
357
345
324
295
262
229
199
175
160
155
158
168
182
196
210
222
232
238
241
242
242
240
238
233
225
213
199
184
169
157
151
152
161
176
194
211
223
227
220
203
176
143
110
80
58
48
50
64
85
111
137
160
177
187
190
188
183
178
175
177
182
190
199
206
210
208
200
184
163
139
113
90
71
58
51
50
52
54
55
54
49
40
29
17
8
6
13
30
54
86
119
149
173
185
183
166
137
97
54
11
-24
-47
-57
-52
-35
-11
15
40
58
68
68
60
47
32
18
8
3
2
6
10
14
14
12
5
-3
-11
-17
-20
-16
-6
11
34
61
89
115
134
144
141
125
95
53
5
-44
-87
-117
-130
-121
-94
-51
-1
50
93
122
132
125
104
75
44
21
9
14
34
65
101
135
160
171
165
141
104
57
9
-34
-67
-86
-89
-77
-53
-21
14
48
79
103
122
135
145
151
155
156
155
150
140
124
103
80
57
40
31
33
46
70
100
132
159
178
183
174
152
121
87
56
34
24
28
44
69
98
126
148
160
162
153
137
119
102
89
83
84
90
101
113
125
134
139
140
137
131
123
114
104
93
82
72
62
53
46
43
44
50
59
71
83
93
99
100
97
90
80
70
61
54
52
53
56
61
68
76
84
94
105
118
131
143
153
160
163
164
165
167
174
187
209
238
273
308
339
362
372
369
354
329
298
265
236
215
201
197
200
209
221
236
252
267
281
292
302
310
316
319
321
322
323
326
330
336
343
352
361
370
381
393
406
421
438
457
478
498
515
526
530
526
514
496
473
450
428
409
393
380
370
361
351
341
331
322
314
308
304
303
302
300
295
284
267
243
213
182
151
124
103
90
86
88
95
103
111
115
114
110
104
101
103
113
133
161
194
228
256
272
272
255
223
180
134
93
65
55
63
87
120
155
182
194
185
157
112
57
2
-45
-77
-89
-79
-51
-9
39
86
126
153
166
162
143
111
73
30
-12
-48
-72
-83
-78
-58
-25
18
63
104
134
148
144
122
87
45
3
-33
-56
-63
-54
-33
-4
27
53
72
81
80
71
57
43
31
25
25
34
49
68
90
114
136
154
167
173
171
160
140
113
83
50
19
-9
-33
-53
-71
-90
-112
-137
-161
-181
-192
-185
-152
-89
9
139
297
476
666
857
1042
1216
1379
1534
1685
1838
2001
2174
2357
2546
2731
2903
3047
3150
3201
3193
3120
2984
2789
2545
2264
1960
1650
1349
1070
824
618
452
328
240
181
144
122
107
97
89
83
80
79
82
89
99
112
129
149
173
203
240
283
331
381
427
463
485
487
468
429
377
320
269
235
226
245
291
358
434
507
566
599
600
573
521
457
391
337
302
292
306
340
386
434
477
508
524
526
515
498
477
459
443
431
423
417
413
409
407
408
413
422
435
451
466
476
477
469
450
423
392
363
341
330
331
346
371
402
433
460
477
483
481
471
458
447
441
445
457
478
505
536
565
590
612
626
632
631
624
612
598
582
567
554
545
539
539
545
555
568
581
592
601
605
603
596
583
566
547
527
509
495
486
483
488
501
520
545
572
600
626
647
664
674
679
679
677
674
673
674
679
687
698
711
726
740
753
767
782
797
812
827
841
850
855
855
851
843
837
836
844
861
891
930
975
1020
1057
1082
1090
1080
1053
1014
970
928
896
880
883
907
949
1004
1067
1130
1187
1233
1264
1279
1280
1268
1250
1229
1211
1200
1199
1211
1235
1268
1306
1345
1380
1405
1417
1415
1401
1377
1348
1319
1296
1284
1283
1296
1319
1349
1382
1415
1442
1462
1475
1480
1479
1474
1470
1468
1469
1475
1484
1498
1515
1536
1558
1581
1606
1630
1654
1675
1693
1705
1709
1704
1690
1668
1640
1610
1582
1560
1548
1549
1564
1591
1627
1667
1704
1733
1750
1751
1735
1704
1663
1615
1568
1526
1494
1471
1456
1449
1443
1436
1423
1402
1373
1334
1288
1239
1188
1139
1093
1052
1018
989
965
944
925
907
889
868
847
825
803
784
768
756
750
748
748
746
738
721
690
646
592
531
471
418
380
361
364
386
422
465
504
530
540
529
500
457
407
359
319
293
282
286
301
323
344
362
371
373
366
354
339
324
311
299
287
274
258
239
215
189
164
142
127
122
127
142
165
191
217
239
253
259
256
247
235
225
219
220
228
240
255
269
276
276
266
248
223
196
168
145
127
117
112
112
113
114
113
111
108
106
107
112
123
138
154
169
178
180
172
153
125
92
57
24
-2
-19
-26
-23
-12
6
27
48
68
84
95
100
99
90
73
50
22
-11
-44
-75
-101
-118
-122
-115
-95
-67
-34
-1
26
41
43
30
5
-26
-58
-84
-98
-97
-80
-49
-10
33
70
98
111
108
89
58
20
-20
-58
-91
-116
-136
-153
-167
-182
-197
-213
-228
-240
-245
-242
-230
-210
-184
-155
-128
-108
-97
-98
-109
-128
-153
-179
-202
-217
-223
-220
-210
-194
-175
-158
-143
-134
-128
-126
-125
-124
-122
-119
-116
-115
-117
-124
-137
-156
-177
-198
-214
-222
-220
-205
-181
-149
-114
-83
-58
-44
-41
-49
-68
-92
-119
-143
-163
-176
-181
-181
-176
-170
-163
-158
-157
-159
-164
-171
-178
-182
-184
-180
-173
-165
-159
-159
-166
-184
-212
-250
-294
-338
-377
-404
-416
-410
-387
-351
-306
-259
-215
-179
-155
-143
-142
-149
-161
-173
-183
-190
-195
-199
-204
-212
-225
-243
-265
-287
-307
-323
-332
-333
-327
-317
-306
-296
-292
-294
-304
-318
-333
-345
-352
-352
-343
-327
-308
-289
-274
-268
-273
-289
-313
-340
-367
-389
-400
-400
-389
-368
-341
-314
-290
-275
-269
-273
-285
-303
-323
-340
-352
-355
-349
-334
-313
-289
-268
-255
-252
-263
-287
-322
-363
-403
-436
-455
-456
-437
-400
-349
-292
-238
-195
-168
-163
-176
-205
-243
-280
-310
-325
-324
-305
-273
-234
-195
-162
-141
-135
-145
-167
-197
-231
-261
-285
-299
-302
-295
-280
-261
-242
-225
-215
-210
-211
-218
-227
-236
-242
-240
-230
-211
-185
-153
-119
-88
-64
-50
-47
-57
-77
-104
-134
-161
-182
-192
-191
-178
-157
-132
-108
-89
-80
-82
-94
-116
-143
-169
-190
-202
-201
-187
-163
-132
-98
-68
-45
-31
-29
-36
-48
-63
-76
-82
-83
-77
-67
-57
-49
-46
-51
-62
-78
-96
-111
-119
-118
-106
-84
-54
-21
10
34
47
48
35
12
-18
-50
-77
-95
-101
-94
-74
-46
-15
13
34
43
38
23
-1
-29
-55
-74
-82
-79
-64
-42
-16
8
26
38
41
39
34
30
28
31
39
49
60
69
73
74
72
70
71
78
91
109
130
149
161
162
151
128
96
59
25
0
-12
-9
8
36
71
108
142
170
193
210
222
231
236
237
233
223
206
182
155
127
106
95
98
117
151
193
237
273
294
293
271
230
177
122
76
46
41
62
106
166
232
293
339
365
368
350
317
279
243
217
207
212
229
252
274
286
283
264
230
189
147
114
98
103
130
175
231
288
336
369
382
374
349
311
269
230
200
183
180
190
211
238
267
295
318
335
345
348
345
336
323
309
296
287
285
292
310
335
366
398
425
442
447
438
417
387
356
332
320
326
349
388
438
489
531
556
560
538
495
437
373
315
272
252
260
293
345
408
471
523
557
568
557
526
485
443
409
391
393
417
460
517
578
635
681
711
721
712
688
655
617
581
549
526
510
499
490
478
461
436
403
364
321
279
241
212
195
190
197
213
234
257
279
297
308
311
307
298
283
263
241
219
198
182
172
168
171
180
192
205
213
216
209
195
173
148
124
105
92
88
91
97
102
102
93
75
49
20
-10
-33
-47
-47
-36
-16
7
29
44
49
44
31
14
-2
-13
-17
-11
2
21
40
56
66
69
64
53
39
23
8
-3
-9
-12
-11
-8
-4
-1
0
-2
-7
-13
-21
-28
-35
-40
-42
-40
-35
-28
-18
-7
3
11
17
21
24
26
28
30
33
37
40
42
42
40
35
27
16
1
-17
-38
-62
-89
-118
-145
-170
-189
-198
-195
-178
-147
-102
-45
24
105
198
303
424
561
717
890
1080
1283
1492
1702
1909
2109
2298
2476
2642
2795
2930
3042
3122
3160
3144
3067
2922
2711
2442
2129
1791
1448
1123
833
589
398
259
166
110
79
63
53
43
30
14
-4
-24
-44
-61
-75
-85
-91
-91
-84
-69
-44
-11
30
76
126
174
217
252
278
292
295
287
271
249
222
192
160
126
91
55
21
-10
-35
-53
-60
-56
-42
-19
11
44
74
98
112
116
109
93
72
49
31
19
17
25
42
63
86
107
121
125
119
104
83
60
41
30
32
47
74
112
154
194
226
244
245
227
193
148
98
53
18
0
0
19
54
99
147
193
231
257
271
273
265
250
230
207
183
159
134
110
88
70
60
58
67
87
117
153
190
224
250
262
261
248
226
201
176
158
148
148
155
168
182
193
200
201
198
195
194
198
210
229
253
279
302
320
330
332
326
315
303
293
288
287
292
300
309
319
327
335
342
352
366
384
406
429
451
466
474
470
458
439
418
397
384
384
399
428
469
517
568
617
658
688
707
714
711
703
692
685
684
692
711
739
776
818
860
900
932
954
965
965
956
943
930
920
918
926
943
967
997
1030
1062
1091
1118
1143
1168
1194
1222
1250
1277
1300
1315
1319
1311
1292
1266
1239
1217
1206
1211
1233
1270
1320
1374
1427
1470
1499
1512
1510
1499
1485
1472
1467
1473
1490
1517
1549
1583
1611
1632
1643
1643
1635
1622
1608
1596
1588
1585
1590
1599
1613
1628
1643
1656
1665
1668
1664
1650
1627
1595
1555
1509
1461
1413
1371
1337
1313
1297
1287
1279
1268
1250
1220
1177
1122
1059
994
933
882
844
820
810
807
806
799
780
747
698
635
564
491
423
366
325
299
289
288
293
298
300
295
284
267
246
225
207
191
179
169
158
145
127
103
73
39
4
-31
-62
-87
-106
-119
-125
-128
-127
-125
-121
-117
-113
-110
-106
-105
-108
-115
-127
-142
-157
-170
-177
-176
-166
-146
-122
-97
-76
-67
-71
-91
-124
-165
-207
-243
-267
-275
-267
-246
-218
-189
-166
-154
-157
-174
-203
-239
-277
-311
-338
-354
-358
-350
-331
-301
-266
-227
-188
-151
-120
-98
-86
-84
-89
-98
-108
-113
-112
-103
-89
-73
-60
-55
-62
-83
-115
-156
-198
-235
-261
-274
-273
-261
-243
-227
-219
-221
-236
-262
-293
-326
-354
-373
-383
-382
-374
-361
-347
-335
-327
-321
-317
-313
-308
-299
-285
-267
-248
-231
-218
-213
-216
-229
-251
-280
-313
-348
-382
-412
-435
-450
-458
-460
-455
-447
-436
-423
-409
-393
-375
-356
-336
-315
-297
-281
-270
-265
-266
-273
-284
-295
-305
-311
-312
-308
-301
-294
-290
-290
-297
-310
-329
-352
-375
-394
-407
-414
-414
-408
-397
-383
-367
-352
-337
-323
-307
-291
-274
-258
-242
-230
-223
-223
-233
-251
-278
-309
-344
-377
-406
-427
-439
-439
-429
-410
-385
-358
-335
-318
-310
-310
-319
-334
-351
-365
-371
-365
-345
-310
-262
-203
-140
-78
-23
18
40
42
22
-19
-75
-141
-210
-275
-328
-364
-381
-378
-355
-317
-268
-217
-171
-136
-117
-115
-132
-164
-207
-256
-305
-347
-378
-395
-398
-388
-368
-341
-311
-284
-264
-251
-249
-258
-275
-299
-326
-351
-370
-380
-379
-368
-348
-325
-302
-284
-277
-282
-302
-333
-373
-416
-456
-488
-507
-512
-502
-479
-447
-411
-377
-348
-330
-321
-324
-335
-354
-378
-404
-430
-454
-472
-484
-485
-474
-450
-411
-358
-295
-225
-155
-94
-47
-23
-23
-50
-98
-162
-231
-296
-348
-380
-390
-378
-351
-318
-285
-262
-254
-261
-282
-310
-340
-364
-377
-377
-364
-344
-320
-297
-281
-274
-278
-290
-309
-330
-353
-376
-399
-424
-453
-485
-519
-553
-582
-602
-608
-597
-569
-528
-477
-424
-376
-339
-319
-319
-338
-374
-422
-476
-530
-578
-616
-640
-649
-645
-628
-603
-573
-542
-513
-490
-473
-464
-462
-465
-473
-483
-495
-507
-521
-535
-550
-564
-576
-584
-584
-574
-552
-517
-470
-414
-354
-296
-247
-212
-196
-198
-218
-249
-287
-323
-352
-368
-369
-354
-328
-295
-261
-229
-207
-197
-197
-207
-223
-240
-253
-259
-259
-255
-249
-244
-244
-253
-270
-292
-316
-335
-342
-331
-300
-251
-189
-123
-63
-20
-1
-11
-49
-106
-174
-241
-295
-326
-330
-306
-258
-196
-129
-68
-23
1
2
-18
-54
-100
-147
-190
-222
-242
-247
-241
-225
-203
-180
-159
-143
-133
-131
-135
-144
-157
-170
-182
-193
-204
-214
-224
-235
-247
-259
-269
-274
-275
-268
-253
-233
-210
-188
-171
-162
-162
-172
-188
-207
-223
-233
-235
-228
-216
-201
-190
-187
-194
-209
-232
-257
-278
-291
-292
-280
-258
-231
-206
-187
-181
-188
-208
-236
-269
-300
-321
-332
-332
-321
-304
-287
-273
-267
-269
-279
-294
-311
-326
-336
-340
-338
-331
-322
-315
-309
-306
-305
-303
-300
-295
-285
-274
-263
-258
-262
-278
-305
-343
-387
-431
-469
-492
-497
-481
-445
-394
-335
-276
-225
-186
-163
-155
-158
-166
-173
-173
-161
-137
-101
-53
-1
51
95
127
144
146
134
110
77
42
7
-26
-54
-79
-99
-118
-135
-152
-169
-185
-196
-201
-199
-189
-172
-150
-127
-108
-95
-91
-96
-109
-125
-140
-151
-154
-150
-141
-132
-128
-133
-150
-179
-215
-252
-282
-298
-294
-272
-234
-189
-146
-116
-106
-121
-159
-214
-277
-334
-373
-387
-372
-331
-270
-201
-136
-88
-66
-72
-106
-160
-223
-287
-341
-377
-393
-391
-374
-351
-328
-311
-306
-313
-331
-356
-382
-408
-428
-441
-447
-445
-439
-431
-422
-412
-403
-393
-380
-364
-346
-326
-305
-286
-271
-260
-258
-263
-276
-295
-317
-341
-364
-386
-404
-417
-425
-426
-421
-409
-389
-361
-325
-284
-240
-199
-168
-153
-159
-191
-249
-328
-421
-518
-609
-682
-727
-739
-719
-673
-608
-535
-464
-404
-359
-327
-303
-276
-234
-167
-65
74
250
455
679
909
1133
1342
1530
1698
1848
1987
2123
2262
2405
2549
2685
2799
2876
2902
2865
2757
2580
2342
2056
1741
1416
1099
804
543
320
137
-11
-128
-217
-283
-330
-359
-372
-371
-359
-338
-311
-280
-246
-210
-171
-128
-82
-34
16
61
98
121
128
118
93
58
19
-18
-49
-70
-82
-88
-92
-99
-113
-134
-159
-186
-207
-218
-216
-199
-170
-133
-95
-62
-39
-28
-29
-39
-55
-73
-87
-95
-96
-90
-81
-68
-55
-43
-32
-22
-12
-1
11
25
40
56
69
79
85
85
79
68
52
34
15
-1
-14
-22
-25
-24
-22
-19
-21
-29
-46
-71
-104
-144
-184
-220
-247
-261
-256
-233
-192
-137
-71
-3
60
111
144
155
145
114
67
11
-47
-100
-140
-164
-169
-155
-127
-91
-51
-15
11
23
21
6
-19
-48
-76
-97
-106
-102
-85
-57
-21
16
48
71
80
75
57
30
-3
-35
-61
-75
-75
-60
-31
7
51
93
129
154
166
165
153
135
114
97
86
86
96
117
146
180
215
247
273
290
297
294
280
258
231
201
174
153
144
148
167
202
252
310
372
431
481
519
541
548
542
530
517
511
516
537
575
626
687
750
809
857
889
903
898
878
847
813
781
759
752
763
792
837
893
955
1017
1073
1117
1148
1164
1166
1160
1150
1140
1137
1143
1161
1190
1230
1276
1325
1375
1420
1459
1490
1513
1527
1535
1537
1536
1533
1530
1528
1526
1526
1526
1527
1526
1522
1516
1506
1495
1481
1467
1454
1442
1435
1431
1431
1433
1438
1444
1452
1459
1465
1469
1470
1467
1460
1447
1430
1407
1380
1348
1314
1279
1244
1211
1183
1158
1138
1121
1107
1093
1077
1057
1030
994
951
899
842
782
724
673
632
603
587
580
580
580
575
560
532
490
437
378
319
268
231
212
210
225
250
279
304
320
321
306
275
231
179
124
71
23
-16
-45
-64
-71
-68
-57
-38
-13
15
45
71
89
97
92
73
42
1
-42
-81
-110
-124
-119
-96
-59
-14
31
66
85
82
57
13
-44
-106
-163
-206
-231
-233
-215
-180
-137
-94
-59
-37
-32
-43
-68
-99
-130
-154
-167
-166
-151
-127
-100
-77
-63
-62
-76
-102
-137
-173
-205
-226
-232
-222
-199
-170
-138
-111
-95
-91
-99
-117
-140
-165
-187
-201
-210
-211
-207
-201
-196
-194
-193
-196
-200
-203
-204
-201
-194
-184
-171
-158
-146
-137
-133
-136
-148
-166
-193
-224
-256
-284
-304
-312
-302
-275
-232
-177
-116
-56
-4
34
54
55
38
10
-25
-62
-94
-119
-134
-140
-137
-127
-112
-93
-71
-45
-16
13
41
67
87
100
103
96
80
59
36
16
3
-1
6
23
47
73
97
113
118
111
92
65
34
4
-19
-32
-31
-19
4
31
58
78
87
84
69
45
17
-7
-24
-28
-18
5
39
77
115
146
167
175
170
155
135
113
93
78
69
65
65
67
68
67
65
61
58
57
57
59
62
65
62
53
34
6
-27
-62
-94
-116
-125
-117
-94
-60
-20
15
41
50
43
21
-12
-47
-75
-89
-84
-60
-22
23
65
94
101
85
46
-9
-72
-131
-175
-198
-196
-171
-130
-82
-36
-3
11
5
-19
-55
-96
-133
-160
-173
-171
-157
-136
-113
-94
-84
-86
-100
-123
-153
-184
-212
-231
-238
-232
-214
-186
-150
-112
-77
-51
-39
-41
-60
-94
-137
-183
-226
-259
-278
-279
-264
-236
-203
-170
-142
-125
-120
-126
-141
-160
-177
-188
-192
-187
-176
-163
-150
-142
-140
-143
-152
-163
-176
-187
-197
-203
-208
-212
-217
-223
-231
-241
-251
-261
-268
-272
-272
-268
-259
-248
-234
-221
-210
-202
-199
-201
-208
-219
-232
-244
-252
-255
-249
-237
-218
-197
-174
-156
-144
-142
-148
-163
-183
-205
-224
-239
-246
-246
-239
-224
-206
-187
-168
-153
-141
-134
-133
-135
-143
-153
-165
-176
-186
-193
-195
-194
-190
-184
-178
-176
-177
-183
-193
-206
-219
-230
-236
-236
-230
-220
-207
-195
-185
-179
-176
-175
-174
-170
-162
-149
-132
-114
-98
-87
-85
-93
-111
-137
-168
-198
-225
-244
-255
-258
-257
-254
-254
-260
-273
-292
-317
-344
-369
-387
-395
-395
-385
-369
-349
-329
-312
-299
-293
-290
-291
-292
-291
-288
-283
-276
-270
-267
-272
-284
-304
-331
-362
-392
-417
-432
-435
-426
-405
-378
-348
-322
-303
-296
-302
-320
-345
-372
-395
-409
-412
-402
-383
-356
-329
-305
-292
-290
-300
-318
-340
-360
-372
-371
-356
-329
-294
-256
-223
-201
-194
-204
-229
-264
-302
-336
-360
-369
-362
-340
-310
-278
-249
-230
-223
-227
-241
-258
-274
-282
-281
-268
-246
-221
-196
-176
-165
-164
-172
-186
-201
-212
-215
-209
-194
-172
-148
-127
-113
-108
-111
-120
-129
-133
-129
-113
-84
-45
2
49
91
122
138
136
118
86
44
-2
-49
-94
-133
-167
-196
-222
-245
-268
-292
-314
-336
-356
-372
-383
-387
-382
-369
-351
-328
-305
-283
-269
-265
-273
-295
-328
-370
-414
-457
-493
-516
-526
-520
-502
-476
-445
-415
-390
-371
-360
-356
-357
-360
-364
-368
-371
-374
-377
-378
-379
-378
-376
-370
-360
-349
-337
-327
-323
-326
-338
-358
-383
-410
-434
-451
-461
-464
-460
-455
-454
-460
-476
-500
-529
-559
-582
-592
-583
-556
-510
-451
-387
-327
-280
-250
-241
-251
-277
-312
-348
-380
-402
-413
-415
-411
-405
-401
-403
-412
-427
-443
-456
-462
-455
-435
-404
-366
-326
-291
-267
-261
-273
-303
-348
-402
-459
-515
-563
-601
-629
-646
-655
-656
-650
-638
-619
-591
-552
-501
-436
-357
-263
-155
-32
105
258
426
611
813
1029
1257
1494
1734
1970
2195
2404
2590
2746
2867
2946
2979
2961
2890
2765
2588
2367
2110
1831
1544
1264
1004
774
579
419
293
193
113
47
-11
-61
-104
-138
-160
-168
-162
-144
-117
-87
-59
-36
-20
-12
-10
-9
-5
6
24
52
85
121
155
182
200
207
204
193
178
162
149
143
144
152
164
179
191
197
193
178
153
121
85
51
26
14
20
44
86
141
202
263
315
354
375
378
366
342
312
282
260
248
249
263
287
317
352
385
415
438
453
460
459
451
436
416
395
372
352
337
327
325
329
338
350
361
368
368
361
347
329
309
294
286
287
298
316
338
358
373
380
377
366
351
337
329
329
340
357
377
395
403
399
379
345
304
263
230
212
213
233
267
309
350
381
396
391
369
333
293
257
235
231
247
280
327
378
426
464
486
492
483
464
439
415
397
388
389
402
425
456
494
537
582
629
672
709
738
753
752
735
703
662
616
575
547
537
550
585
640
706
776
841
893
929
949
955
952
947
946
953
971
997
1028
1062
1094
1120
1140
1154
1165
1174
1182
1191
1201
1211
1220
1226
1228
1228
1228
1230
1238
1253
1277
1309
1349
1391
1430
1463
1485
1497
1499
1492
1481
1470
1462
1460
1466
1478
1495
1513
1531
1546
1558
1565
1571
1577
1585
1598
1617
1641
1668
1696
1721
1741
1755
1762
1762
1758
1753
1749
1748
1753
1761
1771
1782
1792
1798
1801
1803
1803
1804
1807
1811
1815
1816
1812
1799
1775
1738
1690
1635
1578
1522
1472
1431
1401
1379
1363
1350
1335
1315
1288
1254
1215
1172
1129
1087
1047
1011
977
944
909
873
834
792
749
704
659
615
573
533
494
455
416
378
340
304
271
245
226
217
216
222
232
244
253
258
254
241
221
195
166
138
113
93
79
72
68
68
68
67
64
58
51
43
35
27
19
10
-1
-15
-31
-48
-64
-77
-82
-79
-67
-48
-24
0
18
26
21
2
-29
-68
-111
-150
-181
-198
-201
-188
-162
-127
-87
-46
-7
26
53
72
85
92
95
95
94
92
88
83
76
65
50
32
11
-10
-28
-39
-40
-27
0
39
87
137
183
219
240
244
231
206
175
144
120
106
106
117
135
155
171
179
175
161
139
112
85
63
49
44
50
63
83
106
129
149
164
173
173
163
144
118
85
51
19
-7
-23
-27
-17
5
34
68
100
125
139
139
128
106
80
55
36
27
30
45
69
98
128
154
168
170
158
133
99
60
19
-18
-49
-71
-86
-93
-94
-92
-89
-86
-80
-71
-58
-38
-11
24
63
103
138
163
173
163
133
84
20
-51
-121
-181
-223
-242
-236
-205
-156
-95
-32
24
63
81
75
48
4
-50
-107
-157
-194
-213
-212
-192
-157
-110
-56
-2
47
86
114
126
123
106
78
43
6
-25
-46
-50
-39
-12
26
67
103
126
129
110
69
9
-61
-131
-190
-230
-247
-239
-208
-161
-106
-52
-7
25
40
40
28
8
-16
-40
-60
-78
-92
-105
-117
-129
-140
-149
-155
-156
-151
-138
-119
-96
-72
-50
-33
-22
-18
-23
-34
-50
-66
-81
-93
-99
-98
-91
-81
-66
-50
-33
-17
-3
8
16
21
23
22
19
15
9
3
-4
-12
-22
-32
-41
-48
-53
-54
-53
-50
-45
-40
-36
-35
-36
-38
-41
-40
-37
-31
-22
-12
-4
-1
-6
-21
-43
-70
-99
-123
-139
-143
-134
-114
-86
-57
-31
-14
-8
-14
-29
-49
-70
-88
-98
-98
-87
-67
-40
-9
23
52
77
94
104
104
96
80
60
38
16
-2
-15
-21
-22
-19
-14
-9
-7
-7
-11
-14
-17
-15
-5
12
35
61
87
108
119
117
101
71
33
-8
-46
-76
-93
-95
-82
-57
-26
5
32
49
54
46
30
8
-13
-29
-38
-39
-31
-20
-9
-1
-1
-8
-21
-35
-46
-50
-45
-29
-5
23
48
65
69
58
31
-8
-54
-100
-139
-167
-182
-183
-173
-155
-134
-115
-101
-95
-97
-104
-115
-126
-135
-138
-136
-126
-111
-93
-76
-63
-57
-60
-74
-97
-128
-162
-194
-220
-238
-245
-242
-229
-211
-191
-173
-158
-149
-147
-152
-163
-179
-200
-227
-257
-289
-321
-350
-370
-378
-370
-345
-305
-254
-197
-142
-98
-71
-63
-75
-102
-138
-175
-206
-226
-234
-231
-220
-207
-199
-200
-212
-233
-260
-287
-309
-319
-315
-300
-274
-244
-214
-190
-175
-170
-174
-182
-192
-199
-201
-195
-182
-163
-140
-117
-95
-76
-60
-50
-44
-46
-55
-74
-102
-139
-182
-227
-267
-299
-315
-311
-287
-245
-190
-129
-70
-24
4
11
-3
-32
-71
-110
-141
-157
-156
-136
-101
-54
-5
42
82
110
127
133
130
121
110
101
95
92
93
96
99
103
104
102
95
83
67
47
24
-1
-25
-49
-73
-97
-121
-147
-174
-202
-229
-255
-275
-289
-295
-294
-287
-277
-268
-264
-267
-279
-300
-327
-356
-383
-402
-411
-407
-391
-366
-334
-299
-267
-239
-219
-209
-208
-214
-227
-244
-263
-280
-294
-303
-305
-300
-287
-269
-248
-230
-217
-214
-222
-242
-270
-303
-335
-360
-373
-374
-362
-340
-312
-287
-268
-262
-269
-289
-319
-354
-389
-418
-436
-443
-439
-423
-399
-369
-336
-302
-270
-242
-219
-203
-196
-198
-211
-234
-265
-303
-344
-384
-420
-447
-464
-469
-460
-440
-410
-372
-332
-293
-259
-234
-221
-222
-237
-267
-307
-355
-403
-447
-481
-502
-510
-505
-491
-472
-454
-441
-437
-442
-455
-470
-482
-483
-467
-428
-364
-272
-155
-15
145
321
508
703
905
1112
1323
1539
1757
1974
2188
2393
2580
2743
2872
2957
2992
2970
2888
2746
2550
2308
2032
1734
1430
1134
857
609
395
216
72
-40
-127
-193
-244
-283
-313
-336
-352
-362
-363
-358
-347
-331
-311
-288
-265
-242
-219
-196
-172
-147
-122
-97
-72
-52
-37
-31
-34
-48
-72
-106
-146
-189
-230
-264
-286
-295
-287
-263
-227
-182
-137
-97
-70
-62
-73
-105
-153
-210
-267
-316
-349
-360
-346
-311
-260
-200
-140
-87
-47
-23
-14
-16
-25
-36
-43
-44
-38
-25
-9
8
22
30
32
28
18
4
-13
-32
-52
-73
-93
-113
-130
-144
-152
-153
-144
-127
-103
-74
-43
-14
11
29
39
43
43
41
40
43
51
63
79
98
116
134
148
159
166
169
168
164
155
141
122
97
68
35
3
-26
-47
-56
-52
-35
-5
35
79
123
162
192
214
226
230
231
229
227
228
232
237
242
247
249
249
245
239
231
223
218
214
214
218
227
239
253
269
285
298
306
309
305
295
281
268
258
256
265
287
320
360
403
444
475
496
503
500
490
477
468
467
475
494
520
552
586
618
646
673
699
726
756
789
825
861
892
915
927
928
920
906
891
881
881
892
913
940
969
996
1016
1028
1032
1034
1037
1046
1065
1094
1132
1176
1221
1262
1298
1328
1353
1377
1403
1434
1471
1510
1549
1582
1603
1610
1602
1581
1553
1526
1507
1502
1514
1541
1579
1621
1662
1693
1710
1713
1703
1685
1663
1644
1631
1626
1631
1644
1661
1680
1697
1709
1716
1715
1706
1688
1663
1631
1594
1552
1510
1470
1434
1403
1378
1357
1338
1318
1292
1258
1216
1166
1111
1054
1001
956
921
897
882
873
866
856
840
814
777
731
677
619
560
503
451
405
366
337
316
305
301
304
311
321
330
336
337
331
318
298
275
250
227
208
193
183
179
177
175
174
170
166
160
154
149
146
144
144
143
139
132
119
100
77
51
27
5
-10
-18
-18
-10
2
16
28
37
39
36
29
19
9
1
-4
-4
0
8
17
26
33
36
35
32
26
20
16
13
14
17
23
29
36
42
46
49
50
50
50
51
54
58
62
69
78
89
99
110
121
131
138
143
146
145
143
139
136
134
135
139
144
151
158
162
163
159
150
137
122
108
96
87
83
83
87
95
103
111
119
127
136
145
155
166
177
187
195
200
201
200
196
190
183
177
174
173
175
179
185
192
198
203
204
199
187
168
142
111
80
52
30
19
19
31
53
79
104
121
128
123
106
83
60
42
33
37
51
71
89
99
94
73
35
-13
-64
-108
-137
-145
-131
-95
-44
13
69
115
145
158
153
135
109
78
47
20
0
-14
-19
-18
-10
4
23
44
65
82
92
92
80
55
20
-21
-64
-102
-132
-149
-152
-143
-125
-103
-82
-64
-54
-51
-53
-57
-60
-59
-52
-39
-22
-4
11
19
17
6
-12
-32
-50
-61
-60
-47
-22
11
45
74
91
93
78
48
7
-37
-78
-108
-124
-122
-105
-76
-40
-4
27
49
59
60
53
40
25
11
0
-10
-18
-27
-37
-50
-65
-81
-96
-108
-115
-115
-108
-95
-79
-63
-48
-38
-35
-39
-49
-63
-79
-94
-107
-119
-129
-139
-150
-163
-178
-194
-208
-217
-218
-209
-191
-163
-132
-101
-78
-68
-74
-98
-137
-186
-239
-286
-322
-341
-341
-324
-295
-260
-226
-199
-184
-181
-188
-201
-213
-218
-211
-191
-159
-119
-76
-39
-14
-7
-19
-48
-89
-135
-176
-205
-216
-206
-177
-132
-80
-28
15
43
54
48
29
1
-29
-55
-74
-82
-78
-66
-48
-30
-13
-2
1
-2
-9
-17
-23
-22
-15
-1
17
36
50
53
42
14
-31
-88
-152
-216
-272
-314
-336
-339
-323
-293
-255
-214
-177
-147
-124
-109
-99
-93
-88
-83
-79
-77
-78
-83
-92
-103
-114
-121
-122
-117
-107
-94
-81
-72
-70
-76
-89
-107
-124
-137
-141
-135
-119
-96
-71
-49
-36
-35
-45
-64
-87
-111
-129
-138
-138
-129
-116
-101
-89
-82
-80
-83
-87
-87
-82
-70
-51
-28
-8
6
8
-4
-29
-66
-108
-147
-176
-189
-183
-159
-123
-81
-43
-15
-2
-8
-31
-66
-109
-154
-193
-225
-247
-260
-264
-261
-252
-236
-213
-182
-144
-101
-57
-16
14
27
19
-10
-57
-118
-183
-243
-290
-318
-324
-311
-283
-248
-214
-187
-171
-168
-177
-195
-218
-244
-268
-289
-306
-319
-328
-333
-332
-325
-311
-288
-258
-222
-183
-145
-112
-87
-71
-66
-70
-80
-94
-107
-119
-126
-128
-127
-125
-122
-120
-121
-125
-131
-138
-144
-148
-150
-148
-142
-134
-125
-117
-112
-110
-115
-124
-137
-153
-167
-178
-182
-177
-162
-137
-104
-66
-27
9
40
62
77
84
87
88
91
99
113
133
156
178
195
200
191
164
120
63
-3
-72
-135
-185
-219
-235
-232
-215
-190
-165
-145
-137
-144
-164
-195
-232
-268
-297
-313
-312
-294
-262
-222
-181
-146
-122
-116
-128
-156
-196
-241
-284
-318
-338
-341
-329
-305
-276
-247
-225
-214
-217
-233
-259
-291
-323
-351
-372
-385
-390
-387
-379
-367
-353
-338
-321
-303
-285
-267
-253
-243
-240
-244
-257
-276
-300
-325
-348
-366
-375
-375
-367
-352
-330
-306
-281
-257
-237
-221
-211
-207
-212
-224
-242
-264
-288
-310
-326
-334
-330
-315
-292
-262
-232
-206
-186
-176
-175
-182
-194
-209
-223
-234
-243
-249
-254
-259
-267
-279
-294
-313
-335
-359
-384
-409
-435
-461
-488
-512
-531
-544
-547
-537
-511
-470
-412
-338
-249
-146
-28
104
250
411
586
774
972
1177
1386
1595
1801
2002
2195
2378
2547
2697
2822
2913
2960
2958
2900
2784
2611
2388
2128
1843
1550
1263
994
752
543
366
222
104
9
-68
-132
-186
-232
-270
-302
-328
-348
-362
-369
-367
-355
-332
-297
-250
-194
-132
-70
-13
32
61
73
66
45
15
-17
-44
-60
-61
-47
-20
15
51
81
102
112
108
93
72
48
26
9
-1
-5
-4
-1
3
6
7
7
7
9
14
23
35
51
67
82
94
101
102
98
88
74
59
43
28
16
8
6
8
14
23
33
40
44
43
38
28
15
4
-3
-5
0
11
26
41
52
56
51
37
17
-8
-30
-47
-52
-46
-29
-3
27
56
78
88
86
72
48
19
-11
-35
-51
-54
-45
-24
5
39
72
101
123
135
138
133
122
108
95
85
80
80
83
89
94
97
96
93
87
81
76
75
80
91
109
133
161
191
222
251
277
299
317
331
341
347
351
352
352
352
352
354
360
369
382
400
422
447
473
500
525
547
565
578
585
586
581
572
561
550
543
541
547
562
585
615
650
687
722
752
773
786
790
789
784
779
777
780
787
800
817
835
855
872
886
899
910
920
930
941
953
967
981
996
1010
1025
1042
1062
1086
1114
1147
1183
1221
1257
1290
1317
1338
1355
1367
1378
1390
1404
1420
1439
1458
1475
1488
1494
1493
1486
1476
1465
1457
1454
1458
1468
1481
1495
1507
1514
1516
1512
1506
1501
1499
1504
1516
1536
1562
1589
1613
1630
1639
1636
1625
1605
1582
1557
1533
1510
1488
1466
1439
1404
1361
1307
1246
1180
1115
1057
1010
976
955
944
937
927
908
874
825
762
691
618
553
500
463
441
431
426
417
396
360
307
241
169
100
44
7
-8
0
25
60
95
121
133
128
107
74
36
-1
-33
-55
-67
-70
-68
-64
-62
-64
-74
-90
-111
-138
-167
-197
-224
-246
-262
-270
-271
-265
-253
-238
-225
-220
-225
-241
-270
-308
-351
-391
-423
-439
-437
-415
-377
-328
-277
-231
-198
-182
-184
-202
-230
-263
-293
-314
-324
-320
-304
-280
-252
-227
-208
-198
-199
-210
-230
-257
-286
-314
-339
-357
-365
-363
-351
-331
-305
-276
-250
-229
-217
-216
-228
-250
-280
-313
-345
-370
-385
-389
-381
-364
-341
-315
-290
-270
-256
-250
-251
-258
-267
-277
-286
-292
-296
-297
-296
-295
-295
-298
-306
-319
-336
-358
-381
-405
-425
-440
-447
-445
-431
-404
-367
-322
-272
-223
-179
-145
-125
-122
-135
-162
-197
-235
-270
-296
-308
-307
-293
-271
-247
-227
-218
-221
-238
-266
-300
-335
-364
-383
-388
-382
-367
-349
-333
-324
-325
-336
-354
-374
-392
-402
-400
-387
-364
-337
-311
-292
-285
-292
-312
-342
-376
-408
-432
-444
-442
-428
-405
-379
-356
-340
-334
-341
-356
-376
-397
-413
-420
-417
-404
-383
-359
-337
-319
-311
-312
-321
-336
-352
-364
-370
-366
-352
-331
-306
-281
-259
-244
-238
-240
-248
-259
-270
-278
-282
-282
-277
-271
-265
-261
-261
-265
-271
-278
-284
-287
-284
-278
-268
-257
-249
-244
-247
-258
-276
-301
-329
-359
-385
-404
-414
-411
-395
-367
-328
-283
-235
-189
-148
-118
-101
-98
-109
-132
-163
-199
-236
-268
-293
-309
-314
-311
-301
-287
-272
-262
-259
-263
-275
-293
-316
-340
-361
-377
-384
-382
-370
-349
-322
-292
-261
-232
-208
-191
-182
-182
-190
-207
-229
-256
-283
-307
-324
-331
-325
-307
-275
-235
-192
-149
-114
-89
-78
-81
-96
-119
-147
-175
-198
-213
-219
-215
-204
-188
-169
-151
-136
-126
-122
-124
-131
-143
-158
-176
-195
-212
-226
-236
-239
-235
-227
-215
-203
-194
-191
-196
-212
-236
-265
-297
-325
-346
-354
-348
-328
-295
-254
-212
-173
-144
-127
-125
-137
-159
-186
-211
-230
-239
-238
-227
-210
-192
-179
-176
-184
-205
-234
-267
-298
-319
-326
-317
-290
-249
-199
-149
-108
-83
-79
-96
-134
-187
-247
-305
-354
-385
-395
-385
-359
-323
-283
-247
-221
-209
-212
-227
-251
-280
-309
-335
-357
-372
-382
-388
-390
-388
-382
-371
-356
-337
-316
-298
-286
-283
-292
-312
-343
-379
-415
-446
-469
-480
-479
-471
-459
-446
-436
-430
-429
-428
-424
-413
-394
-367
-336
-306
-283
-273
-279
-302
-338
-381
-421
-451
-464
-456
-429
-387
-340
-296
-264
-249
-253
-276
-311
-350
-385
-409
-420
-417
-402
-381
-360
-344
-336
-339
-350
-366
-383
-397
-405
-407
-405
-401
-397
-396
-400
-408
-418
-427
-432
-430
-419
-402
-381
-358
-338
-323
-315
-315
-320
-329
-338
-345
-349
-349
-347
-345
-343
-345
-350
-358
-369
-381
-392
-401
-405
-406
-401
-391
-376
-357
-333
-306
-276
-245
-217
-193
-177
-172
-178
-194
-219
-248
-277
-302
-317
-322
-317
-303
-285
-266
-253
-248
-253
-268
-291
-318
-345
-368
-384
-392
-393
-388
-380
-370
-357
-344
-327
-304
-274
-234
-184
-127
-67
-12
34
62
71
57
25
-21
-74
-125
-166
-192
-200
-193
-175
-153
-132
-120
-123
-141
-174
-219
-274
-332
-388
-440
-483
-517
-541
-554
-556
-548
-530
-505
-475
-443
-413
-387
-369
-359
-360
-367
-379
-391
-401
-403
-398
-387
-371
-357
-346
-343
-349
-365
-387
-411
-433
-448
-454
-451
-439
-421
-402
-387
-379
-379
-387
-401
-418
-434
-444
-446
-440
-426
-408
-389
-373
-362
-358
-362
-371
-384
-395
-404
-406
-400
-384
-361
-332
-299
-265
-234
-210
-194
-188
-191
-202
-221
-242
-264
-281
-290
-291
-282
-265
-243
-219
-198
-184
-179
-184
-196
-214
-232
-246
-252
-249
-237
-218
-198
-180
-170
-171
-184
-209
-242
-279
-314
-342
-360
-368
-365
-355
-342
-328
-317
-309
-305
-302
-296
-283
-259
-219
-160
-81
19
142
285
448
627
821
1024
1233
1443
1652
1856
2054
2243
2422
2588
2737
2860
2950
2995
2985
2912
2770
2562
2294
1981
1644
1304
985
705
476
304
187
113
70
42
15
-18
-64
-120
-183
-244
-297
-335
-357
-361
-350
-328
-299
-266
-233
-201
-170
-139
-108
-76
-44
-12
19
50
80
110
140
170
196
215
222
216
194
154
101
41
-18
-66
-97
-104
-87
-48
6
66
121
163
186
188
171
141
104
68
40
24
19
25
38
53
67
76
79
77
71
64
56
49
45
44
45
47
49
52
54
56
57
58
58
58
58
58
60
64
72
84
99
116
134
149
158
159
151
137
118
98
81
71
73
86
110
141
175
207
233
247
250
241
223
197
169
142
119
101
89
83
82
84
87
90
93
96
99
102
106
109
113
117
122
127
133
140
147
157
167
177
184
189
188
182
169
149
125
98
70
46
27
16
14
20
33
50
70
87
101
108
109
104
94
83
72
64
62
68
81
101
127
157
188
218
245
267
284
295
301
302
299
295
288
282
277
273
272
272
276
282
291
302
315
330
346
362
380
400
421
444
469
496
525
557
590
622
654
683
706
722
729
729
721
708
693
679
671
673
686
713
752
798
848
895
936
966
982
987
981
969
957
950
951
962
983
1013
1049
1087
1124
1157
1186
1208
1224
1234
1239
1239
1233
1223
1208
1190
1172
1155
1142
1135
1134
1140
1152
1166
1180
1191
1198
1200
1196
1186
1172
1153
1130
1103
1071
1034
993
950
907
866
831
804
786
773
764
753
735
707
665
612
550
484
422
370
332
313
311
321
338
354
361
354
330
288
230
162
90
21
-39
-86
-118
-135
-139
-133
-123
-112
-106
-106
-115
-133
-156
-185
-214
-243
-267
-286
-299
-306
-310
-313
-316
-321
-331
-346
-364
-385
-407
-428
-446
-459
-469
-477
-483
-490
-500
-514
-531
-549
-565
-577
-581
-575
-558
-530
-495
-457
-421
-393
-375
-369
-376
-393
-417
-444
-468
-488
-502
-509
-510
-507
-500
-492
-483
-474
-464
-454
-442
-429
-417
-406
-397
-391
-386
-383
-380
-378
-374
-370
-367
-365
-366
-370
-377
-386
-396
-401
-399
-389
-370
-343
-311
-279
-251
-230
-219
-218
-225
-237
-250
-260
-267
-269
-269
-269
-272
-281
-297
-318
-341
-360
-373
-375
-364
-341
-308
-271
-233
-201
-179
-170
-171
-181
-196
-211
-221
-227
-225
-218
-208
-198
-191
-189
-193
-203
-218
-236
-254
-272
-290
-307
-324
-340
-355
-367
-376
-377
-369
-352
-324
-290
-251
-213
-181
-157
-144
-142
-151
-165
-182
-198
-209
-213
-210
-201
-189
-174
-162
-151
-144
-139
-138
-139
-141
-146
-153
-163
-174
-187
-198
-205
-206
-200
-185
-162
-132
-99
-65
-34
-11
4
10
7
-1
-12
-23
-34
-42
-47
-51
-54
-59
-67
-77
-91
-108
-129
-152
-176
-200
-221
-238
-248
-249
-240
-222
-196
-165
-134
-105
-86
-78
-83
-98
-121
-146
-167
-176
-173
-154
-122
-82
-40
-4
20
27
16
-11
-50
-96
-141
-179
-205
-215
-210
-191
-163
-128
-92
-59
-34
-19
-16
-25
-44
-68
-94
-116
-129
-127
-109
-74
-27
29
83
127
154
160
142
103
48
-12
-70
-116
-144
-150
-136
-107
-70
-30
4
28
39
40
30
14
-6
-26
-47
-68
-90
-115
-144
-177
-212
-247
-277
-299
-310
-308
-294
-269
-238
-205
-175
-151
-135
-129
-132
-141
-153
-165
-177
-187
-196
-205
-217
-233
-255
-282
-309
-335
-354
-362
-358
-339
-310
-274
-237
-207
-188
-184
-195
-219
-250
-281
-304
-315
-311
-290
-256
-215
-174
-139
-116
-107
-112
-130
-154
-182
-207
-227
-238
-242
-240
-234
-226
-220
-216
-214
-215
-216
-217
-216
-215
-213
-210
-208
-208
-210
-216
-226
-240
-256
-273
-288
-300
-306
-304
-293
-273
-245
-213
-180
-150
-128
-117
-119
-133
-158
-189
-221
-248
-269
-281
-285
-283
-280
-279
-282
-293
-309
-330
-352
-371
-382
-385
-379
-364
-344
-321
-301
-284
-274
-272
-276
-285
-300
-319
-341
-364
-386
-407
-423
-433
-435
-427
-408
-381
-348
-312
-277
-247
-225
-213
-209
-212
-220
-229
-237
-243
-247
-249
-251
-255
-262
-273
-288
-305
-322
-337
-350
-359
-364
-364
-360
-354
-346
-336
-325
-312
-298
-282
-265
-248
-232
-218
-208
-203
-203
-209
-220
-236
-254
-275
-294
-311
-324
-331
-331
-326
-317
-303
-289
-274
-262
-252
-247
-246
-249
-257
-268
-282
-297
-312
-327
-338
-345
-347
-341
-328
-310
-287
-261
-237
-216
-201
-194
-195
-204
-218
-235
-254
-270
-283
-290
-292
-289
-280
-268
-255
-242
-229
-218
-211
-207
-204
-204
-204
-203
-198
-188
-174
-153
-128
-103
-79
-61
-50
-49
-58
-76
-98
-121
-141
-152
-151
-137
-110
-73
-31
10
45
69
78
72
51
18
-21
-62
-97
-122
-134
-132
-119
-97
-73
-50
-34
-26
-28
-36
-46
-54
-54
-43
-17
21
71
128
187
244
293
332
360
376
383
380
369
351
327
298
266
232
198
167
141
121
108
100
95
92
87
79
66
49
29
11
-3
-11
-11
-5
6
18
29
34
33
25
12
-1
-12
-17
-15
-7
5
18
26
26
15
-7
-37
-72
-105
-130
-143
-139
-120
-87
-46
-4
35
63
78
77
62
37
8
-20
-41
-52
-49
-35
-14
12
35
52
57
50
32
4
-29
-62
-91
-113
-125
-129
-125
-117
-108
-100
-95
-95
-97
-101
-105
-109
-110
-108
-105
-103
-100
-99
-99
-100
-100
-98
-94
-88
-81
-75
-73
-74
-80
-89
-100
-109
-114
-113
-105
-88
-66
-42
-19
0
11
14
9
-2
-19
-40
-63
-86
-111
-136
-162
-186
-207
-224
-231
-226
-205
-168
-114
-42
44
145
259
385
525
680
851
1036
1237
1449
1671
1896
2120
2338
2544
2733
2898
3035
3138
3198
3210
3169
3070
2914
2705
2451
2166
1865
1563
1277
1018
795
613
468
357
271
203
148
99
53
9
-33
-71
-106
-137
-162
-179
-187
-182
-162
-125
-70
1
86
177
268
347
407
442
450
432
394
342
287
236
197
172
163
167
180
195
207
212
209
199
184
166
150
138
133
134
140
150
162
172
179
180
176
167
154
142
131
124
124
130
144
163
185
208
227
238
241
231
211
180
143
102
61
24
-6
-29
-43
-50
-52
-50
-47
-44
-42
-40
-38
-37
-37
-39
-44
-53
-67
-86
-109
-133
-155
-170
-174
-164
-141
-104
-59
-11
33
66
85
87
72
43
6
-34
-70
-99
-116
-122
-116
-102
-83
-62
-42
-25
-12
-3
2
2
1
-2
-5
-7
-7
-5
-1
6
14
22
31
38
44
48
53
57
62
71
82
98
116
135
155
174
190
202
209
212
210
204
194
180
164
148
133
122
120
127
146
177
220
269
322
372
413
442
455
454
439
414
386
361
342
335
340
358
386
422
461
500
538
572
603
630
655
678
699
719
737
751
761
769
772
773
774
777
784
795
809
826
842
856
865
867
863
856
850
850
858
880
915
961
1014
1068
1114
1147
1163
1161
1145
1119
1091
1070
1060
1064
1085
1116
1154
1192
1224
1245
1252
1247
1234
1217
1202
1192
1192
1201
1219
1244
1273
1302
1330
1356
1378
1397
1412
1424
1431
1434
1430
1422
1408
1391
1371
1351
1331
1314
1298
1285
1273
1263
1254
1246
1241
1240
1242
1248
1254
1257
1251
1231
1193
1135
1059
970
876
787
712
658
630
627
644
672
703
726
732
719
686
635
575
511
453
403
365
337
316
299
279
255
224
189
154
122
99
89
94
114
144
179
212
236
245
237
210
168
117
64
15
-24
-49
-58
-53
-38
-20
-2
10
12
4
-11
-32
-54
-74
-88
-95
-96
-92
-85
-78
-71
-67
-64
-64
-65
-65
-66
-65
-64
-62
-59
-54
-46
-35
-21
-5
14
32
50
65
75
79
79
75
69
62
57
54
55
60
67
77
89
102
115
126
134
137
134
123
105
80
48
14
-20
-49
-70
-81
-81
-72
-59
-44
-32
-30
-40
-63
-98
-141
-187
-230
-264
-285
-289
-276
-247
-207
-161
-113
-69
-34
-9
4
7
1
-11
-26
-42
-56
-69
-80
-89
-96
-102
-108
-114
-120
-127
-134
-142
-149
-157
-164
-169
-174
-176
-176
-174
-168
-160
-150
-139
-125
-111
-97
-83
-69
-57
-48
-43
-42
-47
-58
-73
-91
-112
-132
-150
-162
-167
-166
-157
-142
-121
-97
-71
-47
-28
-14
-6
-5
-11
-22
-34
-47
-58
-65
-66
-61
-51
-39
-27
-16
-10
-6
-7
-9
-9
-7
1
14
33
53
72
84
88
78
55
18
-28
-81
-134
-181
-218
-240
-245
-233
-206
-166
-119
-69
-20
22
56
78
88
89
81
67
49
30
12
-5
-19
-31
-41
-48
-54
-57
-58
-57
-54
-49
-43
-39
-36
-36
-41
-49
-59
-70
-79
-84
-82
-74
-60
-42
-25
-12
-6
-9
-21
-40
-64
-87
-104
-114
-113
-102
-84
-63
-43
-29
-24
-29
-42
-60
-81
-98
-108
-110
-102
-86
-66
-46
-30
-21
-19
-26
-39
-56
-73
-89
-101
-109
-112
-112
-110
-107
-102
-98
-94
-89
-85
-82
-82
-83
-88
-96
-107
-119
-130
-138
-142
-140
-133
-123
-113
-105
-100
-100
-105
-115
-127
-141
-154
-166
-176
-186
-196
-207
-219
-230
-239
-243
-241
-231
-214
-193
-173
-158
-153
-162
-185
-220
-264
-309
-348
-376
-389
-385
-364
-332
-295
-259
-229
-208
-199
-199
-206
-215
-225
-231
-234
-233
-231
-228
-229
-234
-244
-259
-279
-301
-321
-339
-352
-358
-356
-347
-333
-316
-300
-287
-278
-276
-279
-284
-290
-294
-292
-282
-267
-248
-228
-213
-207
-212
-229
-255
-286
-315
-336
-344
-335
-309
-270
-222
-175
-135
-108
-98
-104
-124
-154
-186
-215
-235
-244
-243
-233
-218
-200
-185
-174
-170
-171
-175
-182
-189
-194
-194
-190
-182
-170
-158
-145
-136
-131
-132
-140
-156
-179
-206
-235
-264
-291
-311
-325
-332
-332
-327
-317
-303
-288
-272
-255
-239
-224
-211
-203
-202
-209
-225
-250
-280
-312
-342
-363
-371
-363
-340
-303
-259
-215
-177
-152
-143
-152
-174
-205
-238
-263
-277
-276
-263
-240
-215
-195
-186
-191
-212
-243
-280
-315
-341
-352
-345
-323
-288
-247
-206
-171
-147
-134
-133
-141
-155
-169
-183
-194
-203
-209
-216
-225
-235
-247
-259
-269
-276
-277
-273
-263
-247
-228
-209
-193
-181
-175
-173
-174
-178
-180
-180
-175
-168
-158
-150
-145
-146
-155
-171
-193
-217
-240
-257
-266
-266
-258
-244
-230
-218
-213
-215
-226
-240
-255
-265
-268
-259
-241
-215
-184
-155
-132
-119
-116
-123
-137
-154
-169
-179
-182
-177
-166
-151
-136
-122
-112
-105
-101
-100
-100
-100
-99
-100
-101
-105
-112
-122
-134
-148
-162
-173
-181
-185
-185
-181
-175
-166
-155
-144
-131
-115
-98
-77
-55
-31
-8
13
28
37
39
35
25
10
-5
-19
-29
-35
-33
-24
-8
14
41
70
99
126
147
161
166
160
143
115
78
36
-8
-48
-83
-109
-126
-133
-135
-133
-134
-139
-152
-173
-200
-230
-257
-277
-284
-275
-252
-216
-172
-130
-94
-73
-71
-91
-129
-180
-235
-287
-327
-349
-350
-331
-296
-254
-212
-180
-163
-164
-182
-212
-249
-285
-313
-328
-329
-317
-295
-267
-241
-219
-204
-197
-197
-202
-209
-216
-221
-225
-227
-230
-234
-239
-244
-249
-250
-246
-238
-226
-212
-201
-196
-199
-213
-236
-267
-301
-332
-355
-365
-361
-343
-314
-279
-243
-212
-189
-177
-176
-182
-193
-203
-211
-211
-204
-191
-172
-151
-132
-117
-109
-109
-118
-132
-150
-169
-185
-196
-200
-198
-190
-178
-166
-157
-155
-161
-176
-199
-228
-259
-286
-305
-311
-299
-267
-214
-141
-49
57
176
305
443
587
738
897
1064
1241
1429
1627
1836
2052
2271
2487
2692
2878
3033
3147
3209
3210
3145
3012
2813
2556
2256
1928
1590
1262
960
698
483
318
201
126
81
57
41
26
6
-23
-59
-99
-137
-170
-191
-197
-187
-161
-122
-75
-24
25
70
107
134
151
159
160
155
146
135
123
114
108
107
111
122
139
160
183
204
220
229
230
222
207
187
166
147
133
125
124
127
131
134
133
127
116
100
83
67
55
49
49
54
63
75
86
97
104
108
110
112
114
119
127
141
159
182
207
234
258
277
284
280
261
226
177
119
57
-1
-49
-79
-89
-75
-39
14
79
147
212
269
312
340
352
349
335
314
287
260
234
210
191
176
168
165
168
175
185
196
204
209
208
200
187
170
154
140
133
136
150
174
206
242
277
307
327
335
330
313
286
253
219
188
162
145
139
143
156
178
207
240
275
307
336
359
373
378
374
363
347
328
311
298
292
293
301
315
331
347
359
365
365
359
349
337
328
324
329
343
367
400
438
478
516
546
568
580
582
575
561
546
531
521
516
521
534
555
581
610
640
669
694
714
730
742
750
756
763
772
783
797
814
833
852
873
893
911
927
943
959
976
993
1012
1030
1049
1067
1084
1100
1116
1132
1150
1170
1192
1216
1242
1267
1289
1306
1317
1320
1315
1304
1289
1274
1261
1254
1253
1259
1270
1286
1302
1316
1324
1323
1315
1301
1283
1265
1251
1245
1250
1266
1290
1320
1351
1375
1388
1383
1361
1320
1263
1197
1127
1062
1005
960
929
910
899
894
887
875
855
826
788
743
694
644
593
543
495
450
407
367
331
300
274
254
240
230
223
216
207
194
175
151
123
93
64
37
14
-6
-24
-42
-63
-87
-115
-148
-183
-218
-249
-274
-291
-298
-297
-291
-283
-276
-273
-277
-287
-302
-318
-332
-338
-334
-319
-294
-262
-230
-205
-192
-198
-223
-265
-319
-375
-424
-454
-461
-440
-396
-335
-269
-211
-172
-160
-179
-225
-292
-366
-435
-486
-512
-511
-485
-441
-388
-337
-299
-279
-277
-293
-320
-354
-385
-410
-425
-429
-425
-413
-399
-386
-375
-368
-365
-365
-369
-376
-386
-398
-411
-425
-440
-451
-460
-464
-462
-455
-442
-427
-409
-393
-378
-367
-360
-358
-360
-365
-374
-384
-395
-405
-414
-419
-419
-413
-400
-380
-356
-330
-305
-284
-269
-262
-264
-272
-285
-300
-313
-321
-324
-320
-311
-300
-289
-279
-274
-274
-278
-284
-289
-292
-293
-289
-283
-276
-271
-270
-275
-286
-301
-319
-333
-340
-336
-321
-294
-259
-221
-188
-167
-163
-179
-215
-266
-326
-386
-437
-470
-480
-467
-432
-382
-324
-270
-227
-201
-196
-211
-242
-283
-326
-363
-388
-398
-394
-375
-346
-313
-282
-256
-240
-233
-236
-245
-258
-269
-276
-276
-268
-253
-234
-213
-194
-182
-178
-183
-199
-222
-249
-278
-304
-324
-335
-336
-329
-314
-294
-271
-247
-227
-210
-199
-193
-192
-198
-210
-226
-247
-270
-293
-315
-333
-346
-351
-349
-339
-322
-302
-282
-264
-252
-247
-248
-256
-267
-279
-289
-296
-298
-296
-291
-287
-285
-287
-293
-301
-309
-313
-309
-297
-274
-243
-210
-179
-159
-154
-167
-199
-248
-307
-366
-418
-454
-469
-460
-429
-382
-326
-270
-223
-191
-178
-182
-201
-229
-259
-286
-304
-313
-312
-305
-297
-291
-292
-302
-320
-347
-377
-408
-434
-453
-466
-470
-469
-466
-461
-456
-450
-445
-437
-426
-410
-391
-367
-344
-323
-307
-300
-301
-311
-326
-345
-364
-381
-394
-402
-406
-408
-409
-409
-409
-408
-406
-403
-398
-392
-386
-383
-383
-389
-400
-416
-433
-449
-459
-464
-461
-449
-433
-415
-399
-390
-388
-395
-408
-426
-444
-459
-465
-461
-446
-422
-391
-359
-329
-308
-297
-298
-311
-333
-359
-385
-406
-418
-420
-413
-399
-382
-366
-356
-352
-356
-367
-381
-395
-407
-414
-417
-415
-411
-406
-401
-397
-391
-381
-365
-342
-311
-276
-242
-215
-201
-205
-228
-268
-320
-374
-423
-458
-472
-467
-443
-406
-365
-327
-299
-286
-286
-295
-309
-320
-323
-314
-294
-265
-234
-205
-186
-180
-189
-211
-245
-284
-324
-360
-389
-408
-417
-415
-406
-389
-368
-345
-321
-299
-281
-267
-259
-258
-261
-268
-276
-282
-287
-288
-287
-285
-285
-289
-300
-315
-336
-356
-371
-377
-371
-352
-321
-285
-250
-221
-207
-209
-227
-254
-285
-312
-326
-323
-303
-270
-233
-201
-182
-184
-208
-253
-310
-371
-424
-459
-469
-452
-412
-355
-292
-232
-185
-157
-151
-164
-191
-227
-263
-295
-318
-330
-332
-326
-315
-302
-290
-279
-270
-262
-253
-244
-233
-222
-212
-203
-197
-197
-203
-215
-231
-248
-263
-272
-275
-269
-254
-231
-204
-176
-152
-136
-133
-144
-169
-206
-251
-299
-344
-380
-402
-409
-398
-372
-335
-292
-248
-209
-179
-161
-154
-157
-167
-179
-191
-202
-210
-216
-222
-229
-238
-251
-266
-281
-291
-295
-289
-273
-248
-217
-184
-154
-130
-115
-112
-117
-128
-140
-150
-153
-147
-133
-113
-90
-69
-53
-43
-41
-45
-54
-66
-76
-81
-80
-74
-63
-51
-39
-31
-29
-34
-47
-65
-85
-104
-118
-124
-120
-104
-77
-42
-2
39
76
106
125
133
130
120
106
91
80
75
80
93
112
134
155
173
186
193
194
192
188
183
179
176
173
169
162
151
134
112
85
56
24
-6
-35
-60
-82
-99
-112
-121
-126
-129
-129
-127
-125
-124
-125
-129
-135
-144
-153
-161
-167
-169
-165
-157
-146
-136
-128
-125
-128
-138
-152
-168
-182
-194
-200
-201
-197
-192
-187
-186
-191
-202
-218
-236
-253
-264
-265
-257
-238
-211
-179
-148
-122
-106
-101
-109
-128
-154
-182
-209
-230
-242
-244
-237
-224
-208
-196
-190
-191
-202
-220
-242
-263
-279
-286
-282
-267
-243
-215
-187
-164
-151
-151
-163
-186
-215
-247
-274
-293
-302
-299
-286
-265
-239
-212
-189
-169
-155
-147
-143
-141
-141
-142
-143
-144
-148
-153
-159
-166
-171
-174
-172
-165
-155
-143
-133
-129
-134
-150
-178
-218
-265
-316
-365
-406
-435
-448
-445
-424
-386
-334
-269
-190
-99
7
126
261
413
580
761
955
1158
1367
1578
1788
1996
2197
2390
2572
2738
2886
3006
3092
3135
3128
3063
2937
2750
2507
2217
1893
1553
1214
894
611
376
198
76
8
-16
-8
17
45
63
62
39
-6
-68
-137
-205
-259
-292
-298
-275
-228
-161
-84
-7
61
114
149
165
166
157
144
131
120
114
111
109
103
92
73
49
20
-7
-28
-39
-38
-24
2
35
70
101
123
134
131
116
93
67
43
27
22
28
46
70
98
122
138
144
138
118
88
54
18
-13
-35
-45
-45
-33
-12
13
41
67
90
106
117
121
118
109
95
79
61
46
33
28
30
40
59
82
107
131
151
165
174
177
177
175
173
171
169
164
155
139
115
85
54
27
10
9
29
71
131
202
273
334
374
386
367
319
252
176
104
49
21
24
57
114
186
261
328
379
408
414
401
373
338
302
270
242
221
206
196
189
187
190
199
216
240
270
300
327
344
350
343
324
299
276
262
264
286
327
383
443
498
537
553
541
504
449
386
328
286
270
281
318
375
441
505
557
590
602
594
570
540
512
492
485
493
513
545
584
625
664
700
733
763
791
819
848
879
910
940
968
990
1007
1017
1023
1024
1024
1026
1030
1040
1054
1073
1098
1125
1155
1187
1220
1254
1290
1325
1361
1395
1427
1455
1477
1492
1499
1498
1490
1476
1458
1438
1417
1397
1381
1368
1361
1360
1366
1380
1402
1432
1467
1505
1543
1576
1601
1616
1618
1610
1592
1569
1546
1525
1509
1499
1492
1486
1478
1464
1442
1412
1373
1330
1285
1243
1207
1177
1154
1137
1121
1104
1084
1057
1024
986
946
905
865
826
790
755
721
685
647
608
568
532
500
477
462
457
459
467
474
477
473
459
433
398
354
305
255
207
163
126
96
73
58
49
45
47
52
59
66
72
75
72
62
44
18
-14
-48
-82
-111
-134
-147
-150
-144
-132
-116
-99
-84
-73
-66
-63
-63
-64
-65
-67
-69
-73
-79
-91
-107
-126
-146
-167
-184
-198
-206
-207
-204
-199
-194
-191
-191
-195
-200
-205
-208
-206
-200
-188
-174
-157
-141
-129
-120
-115
-114
-117
-122
-130
-139
-150
-163
-177
-191
-204
-213
-215
-210
-196
-174
-145
-114
-84
-60
-44
-38
-41
-53
-69
-88
-107
-125
-140
-155
-169
-182
-194
-202
-206
-203
-192
-174
-151
-127
-106
-92
-89
-97
-116
-141
-167
-191
-208
-216
-216
-211
-204
-199
-200
-207
-220
-237
-253
-267
-275
-278
-277
-276
-277
-283
-295
-312
-331
-348
-360
-362
-355
-340
-321
-304
-291
-289
-296
-312
-330
-346
-353
-346
-325
-290
-247
-203
-167
-145
-141
-157
-190
-233
-280
-324
-358
-379
-387
-382
-369
-354
-338
-326
-318
-314
-311
-308
-304
-296
-286
-275
-266
-260
-257
-259
-264
-270
-274
-277
-275
-271
-264
-259
-257
-261
-271
-288
-308
-330
-348
-360
-363
-356
-340
-318
-294
-274
-259
-253
-258
-272
-293
-317
-339
-354
-359
-352
-333
-306
-273
-240
-211
-191
-183
-187
-203
-227
-254
-281
-302
-315
-317
-310
-295
-275
-255
-237
-226
-221
-223
-232
-245
-259
-271
-280
-283
-280
-272
-259
-244
-227
-210
-195
-183
-174
-168
-164
-163
-161
-160
-158
-156
-154
-155
-160
-169
-185
-205
-230
-257
-280
-297
-303
-299
-285
-265
-242
-221
-208
-205
-213
-231
-255
-279
-296
-301
-292
-268
-233
-192
-152
-120
-100
-96
-108
-133
-166
-202
-235
-262
-280
-291
-295
-295
-296
-298
-305
-314
-325
-335
-343
-346
-344
-335
-322
-305
-286
-268
-253
-241
-234
-231
-232
-235
-240
-246
-250
-254
-256
-256
-254
-252
-249
-248
-247
-247
-246
-245
-243
-238
-231
-224
-218
-213
-213
-219
-230
-246
-264
-281
-293
-298
-294
-282
-263
-243
-224
-211
-208
-215
-231
-254
-279
-301
-316
-320
-313
-296
-271
-243
-217
-196
-182
-177
-180
-191
-210
-233
-261
-291
-323
-355
-384
-409
-426
-433
-431
-420
-402
-383
-366
-356
-357
-369
-392
-420
-451
-478
-497
-507
-507
-499
-487
-475
-465
-462
-465
-473
-481
-486
-484
-475
-457
-432
-403
-374
-349
-331
-322
-324
-335
-353
-378
-405
-432
-455
-474
-483
-483
-472
-450
-417
-378
-334
-290
-250
-220
-200
-192
-195
-205
-220
-235
-248
-257
-262
-264
-265
-266
-271
-279
-289
-298
-305
-305
-298
-281
-257
-229
-200
-175
-156
-148
-150
-161
-179
-199
-215
-224
-224
-214
-194
-167
-136
-107
-83
-69
-66
-76
-95
-120
-148
-174
-193
-202
-200
-186
-164
-137
-109
-83
-64
-53
-52
-61
-77
-97
-120
-142
-161
-177
-188
-196
-200
-200
-197
-191
-182
-169
-154
-136
-118
-102
-89
-82
-83
-90
-105
-126
-150
-174
-196
-213
-225
-229
-227
-218
-205
-189
-171
-153
-139
-129
-126
-131
-146
-169
-199
-231
-263
-289
-307
-312
-304
-286
-260
-232
-207
-191
-188
-198
-219
-249
-282
-311
-330
-338
-330
-309
-276
-237
-197
-161
-134
-116
-108
-108
-115
-123
-130
-135
-137
-137
-136
-136
-139
-147
-158
-172
-187
-199
-206
-204
-193
-174
-147
-115
-82
-52
-28
-11
-2
0
-1
-4
-6
-7
-7
-5
-3
-2
-4
-8
-15
-21
-25
-26
-20
-9
8
31
56
81
104
123
137
146
148
144
135
121
102
79
51
20
-14
-48
-83
-116
-146
-170
-189
-201
-207
-207
-204
-199
-193
-190
-192
-198
-209
-222
-236
-246
-251
-247
-234
-212
-184
-154
-126
-108
-102
-111
-135
-172
-214
-256
-288
-305
-300
-272
-223
-159
-88
-21
33
66
75
60
25
-23
-73
-119
-151
-168
-169
-157
-139
-121
-108
-102
-104
-110
-117
-120
-114
-100
-80
-58
-40
-34
-44
-71
-113
-162
-212
-252
-274
-275
-252
-210
-155
-96
-42
0
25
30
16
-12
-48
-86
-121
-150
-169
-179
-181
-177
-170
-162
-155
-152
-153
-157
-164
-171
-173
-169
-156
-132
-98
-57
-15
22
47
54
43
12
-34
-88
-141
-185
-214
-222
-210
-182
-143
-103
-67
-43
-34
-39
-56
-80
-105
-125
-135
-130
-106
-62
4
93
207
344
506
688
888
1100
1317
1534
1744
1944
2132
2308
2473
2627
2769
2893
2992
3053
3066
3019
2905
2720
2470
2166
1828
1476
1136
827
565
361
216
125
78
61
60
63
61
49
25
-8
-49
-92
-134
-171
-203
-226
-240
-244
-236
-217
-186
-143
-89
-30
31
89
138
173
192
195
183
161
135
111
96
92
103
127
160
196
227
248
253
242
215
177
135
94
62
44
40
50
67
88
105
112
106
87
59
28
0
-18
-19
-3
31
78
132
184
227
254
263
254
230
197
161
128
102
88
84
91
106
124
145
165
182
195
205
213
218
220
221
221
219
217
216
217
220
226
237
252
269
285
298
305
304
295
276
252
223
196
174
160
156
163
181
207
235
262
281
290
287
272
248
221
195
176
169
176
199
234
279
328
376
418
451
471
480
479
468
451
429
405
381
360
342
331
329
337
356
387
425
468
511
550
578
593
593
581
561
536
514
501
499
511
534
566
601
634
662
682
692
695
693
691
692
698
711
730
752
775
795
809
817
818
815
811
808
809
816
830
849
871
893
913
929
939
946
949
952
957
967
981
1001
1024
1049
1074
1097
1117
1134
1148
1160
1171
1181
1190
1199
1206
1211
1215
1219
1224
1231
1244
1263
1290
1323
1360
1398
1433
1460
1478
1484
1479
1464
1443
1421
1403
1392
1392
1407
1434
1471
1515
1562
1606
1643
1670
1687
1692
1687
1674
1656
1637
1619
1603
1591
1583
1579
1578
1580
1584
1591
1601
1611
1620
1627
1627
1619
1601
1572
1533
1487
1436
1384
1336
1293
1257
1226
1197
1168
1135
1095
1047
993
936
881
830
787
752
726
705
685
661
633
596
553
505
455
408
365
331
307
290
280
275
273
271
268
262
254
241
224
204
179
151
122
94
70
51
38
31
28
27
24
16
2
-20
-48
-78
-106
-124
-129
-116
-85
-38
18
77
129
165
179
168
131
73
3
-71
-137
-188
-217
-222
-204
-169
-123
-76
-38
-14
-7
-19
-45
-80
-117
-148
-169
-177
-171
-153
-128
-101
-78
-62
-56
-59
-70
-87
-106
-124
-137
-145
-146
-141
-129
-113
-94
-73
-52
-31
-12
3
14
18
16
7
-7
-26
-45
-61
-72
-74
-65
-47
-20
12
44
71
88
94
86
65
36
1
-32
-60
-78
-85
-80
-65
-43
-19
6
28
47
63
75
84
88
89
84
73
55
31
3
-27
-53
-74
-84
-81
-66
-39
-4
37
78
116
150
177
196
207
211
206
191
168
135
96
52
7
-34
-68
-89
-95
-88
-69
-43
-15
9
27
37
41
44
50
62
84
115
152
189
219
235
234
213
177
131
84
45
22
20
42
81
131
182
223
245
245
221
177
121
61
8
-31
-50
-48
-27
8
48
87
117
134
136
124
102
74
48
28
15
14
23
39
60
80
96
105
106
100
90
78
70
67
72
85
104
126
147
162
168
162
145
117
82
44
6
-26
-51
-67
-73
-71
-62
-48
-31
-10
13
40
70
101
133
162
186
202
208
203
185
158
123
85
48
16
-9
-25
-33
-36
-34
-32
-33
-37
-45
-56
-67
-77
-84
-87
-84
-79
-74
-72
-76
-87
-106
-132
-159
-186
-206
-217
-218
-208
-191
-170
-152
-140
-138
-146
-162
-182
-201
-213
-212
-197
-170
-133
-92
-54
-27
-14
-16
-35
-65
-102
-140
-172
-195
-206
-206
-196
-180
-160
-140
-122
-108
-99
-92
-88
-84
-78
-72
-65
-59
-54
-52
-56
-66
-83
-106
-133
-163
-191
-215
-233
-243
-244
-237
-225
-209
-193
-178
-166
-157
-150
-144
-137
-130
-121
-115
-112
-116
-132
-158
-194
-237
-283
-326
-357
-372
-369
-346
-306
-256
-203
-156
-121
-103
-102
-116
-141
-168
-192
-205
-206
-193
-169
-139
-107
-79
-60
-50
-49
-56
-66
-76
-83
-86
-85
-82
-76
-72
-70
-72
-78
-88
-101
-116
-134
-154
-174
-194
-212
-227
-236
-238
-232
-216
-193
-166
-139
-115
-97
-86
-82
-85
-91
-97
-100
-101
-97
-91
-86
-83
-85
-91
-100
-112
-123
-130
-131
-126
-114
-97
-78
-58
-42
-30
-22
-19
-20
-22
-26
-29
-32
-33
-34
-33
-30
-28
-24
-22
-21
-22
-26
-34
-45
-58
-72
-82
-88
-86
-76
-59
-36
-9
19
44
62
72
72
64
47
24
-4
-32
-59
-82
-99
-108
-108
-100
-84
-62
-36
-11
9
22
25
17
-1
-26
-53
-79
-99
-111
-113
-105
-90
-72
-54
-40
-32
-30
-32
-36
-38
-36
-26
-8
15
40
63
79
84
76
55
24
-12
-48
-79
-99
-106
-100
-83
-58
-32
-10
6
14
13
7
0
-3
0
11
31
56
80
101
113
115
107
91
73
56
46
45
53
68
86
99
102
92
68
34
-6
-45
-76
-94
-94
-77
-45
-6
35
72
98
112
114
106
93
78
64
56
52
53
57
61
64
65
66
68
73
84
103
130
162
196
226
248
257
251
231
199
161
123
91
71
64
70
87
109
130
145
150
145
131
112
93
79
76
84
105
135
169
201
228
243
248
242
227
206
183
161
141
124
109
96
84
73
62
53
47
44
47
54
65
78
90
99
103
99
85
62
30
-8
-51
-97
-140
-178
-208
-228
-238
-238
-230
-215
-198
-181
-167
-160
-160
-167
-179
-197
-216
-235
-251
-264
-271
-274
-273
-270
-266
-261
-256
-251
-245
-238
-230
-220
-210
-202
-198
-200
-209
-227
-253
-283
-314
-340
-357
-361
-349
-323
-285
-242
-199
-163
-139
-131
-140
-161
-192
-224
-254
-275
-286
-287
-281
-269
-256
-247
-244
-245
-249
-253
-255
-250
-238
-220
-197
-174
-155
-143
-143
-153
-173
-197
-223
-245
-257
-260
-252
-235
-214
-191
-170
-155
-147
-146
-151
-160
-169
-177
-183
-186
-188
-190
-192
-196
-201
-206
-210
-210
-206
-197
-181
-162
-140
-118
-99
-84
-76
-78
-91
-117
-156
-206
-266
-333
-399
-461
-510
-540
-547
-526
-477
-400
-297
-172
-28
133
308
496
694
901
1115
1332
1549
1762
1966
2160
2341
2508
2661
2798
2914
3004
3059
3071
3029
2926
2761
2534
2255
1940
1607
1277
971
704
487
322
207
132
85
55
27
-5
-47
-98
-153
-206
-250
-279
-286
-269
-229
-169
-95
-13
67
139
195
231
245
237
212
176
135
97
66
48
43
50
66
87
109
126
138
143
143
139
133
127
123
122
122
123
125
126
126
125
124
124
125
126
127
127
124
118
108
95
81
69
61
60
68
86
114
149
189
230
267
296
317
327
326
315
296
274
250
229
211
201
199
205
219
239
262
286
307
322
328
324
310
287
259
231
208
196
197
212
238
272
305
332
344
338
311
268
214
158
111
82
78
102
151
220
298
376
442
490
516
520
506
480
450
423
402
389
384
386
390
394
396
395
393
393
396
405
420
441
465
490
513
531
543
549
550
546
539
532
524
516
508
502
496
493
492
494
502
515
531
552
572
591
607
617
623
623
621
617
614
612
613
617
623
630
638
647
657
669
683
698
715
731
745
754
758
753
742
726
708
692
681
682
696
725
769
827
894
964
1032
1092
1137
1165
1174
1165
1142
1111
1077
1049
1030
1026
1037
1061
1094
1133
1172
1208
1238
1262
1280
1295
1308
1321
1332
1340
1345
1344
1336
1324
1311
1300
1297
1306
1329
1367
1416
1472
1530
1583
1624
1653
1668
1671
1665
1654
1641
1628
1616
1606
1596
1586
1576
1564
1552
1541
1532
1523
1515
1506
1493
1476
1454
1428
1400
1375
1355
1343
1341
1348
1359
1371
1376
1370
1349
1311
1258
1194
1124
1054
991
939
901
874
858
847
838
825
806
778
742
699
652
603
556
513
475
443
418
397
380
364
348
332
312
288
261
229
193
153
110
67
26
-12
-43
-66
-81
-87
-85
-77
-66
-55
-49
-50
-60
-81
-111
-149
-190
-230
-264
-287
-298
-295
-280
-256
-229
-205
-188
-184
-194
-216
-247
-282
-315
-340
-354
-354
-343
-324
-302
-282
-270
-268
-275
-289
-307
-324
-335
-337
-329
-312
-289
-263
-241
-225
-221
-228
-246
-271
-302
-333
-361
-381
-393
-395
-388
-374
-355
-334
-315
-300
-289
-284
-285
-291
-300
-311
-321
-328
-331
-330
-324
-314
-302
-291
-282
-277
-278
-284
-294
-308
-324
-338
-348
-352
-350
-341
-325
-306
-288
-272
-261
-257
-260
-268
-280
-291
-300
-304
-303
-297
-290
-284
-282
-286
-297
-313
-330
-342
-346
-337
-314
-276
-228
-176
-127
-90
-69
-70
-91
-129
-179
-232
-280
-317
-339
-345
-337
-319
-296
-273
-255
-245
-244
-251
-266
-284
-305
-325
-344
-361
-374
-384
-388
-387
-378
-363
-341
-313
-282
-253
-227
-209
-200
-202
-214
-234
-259
-284
-305
-321
-329
-329
-321
-309
-293
-275
-260
-249
-242
-239
-239
-242
-245
-248
-248
-246
-240
-231
-219
-206
-194
-185
-180
-182
-191
-207
-229
-255
-282
-308
-329
-343
-349
-344
-331
-311
-286
-257
-228
-200
-175
-155
-142
-135
-136
-143
-156
-172
-192
-213
-233
-252
-268
-280
-288
-293
-294
-292
-287
-277
-264
-250
-234
-218
-204
-194
-190
-193
-203
-218
-235
-252
-267
-275
-276
-269
-257
-242
-228
-219
-216
-221
-234
-252
-273
-292
-308
-317
-320
-316
-307
-293
-277
-260
-243
-227
-211
-198
-187
-181
-179
-184
-194
-211
-232
-254
-276
-294
-307
-310
-305
-293
-274
-251
-228
-205
-185
-170
-159
-154
-154
-159
-170
-187
-206
-229
-252
-274
-290
-299
-298
-287
-266
-237
-202
-165
-131
-103
-84
-77
-80
-93
-115
-142
-174
-206
-236
-264
-287
-303
-310
-308
-297
-275
-246
-211
-176
-145
-122
-112
-116
-134
-164
-202
-241
-275
-298
-306
-298
-274
-238
-195
-153
-116
-91
-79
-81
-96
-119
-146
-173
-195
-210
-216
-215
-208
-197
-184
-170
-157
-143
-130
-117
-103
-88
-73
-60
-50
-44
-42
-45
-53
-64
-75
-86
-93
-95
-91
-83
-72
-58
-45
-32
-22
-15
-10
-6
-2
3
10
18
27
36
44
48
47
42
32
20
7
-4
-11
-12
-8
1
12
23
30
31
28
18
5
-10
-23
-34
-40
-40
-34
-24
-11
3
18
33
47
62
78
93
108
120
130
134
131
124
113
101
90
82
79
82
90
103
117
131
142
149
153
152
148
141
132
120
107
92
77
61
49
40
39
46
62
87
116
147
174
193
202
197
180
152
118
85
56
37
31
37
53
76
102
128
149
163
170
171
166
158
150
143
140
140
142
147
151
154
155
153
146
135
122
108
93
79
66
58
55
58
68
85
107
132
157
178
194
199
193
176
150
117
81
47
22
9
9
25
52
86
123
155
177
187
182
163
135
103
71
48
36
38
53
79
110
141
168
185
191
186
170
147
122
98
80
68
64
66
73
81
88
92
92
89
84
77
71
70
72
79
91
106
122
136
146
153
155
154
149
145
143
144
149
159
171
184
196
205
211
213
215
216
220
228
239
253
269
282
292
294
289
275
256
236
219
210
211
225
250
283
320
354
381
396
397
382
354
317
277
239
207
185
175
177
187
203
222
239
251
256
254
246
235
222
210
203
202
206
216
231
249
266
282
293
299
299
294
286
275
264
254
248
245
244
245
245
240
227
204
171
127
75
19
-34
-80
-114
-131
-131
-115
-86
-52
-17
12
30
35
27
8
-18
-48
-76
-101
-119
-129
-132
-128
-120
-108
-93
-77
-60
-43
-27
-13
-4
-1
-6
-18
-38
-65
-97
-131
-165
-196
-220
-235
-240
-234
-219
-194
-164
-131
-99
-71
-50
-39
-36
-42
-53
-67
-81
-93
-101
-106
-110
-114
-123
-138
-159
-185
-214
-241
-262
-272
-269
-251
-222
-184
-142
-104
-74
-57
-53
-62
-82
-108
-137
-165
-189
-209
-224
-234
-239
-240
-235
-225
-207
-183
-153
-118
-83
-51
-27
-12
-9
-19
-38
-63
-90
-116
-136
-149
-156
-157
-154
-150
-147
-147
-151
-158
-168
-182
-199
-217
-237
-256
-273
-284
-284
-268
-233
-174
-91
17
146
294
454
622
794
968
1142
1318
1499
1686
1883
2090
2304
2521
2732
2924
3087
3206
3270
3269
3198
3057
2851
2592
2294
1977
1657
1352
1075
835
635
475
350
252
172
104
43
-15
-70
-121
-164
-198
-220
-230
-226
-211
-186
-153
-111
-64
-12
40
91
138
177
204
218
217
203
179
151
122
100
87
87
98
117
140
160
172
172
158
132
95
54
15
-17
-39
-49
-45
-30
-9
14
35
53
66
76
84
92
101
112
123
131
134
128
112
86
54
19
-13
-35
-45
-39
-19
12
46
76
96
101
87
58
16
-30
-73
-105
-123
-125
-110
-84
-53
-23
0
13
14
5
-10
-27
-41
-48
-45
-34
-15
7
29
47
59
64
61
52
39
25
11
-2
-13
-21
-28
-34
-38
-40
-38
-32
-21
-7
10
25
37
43
42
32
15
-7
-30
-49
-58
-56
-40
-12
26
68
109
142
164
171
164
147
124
102
85
78
83
99
124
154
182
205
220
227
226
221
214
209
207
209
215
221
226
228
226
220
212
204
198
197
201
211
225
241
258
274
289
304
319
335
354
374
394
412
426
434
436
433
425
417
412
413
423
443
474
512
557
605
651
693
730
759
781
795
804
808
810
811
813
818
827
841
860
884
909
936
960
982
1001
1016
1029
1042
1057
1075
1099
1126
1157
1189
1218
1242
1258
1267
1270
1269
1267
1268
1276
1290
1310
1334
1358
1378
1392
1396
1392
1379
1363
1346
1332
1325
1325
1332
1342
1352
1359
1359
1352
1339
1322
1306
1295
1290
1292
1299
1306
1307
1296
1270
1225
1165
1092
1015
943
882
838
810
799
798
798
792
771
732
674
599
514
427
347
282
237
213
209
218
234
248
254
245
221
182
130
73
16
-36
-77
-107
-126
-136
-141
-147
-157
-174
-198
-228
-259
-287
-308
-317
-315
-303
-285
-266
-254
-253
-269
-301
-347
-400
-456
-505
-542
-561
-564
-552
-531
-507
-488
-478
-478
-488
-503
-519
-530
-533
-525
-509
-487
-464
-446
-435
-433
-439
-449
-459
-466
-466
-460
-450
-439
-434
-439
-459
-491
-533
-578
-620
-651
-664
-657
-630
-586
-532
-478
-430
-396
-380
-381
-398
-426
-461
-497
-528
-551
-564
-569
-567
-559
-550
-541
-534
-531
-533
-538
-546
-556
-565
-571
-574
-571
-565
-554
-540
-526
-512
-500
-491
-487
-488
-495
-507
-522
-539
-558
-575
-588
-594
-593
-582
-561
-531
-496
-457
-421
-389
-367
-355
-354
-362
-378
-397
-416
-434
-448
-458
-464
-467
-469
-473
-477
-482
-488
-494
-499
-501
-500
-495
-486
-472
-456
-438
-419
-402
-388
-379
-377
-383
-397
-418
-441
-464
-483
-494
-495
-485
-466
-439
-411
-386
-368
-361
-366
-382
-406
-435
-462
-484
-497
-500
-491
-475
-454
-433
-414
-403
-400
-408
-424
-446
-469
-491
-506
-512
-507
-492
-469
-441
-412
-388
-373
-369
-375
-391
-414
-440
-466
-488
-506
-518
-524
-527
-526
-524
-520
-514
-505
-493
-476
-456
-436
-419
-408
-406
-414
-432
-459
-490
-522
-549
-566
-572
-565
-549
-524
-497
-469
-446
-429
-420
-417
-419
-424
-428
-429
-426
-418
-406
-392
-377
-365
-357
-356
-361
-372
-385
-398
-407
-410
-406
-395
-379
-360
-342
-328
-320
-319
-324
-334
-345
-354
-359
-359
-352
-340
-324
-308
-293
-282
-276
-277
-283
-295
-312
-331
-353
-373
-389
-399
-400
-392
-376
-353
-326
-301
-281
-269
-267
-275
-289
-303
-313
-315
-304
-283
-252
-220
-191
-173
-170
-185
-216
-259
-308
-355
-394
-420
-429
-424
-406
-381
-354
-329
-312
-303
-304
-310
-321
-333
-343
-347
-344
-334
-318
-296
-271
-247
-227
-215
-212
-221
-241
-271
-310
-353
-396
-434
-463
-479
-479
-463
-431
-388
-336
-282
-230
-187
-157
-142
-142
-157
-182
-214
-248
-279
-303
-316
-318
-311
-296
-277
-258
-241
-228
-220
-217
-218
-222
-226
-229
-228
-225
-218
-209
-199
-189
-180
-174
-172
-174
-181
-192
-206
-222
-238
-251
-259
-261
-256
-245
-226
-202
-175
-149
-125
-106
-94
-90
-95
-109
-130
-156
-185
-213
-237
-255
-266
-269
-264
-251
-235
-216
-198
-182
-171
-164
-161
-160
-161
-159
-152
-139
-118
-93
-63
-33
-5
16
26
24
9
-20
-59
-103
-149
-192
-226
-248
-255
-249
-230
-203
-171
-138
-108
-86
-72
-66
-66
-69
-73
-73
-68
-57
-41
-20
1
19
30
34
27
11
-11
-36
-60
-79
-90
-92
-85
-70
-52
-32
-15
-3
2
1
-5
-14
-24
-32
-38
-42
-44
-48
-55
-66
-83
-103
-125
-143
-155
-157
-145
-120
-84
-38
11
58
99
127
142
143
132
113
90
69
54
49
54
70
92
116
139
156
163
158
143
120
93
67
46
34
34
44
65
92
121
149
171
184
186
177
159
137
115
98
89
92
107
134
169
206
241
268
280
276
256
223
181
138
100
74
62
67
85
111
140
165
181
186
178
161
140
120
107
103
109
123
140
156
167
167
156
134
108
81
60
48
48
58
77
99
117
128
127
116
95
70
47
31
28
39
63
98
138
178
212
237
248
248
238
222
203
185
169
159
155
157
165
177
193
210
228
245
258
266
268
265
257
247
238
232
233
241
256
275
296
312
320
317
300
271
234
193
156
129
116
120
141
177
224
274
324
366
396
413
419
414
402
387
374
365
364
371
385
406
430
455
479
499
516
527
533
533
529
520
508
490
467
439
409
377
347
319
295
278
269
265
267
272
278
282
282
280
275
269
264
264
270
283
301
325
352
378
401
418
425
422
409
387
359
328
300
280
270
275
294
326
367
411
453
487
509
517
511
492
464
433
401
373
350
332
318
305
292
276
257
235
211
187
165
146
131
121
115
111
108
105
98
87
73
54
32
8
-15
-34
-48
-53
-51
-40
-23
-3
16
30
37
35
26
10
-10
-30
-48
-62
-73
-81
-88
-96
-106
-118
-130
-140
-145
-143
-131
-111
-85
-56
-25
3
24
38
44
45
41
35
29
24
20
16
13
7
-2
-16
-36
-63
-97
-136
-177
-217
-250
-269
-268
-243
-190
-109
-1
129
275
428
582
733
878
1018
1155
1296
1446
1610
1793
1994
2211
2439
2668
2886
3081
3242
3354
3410
3401
3323
3179
2974
2720
2430
2121
1813
1522
1262
1042
867
735
641
577
534
502
474
446
416
386
357
332
315
305
306
317
338
368
405
449
497
547
597
643
682
710
724
726
717
698
675
653
636
630
636
653
679
710
742
768
787
796
795
787
775
762
752
747
748
752
758
762
761
753
738
717
693
672
656
650
654
669
692
719
747
772
790
801
805
804
800
794
790
787
785
782
777
770
761
750
740
732
731
736
748
765
786
808
828
844
855
860
860
857
851
840
827
810
791
769
747
727
712
706
712
732
763
803
848
889
922
941
944
931
904
869
832
798
772
760
761
772
791
814
835
851
860
862
858
851
847
847
855
872
895
924
953
979
996
1001
995
978
955
928
904
885
878
881
896
919
946
974
997
1014
1022
1023
1018
1010
1001
992
986
983
981
979
978
975
973
970
970
975
988
1009
1037
1072
1111
1152
1190
1221
1245
1258
1261
1254
1240
1223
1205
1192
1184
1184
1195
1213
1238
1266
1293
1316
1331
1339
1339
1334
1327
1323
1325
1337
1359
1388
1421
1454
1481
1499
1505
1499
1487
1474
1466
1470
1490
1528
1581
1644
1709
1770
1818
1848
1860
1854
1836
1812
1789
1775
1773
1785
1810
1843
1879
1911
1933
1942
1936
1915
1883
1846
1809
1778
1758
1754
1766
1794
1836
1887
1942
1996
2042
2077
2096
2099
2085
2058
2022
1982
1943
1908
1882
1865
1855
1851
1851
1850
1846
1835
1815
1786
1749
1705
1658
1610
1566
1530
1503
1487
1481
1484
1490
1494
1489
1467
1423
1356
1265
1158
1040
925
823
744
698
685
704
747
803
860
903
925
919
883
824
749
670
597
538
500
482
481
490
501
506
499
477
442
397
350
306
273
254
250
258
274
291
305
312
307
295
278
260
246
240
242
255
274
298
320
337
344
340
325
301
271
237
204
175
151
132
120
112
108
105
103
98
90
79
66
51
37
27
22
23
32
47
66
86
102
113
115
109
95
75
53
32
14
2
-6
-10
-11
-12
-15
-19
-24
-30
-35
-36
-34
-26
-14
2
19
37
51
60
63
59
49
34
17
-1
-17
-29
-35
-34
-26
-12
6
25
43
58
65
65
54
34
5
-29
-66
-101
-131
-151
-159
-152
-132
-102
-67
-32
-2
16
22
13
-7
-32
-57
-74
-79
-68
-44
-9
31
69
98
114
116
103
81
54
27
5
-10
-17
-16
-9
2
15
29
45
63
84
107
133
159
183
203
216
223
221
212
197
179
158
136
115
96
80
68
61
61
67
78
94
110
123
131
131
123
109
91
73
61
58
64
80
102
125
143
153
152
139
118
93
69
53
49
58
79
109
142
170
188
191
178
149
109
62
17
-19
-43
-50
-40
-16
17
52
84
107
118
117
104
85
64
46
35
34
42
56
74
91
102
107
104
94
83
72
68
71
82
100
120
139
151
152
140
114
77
33
-11
-50
-80
-97
-101
-93
-77
-60
-48
-45
-55
-80
-118
-164
-214
-261
-300
-326
-337
-333
-318
-294
-267
-242
-221
-207
-200
-200
-205
-213
-221
-231
-241
-253
-268
-286
-306
-328
-349
-365
-374
-373
-363
-345
-323
-302
-288
-285
-298
-326
-367
-415
-463
-506
-534
-545
-535
-505
-460
-406
-350
-300
-263
-241
-237
-248
-273
-304
-337
-367
-391
-406
-414
-415
-412
-408
-405
-404
-406
-410
-416
-421
-425
-427
-427
-425
-425
-427
-433
-442
-456
-471
-486
-496
-499
-493
-479
-456
-429
-399
-373
-354
-344
-345
-358
-380
-407
-437
-466
-490
-506
-515
-515
-507
-491
-469
-443
-414
-386
-360
-339
-326
-322
-329
-347
-374
-407
-442
-473
-496
-508
-509
-498
-479
-455
-432
-412
-398
-390
-387
-387
-386
-384
-379
-370
-362
-355
-353
-357
-367
-383
-401
-416
-425
-424
-412
-389
-358
-324
-293
-268
-253
-248
-252
-262
-274
-284
-288
-285
-275
-262
-250
-244
-248
-264
-294
-334
-380
-426
-465
-491
-498
-486
-455
-409
-355
-299
-249
-212
-192
-190
-206
-237
-279
-326
-373
-418
-456
-487
-510
-528
-542
-554
-565
-576
-586
-596
-604
-609
-609
-605
-597
-586
-575
-564
-557
-554
-556
-561
-569
-577
-585
-589
-590
-589
-588
-590
-596
-610
-631
-657
-684
-706
-719
-718
-698
-661
-611
-553
-496
-449
-419
-410
-423
-455
-501
-550
-594
-626
-639
-631
-602
-557
-502
-444
-389
-345
-315
-304
-309
-331
-364
-403
-442
-475
-498
-507
-499
-477
-443
-403
-365
-334
-317
-315
-331
-362
-403
-447
-488
-518
-534
-534
-520
-496
-467
-438
-415
-399
-392
-394
-401
-410
-418
-423
-424
-421
-418
-415
-415
-419
-428
-439
-452
-462
-468
-468
-461
-448
-430
-410
-390
-373
-360
-351
-347
-346
-345
-344
-341
-334
-324
-311
-297
-284
-275
-270
-272
-280
-293
-309
-322
-329
-326
-309
-278
-234
-180
-124
-73
-35
-15
-17
-40
-80
-129
-180
-222
-249
-257
-243
-212
-170
-125
-87
-64
-59
-72
-102
-141
-182
-217
-239
-243
-227
-193
-145
-91
-35
12
46
63
61
44
15
-20
-54
-81
-98
-101
-92
-72
-47
-20
2
18
25
25
20
14
10
10
14
22
29
31
24
3
-31
-79
-135
-194
-249
-295
-327
-343
-342
-326
-301
-271
-243
-221
-208
-205
-213
-228
-247
-266
-281
-289
-287
-275
-255
-229
-201
-175
-157
-148
-152
-168
-196
-233
-276
-318
-358
-391
-414
-425
-424
-412
-392
-367
-340
-315
-294
-279
-271
-269
-273
-280
-287
-292
-294
-291
-284
-274
-262
-248
-236
-225
-215
-206
-197
-186
-174
-161
-145
-128
-111
-95
-82
-70
-62
-57
-55
-57
-61
-67
-74
-81
-85
-86
-83
-76
-63
-48
-33
-20
-11
-7
-9
-16
-26
-36
-42
-41
-34
-19
0
21
40
53
58
54
42
24
3
-18
-35
-46
-50
-49
-42
-33
-24
-15
-8
-4
-2
-2
-6
-12
-21
-33
-49
-67
-87
-106
-120
-126
-121
-97
-50
23
125
258
418
603
805
1018
1233
1444
1643
1828
1998
2153
2298
2435
2567
2691
2804
2897
2959
2978
2943
2846
2684
2459
2181
1866
1534
1205
899
632
413
245
126
47
-3
-35
-61
-87
-118
-155
-195
-235
-268
-290
-298
-290
-265
-227
-179
-124
-69
-18
27
60
83
96
100
99
97
99
106
119
138
160
179
191
189
171
137
89
31
-29
-84
-128
-155
-165
-160
-142
-117
-92
-71
-58
-55
-62
-74
-88
-101
-108
-109
-101
-87
-67
-45
-22
-3
12
21
23
19
11
-1
-16
-31
-45
-55
-59
-58
-51
-37
-17
6
32
58
83
105
122
132
135
129
114
92
63
30
-3
-33
-55
-67
-66
-51
-24
12
53
94
131
162
182
193
196
190
178
160
139
115
90
66
44
27
19
22
40
74
122
182
246
309
362
399
415
408
381
338
288
239
200
177
174
191
224
268
317
362
398
419
425
416
396
369
342
320
306
305
316
339
370
405
439
469
491
502
502
492
474
452
429
408
392
385
386
395
412
434
458
484
509
532
552
570
587
604
620
638
654
670
684
694
701
703
702
698
695
695
702
718
743
775
811
848
879
902
913
912
899
878
854
833
819
818
832
862
906
960
1020
1080
1136
1183
1220
1243
1254
1254
1244
1230
1213
1197
1184
1177
1176
1182
1193
1210
1230
1252
1275
1298
1320
1342
1362
1382
1399
1412
1420
1422
1416
1406
1392
1378
1368
1364
1370
1387
1413
1444
1478
1507
1529
1540
1539
1529
1510
1487
1462
1439
1419
1401
1382
1361
1335
1302
1265
1225
1185
1150
1123
1105
1096
1095
1095
1093
1083
1062
1029
985
932
874
817
764
718
681
653
630
610
589
565
536
503
466
429
394
363
338
319
304
293
281
266
246
220
186
147
105
64
28
0
-16
-20
-12
7
32
59
84
100
107
101
81
50
10
-36
-81
-123
-156
-179
-191
-193
-185
-172
-158
-145
-138
-139
-149
-168
-193
-223
-253
-280
-301
-314
-319
-318
-313
-307
-301
-297
-298
-302
-308
-316
-324
-331
-337
-344
-353
-366
-384
-408
-437
-468
-498
-523
-542
-553
-553
-544
-527
-503
-476
-449
-423
-402
-388
-383
-388
-402
-426
-456
-489
-524
-555
-580
-598
-608
-613
-613
-614
-616
-621
-630
-639
-645
-644
-631
-606
-570
-526
-480
-438
-408
-392
-393
-409
-436
-467
-495
-514
-521
-515
-497
-473
-446
-421
-402
-392
-389
-393
-402
-414
-427
-439
-451
-464
-478
-495
-514
-537
-563
-592
-619
-644
-665
-679
-684
-679
-661
-633
-595
-552
-508
-469
-442
-430
-435
-456
-489
-528
-567
-598
-616
-617
-604
-581
-553
-530
-518
-521
-541
-574
-616
-657
-688
-703
-697
-669
-623
-567
-509
-462
-433
-428
-450
-496
-558
-626
-691
-741
-768
-769
-744
-696
-634
-568
-507
-460
-433
-428
-444
-477
-518
-561
-596
-620
-629
-621
-601
-573
-541
-511
-486
-471
-467
-473
-488
-508
-532
-557
-581
-602
-617
-626
-631
-631
-627
-621
-613
-605
-598
-593
-589
-583
-577
-568
-556
-541
-524
-508
-494
-486
-484
-490
-502
-518
-535
-550
-559
-561
-555
-541
-523
-504
-489
-480
-482
-494
-516
-547
-581
-617
-650
-678
-697
-706
-707
-699
-684
-663
-638
-611
-582
-554
-528
-504
-486
-475
-471
-476
-488
-506
-526
-545
-560
-568
-568
-557
-539
-517
-495
-478
-469
-469
-478
-495
-515
-535
-551
-561
-567
-568
-570
-577
-593
-617
-649
-685
-717
-739
-742
-724
-685
-627
-558
-487
-425
-380
-358
-361
-387
-430
-483
-536
-582
-615
-634
-637
-629
-613
-594
-576
-564
-559
-562
-574
-592
-616
-643
-672
-698
-721
-738
-748
-748
-741
-726
-705
-682
-661
-646
-640
-644
-657
-678
-702
-726
-744
-753
-750
-735
-709
-677
-641
-607
-579
-559
-549
-551
-563
-584
-610
-640
-671
-701
-729
-755
-778
-796
-809
-815
-814
-803
-785
-758
-724
-688
-651
-617
-591
-575
-570
-577
-592
-615
-639
-662
-679
-690
-691
-683
-669
-651
-633
-617
-607
-604
-610
-623
-641
-661
-679
-693
-698
-694
-682
-663
-640
-617
-601
-594
-600
-619
-648
-683
-718
-747
-763
-764
-750
-722
-687
-650
-620
-602
-600
-612
-637
-670
-703
-731
-750
-755
-746
-725
-696
-663
-633
-608
-593
-588
-595
-612
-638
-671
-706
-738
-763
-777
-775
-758
-728
-689
-646
-608
-582
-574
-587
-618
-663
-712
-758
-792
-808
-804
-781
-746
-707
-671
-646
-635
-638
-652
-672
-692
-707
-713
-709
-697
-680
-665
-653
-650
-655
-669
-687
-706
-722
-733
-737
-733
-725
-715
-707
-705
-711
-726
-747
-771
-793
-808
-812
-801
-777
-740
-696
-651
-613
-585
-574
-578
-595
-621
-649
-672
-685
-686
-675
-653
-625
-594
-564
-538
-517
-499
-483
-469
-455
-445
-439
-439
-448
-466
-492
-519
-543
-558
-559
-545
-518
-481
-444
-413
-396
-396
-412
-440
-472
-500
-517
-516
-499
-470
-437
-409
-393
-394
-413
-445
-482
-515
-535
-535
-517
-484
-447
-414
-397
-401
-429
-474
-527
-577
-610
-617
-595
-547
-480
-406
-339
-290
-266
-269
-293
-331
-374
-412
-440
-454
-458
-456
-453
-453
-459
-469
-477
-479
-470
-446
-408
-361
-313
-272
-249
-248
-267
-304
-350
-393
-422
-431
-415
-376
-320
-257
-198
-154
-131
-132
-155
-193
-236
-277
-307
-321
-318
-298
-266
-228
-189
-154
-124
-102
-85
-72
-60
-48
-32
-14
5
23
36
42
38
24
-1
-35
-74
-112
-142
-160
-162
-144
-108
-58
-1
55
101
131
141
131
104
69
33
4
-10
-7
11
39
68
89
94
77
37
-24
-98
-176
-248
-304
-337
-345
-329
-293
-245
-194
-146
-108
-85
-80
-91
-118
-156
-201
-248
-291
-327
-351
-361
-356
-336
-306
-269
-231
-198
-175
-166
-172
-190
-218
-249
-277
-299
-309
-307
-294
-273
-249
-227
-210
-202
-203
-213
-230
-252
-275
-297
-316
-331
-339
-342
-339
-331
-318
-302
-284
-267
-254
-244
-243
-248
-261
-279
-301
-323
-344
-361
-373
-379
-382
-381
-379
-376
-371
-365
-355
-340
-320
-295
-268
-242
-223
-214
-217
-235
-265
-302
-338
-367
-381
-377
-351
-308
-255
-199
-151
-119
-108
-121
-154
-202
-254
-303
-341
-363
-368
-359
-342
-321
-305
-296
-297
-307
-323
-343
-361
-375
-386
-393
-397
-401
-405
-409
-409
-404
-387
-354
-299
-219
-113
19
174
348
537
736
942
1152
1364
1576
1789
2000
2208
2409
2596
2764
2904
3006
3059
3055
2987
2855
2660
2411
2120
1805
1484
1175
894
652
455
304
194
117
63
23
-12
-46
-80
-113
-142
-163
-174
-171
-156
-131
-98
-62
-27
4
29
50
65
77
87
99
111
125
141
156
170
181
188
193
194
193
191
189
188
188
190
192
193
192
190
188
186
187
193
206
225
248
274
296
309
310
296
266
222
169
112
61
22
0
-4
12
43
84
127
166
196
214
218
209
192
172
154
142
136
139
149
162
176
188
195
198
199
200
204
215
232
255
280
303
316
317
301
268
223
171
120
81
58
55
74
110
158
208
254
290
312
319
315
305
295
289
289
297
310
323
334
337
331
318
298
277
260
250
250
262
283
312
342
370
393
406
410
406
395
379
362
346
331
317
306
298
292
290
294
304
324
353
391
436
484
530
569
595
608
604
586
558
525
492
467
453
452
464
486
514
544
572
594
609
617
619
618
616
614
614
616
621
630
641
655
672
693
716
740
765
787
807
823
835
844
851
857
863
871
880
890
901
910
919
927
936
947
963
987
1018
1056
1099
1141
1177
1204
1216
1212
1194
1165
1131
1099
1075
1065
1072
1096
1134
1183
1235
1286
1331
1366
1392
1409
1418
1425
1432
1443
1460
1483
1511
1545
1580
1615
1647
1673
1693
1706
1709
1704
1693
1674
1651
1624
1595
1568
1544
1525
1513
1508
1510
1518
1527
1536
1542
1541
1532
1514
1488
1456
1423
1391
1362
1339
1322
1310
1298
1283
1263
1234
1196
1151
1100
1049
999
956
922
897
879
867
857
843
823
794
755
706
650
589
526
465
409
361
321
290
268
254
248
247
251
258
265
273
278
281
280
274
262
244
220
191
160
127
95
67
43
26
16
11
10
9
6
-2
-17
-39
-66
-94
-121
-142
-154
-156
-148
-133
-115
-98
-85
-81
-86
-100
-120
-141
-158
-169
-171
-165
-153
-138
-127
-121
-124
-136
-156
-180
-204
-224
-234
-235
-225
-208
-185
-160
-138
-121
-111
-109
-114
-126
-143
-165
-188
-213
-236
-257
-273
-283
-285
-281
-270
-255
-240
-228
-221
-223
-232
-248
-267
-284
-295
-295
-282
-255
-218
-174
-131
-95
-71
-65
-77
-104
-144
-190
-235
-271
-295
-302
-292
-268
-234
-196
-161
-135
-119
-118
-130
-153
-183
-215
-245
-268
-282
-285
-277
-261
-238
-211
-184
-160
-142
-132
-130
-137
-151
-172
-196
-222
-246
-266
-279
-283
-276
-258
-232
-200
-166
-135
-112
-99
-100
-113
-136
-164
-190
-210
-220
-216
-199
-173
-144
-119
-105
-107
-128
-166
-216
-270
-322
-361
-382
-383
-364
-330
-288
-246
-211
-189
-180
-183
-195
-211
-224
-231
-228
-216
-195
-170
-144
-124
-112
-109
-118
-136
-162
-193
-223
-251
-271
-280
-279
-266
-243
-213
-180
-149
-125
-111
-109
-120
-143
-172
-203
-230
-249
-256
-251
-236
-214
-191
-172
-160
-160
-170
-189
-214
-240
-263
-281
-290
-291
-285
-274
-261
-249
-239
-232
-229
-231
-236
-246
-260
-280
-304
-332
-362
-392
-416
-432
-436
-425
-400
-363
-319
-271
-225
-185
-155
-136
-126
-123
-124
-125
-126
-126
-125
-127
-133
-143
-159
-179
-200
-219
-233
-238
-236
-227
-214
-200
-191
-188
-194
-207
-227
-247
-266
-278
-283
-279
-266
-249
-228
-208
-191
-177
-168
-163
-160
-160
-162
-165
-168
-173
-180
-187
-193
-197
-198
-195
-187
-176
-164
-152
-144
-141
-147
-160
-180
-205
-230
-254
-271
-282
-285
-280
-271
-258
-244
-231
-221
-212
-205
-196
-184
-169
-150
-130
-110
-92
-81
-76
-80
-91
-107
-123
-136
-142
-139
-126
-103
-74
-45
-20
-4
-1
-13
-39
-76
-118
-160
-196
-222
-233
-230
-215
-190
-163
-137
-118
-110
-114
-130
-154
-182
-208
-228
-236
-231
-213
-186
-154
-124
-102
-92
-96
-115
-144
-179
-212
-236
-246
-237
-211
-172
-127
-85
-55
-42
-50
-80
-127
-184
-241
-289
-319
-328
-313
-276
-225
-167
-110
-64
-34
-23
-32
-57
-93
-133
-170
-198
-213
-213
-200
-176
-147
-120
-98
-86
-85
-94
-112
-134
-157
-175
-188
-193
-190
-181
-169
-157
-145
-134
-126
-119
-114
-109
-103
-97
-90
-85
-80
-77
-75
-75
-75
-75
-74
-73
-73
-74
-76
-81
-88
-97
-105
-113
-118
-120
-118
-111
-102
-90
-78
-67
-58
-54
-55
-62
-76
-96
-121
-151
-181
-210
-234
-251
-260
-262
-258
-251
-247
-248
-256
-273
-298
-326
-354
-377
-390
-391
-381
-361
-336
-310
-291
-281
-284
-299
-326
-359
-395
-428
-455
-473
-480
-477
-465
-447
-424
-399
-373
-350
-329
-311
-298
-291
-291
-298
-312
-333
-359
-389
-417
-441
-458
-463
-456
-437
-408
-372
-336
-304
-284
-278
-289
-316
-354
-397
-438
-469
-486
-484
-464
-428
-382
-334
-290
-257
-239
-238
-251
-274
-304
-334
-360
-379
-388
-390
-385
-376
-367
-360
-356
-356
-359
-365
-372
-378
-383
-386
-385
-383
-380
-378
-377
-379
-383
-389
-393
-396
-396
-392
-384
-372
-358
-344
-333
-325
-320
-317
-316
-314
-309
-301
-290
-278
-269
-267
-274
-293
-322
-357
-395
-428
-450
-457
-446
-417
-373
-320
-264
-212
-167
-134
-113
-102
-99
-102
-106
-110
-112
-112
-111
-109
-108
-109
-112
-119
-130
-146
-166
-189
-213
-236
-253
-260
-255
-237
-205
-163
-116
-69
-31
-6
1
-8
-32
-64
-96
-120
-131
-126
-104
-70
-29
10
42
61
65
54
32
3
-26
-52
-71
-84
-90
-94
-98
-105
-116
-131
-148
-166
-181
-194
-202
-208
-214
-221
-235
-255
-282
-313
-346
-376
-400
-413
-415
-407
-391
-371
-350
-333
-322
-319
-323
-332
-344
-358
-370
-379
-386
-391
-394
-396
-396
-395
-390
-381
-368
-350
-328
-306
-285
-271
-265
-269
-283
-306
-335
-365
-394
-418
-436
-447
-454
-459
-462
-468
-477
-488
-499
-506
-507
-499
-479
-449
-413
-374
-337
-309
-293
-290
-300
-322
-350
-378
-402
-418
-423
-417
-403
-382
-359
-338
-322
-314
-315
-326
-345
-370
-399
-429
-456
-480
-494
-499
-493
-476
-450
-421
-392
-370
-357
-356
-367
-385
-407
-426
-435
-431
-411
-378
-339
-301
-275
-268
-285
-328
-393
-473
-557
-634
-695
-731
-741
-723
-683
-627
-560
-486
-406
-318
-218
-101
39
203
392
602
825
1053
1276
1487
1680
1855
2013
2159
2298
2433
2564
2687
2794
2872
2907
2885
2797
2638
2411
2125
1796
1446
1098
771
484
247
64
-66
-150
-199
-226
-240
-252
-267
-286
-309
-333
-354
-368
-371
-362
-342
-309
-268
-221
-172
-125
-84
-51
-30
-21
-25
-40
-65
-95
-126
-154
-176
-187
-187
-176
-156
-129
-99
-69
-45
-28
-22
-26
-41
-64
-92
-122
-149
-170
-181
-180
-169
-147
-120
-91
-64
-44
-33
-33
-45
-64
-88
-114
-138
-158
-173
-182
-187
-189
-191
-191
-191
-190
-185
-177
-165
-151
-135
-119
-106
-98
-94
-94
-97
-100
-100
-96
-88
-78
-68
-62
-63
-71
-88
-110
-133
-151
-158
-149
-122
-78
-21
41
101
150
181
190
176
143
96
46
-1
-36
-54
-53
-35
-4
34
72
105
126
136
136
129
119
112
112
120
138
161
187
211
228
236
233
221
203
184
170
164
168
183
208
236
265
288
301
301
290
268
241
213
190
176
175
187
209
240
274
309
339
364
382
395
402
408
413
419
425
433
441
447
450
450
447
443
440
441
448
463
487
520
558
599
636
666
685
690
681
659
628
596
567
549
545
559
591
635
689
745
796
838
869
888
897
900
902
908
921
943
974
1010
1049
1086
1119
1144
1162
1172
1178
1182
1189
1199
1217
1242
1273
1306
1338
1366
1384
1391
1386
1371
1349
1325
1305
1292
1293
1306
1332
1367
1406
1443
1472
1489
1494
1487
1473
1453
1435
1421
1416
1420
1432
1451
1474
1499
1523
1545
1563
1577
1585
1585
1575
1555
1523
1481
1430
1377
1324
1280
1249
1233
1233
1246
1267
1288
1300
1297
1275
1235
1178
1112
1044
982
933
899
882
879
884
891
896
893
880
857
827
792
756
722
693
668
646
626
605
582
556
527
496
464
434
408
387
372
362
357
356
355
354
349
341
327
308
283
255
224
193
163
137
117
104
99
102
113
129
148
170
191
209
223
231
233
227
213
194
172
150
132
119
114
117
129
148
170
194
215
232
244
250
250
243
231
214
190
159
123
80
35
-10
-50
-78
-91
-84
-58
-13
45
109
172
226
266
289
293
282
260
232
202
175
152
134
120
109
100
93
88
86
87
93
103
115
126
135
139
137
129
117
103
91
83
80
83
90
99
108
112
113
109
103
97
96
99
109
125
143
161
175
181
179
168
151
131
113
99
91
92
99
110
122
132
139
142
141
140
138
139
143
151
161
172
181
185
182
173
157
136
113
90
69
53
44
44
52
69
91
117
144
169
187
197
196
185
164
136
105
75
51
36
31
37
50
68
86
99
106
104
94
78
62
48
42
45
57
79
106
134
158
174
179
172
153
126
94
62
33
12
-2
-6
-1
9
23
38
53
65
72
75
72
62
47
26
1
-26
-53
-76
-93
-100
-97
-83
-60
-32
-2
23
39
42
32
10
-20
-54
-87
-113
-129
-133
-128
-117
-104
-92
-85
-87
-97
-113
-132
-153
-171
-186
-197
-206
-215
-225
-239
-256
-275
-294
-309
-319
-322
-318
-309
-298
-287
-280
-277
-278
-283
-289
-292
-290
-283
-272
-259
-247
-239
-239
-249
-267
-291
-318
-345
-369
-389
-402
-412
-417
-422
-426
-431
-437
-444
-449
-453
-455
-457
-459
-462
-468
-477
-489
-502
-516
-530
-541
-549
-555
-560
-565
-568
-572
-574
-575
-575
-572
-568
-563
-558
-556
-558
-565
-577
-592
-609
-624
-636
-642
-641
-632
-618
-600
-582
-566
-554
-549
-549
-556
-566
-578
-588
-596
-599
-596
-588
-573
-556
-539
-524
-513
-507
-505
-507
-509
-509
-504
-494
-477
-456
-432
-410
-391
-378
-370
-368
-370
-373
-377
-379
-382
-384
-389
-397
-409
-424
-438
-448
-451
-444
-426
-398
-365
-330
-299
-279
-270
-275
-292
-316
-341
-364
-378
-383
-378
-364
-344
-322
-301
-284
-271
-262
-258
-256
-258
-263
-271
-282
-298
-320
-346
-376
-407
-438
-467
-491
-510
-524
-532
-535
-535
-531
-524
-514
-501
-486
-470
-454
-441
-433
-433
-442
-461
-489
-523
-560
-596
-627
-648
-658
-656
-644
-625
-603
-582
-566
-556
-554
-556
-561
-566
-567
-563
-554
-540
-524
-506
-492
-481
-476
-477
-484
-498
-517
-541
-571
-606
-642
-679
-711
-734
-744
-736
-708
-662
-603
-536
-471
-417
-380
-366
-374
-402
-444
-491
-535
-569
-588
-593
-584
-567
-546
-527
-513
-507
-510
-519
-531
-544
-555
-563
-567
-568
-565
-562
-557
-553
-548
-542
-534
-524
-512
-499
-488
-480
-479
-486
-504
-533
-571
-615
-661
-703
-736
-757
-762
-751
-727
-695
-662
-634
-617
-613
-623
-645
-673
-701
-722
-731
-727
-711
-687
-660
-635
-619
-614
-620
-634
-652
-669
-679
-681
-672
-654
-631
-607
-584
-567
-556
-549
-547
-545
-541
-534
-525
-515
-507
-502
-504
-511
-524
-540
-558
-574
-586
-594
-597
-596
-593
-589
-583
-578
-573
-566
-557
-546
-534
-523
-514
-509
-510
-517
-528
-540
-549
-552
-546
-530
-505
-474
-441
-412
-390
-379
-379
-390
-407
-424
-438
-444
-443
-435
-423
-411
-405
-406
-417
-437
-461
-484
-503
-512
-510
-495
-472
-445
-420
-400
-389
-389
-399
-416
-435
-453
-464
-465
-457
-440
-414
-384
-351
-320
-293
-272
-259
-253
-256
-267
-284
-305
-327
-346
-357
-358
-346
-321
-286
-242
-197
-157
-128
-116
-123
-149
-190
-240
-292
-340
-378
-403
-415
-415
-409
-401
-398
-403
-418
-440
-467
-495
-519
-536
-545
-544
-535
-521
-508
-498
-493
-495
-503
-516
-530
-543
-552
-558
-558
-553
-545
-534
-522
-511
-501
-495
-493
-496
-504
-516
-532
-549
-566
-579
-587
-588
-579
-562
-538
-510
-482
-456
-437
-425
-421
-424
-432
-443
-454
-463
-469
-474
-478
-484
-492
-504
-519
-537
-554
-569
-579
-585
-585
-582
-577
-573
-571
-573
-578
-587
-595
-600
-599
-592
-577
-555
-528
-499
-472
-451
-438
-434
-440
-456
-478
-504
-532
-556
-575
-585
-587
-578
-562
-539
-515
-493
-476
-468
-470
-482
-503
-528
-552
-570
-580
-580
-571
-556
-538
-523
-514
-517
-530
-553
-581
-612
-640
-661
-674
-679
-678
-672
-664
-656
-647
-636
-618
-585
-531
-449
-334
-185
-1
213
448
695
945
1190
1421
1634
1825
1993
2139
2264
2367
2447
2500
2522
2506
2449
2347
2198
2007
1779
1524
1251
973
701
446
215
14
-155
-289
-390
-461
-506
-528
-531
-521
-505
-489
-477
-474
-481
-497
-521
-548
-572
-587
-588
-574
-543
-500
-449
-399
-356
-326
-313
-319
-341
-375
-413
-448
-475
-488
-487
-472
-448
-419
-393
-375
-368
-376
-396
-426
-462
-498
-530
-552
-564
-566
-558
-545
-529
-514
-501
-492
-487
-483
-480
-475
-469
-459
-449
-439
-433
-432
-438
-451
-470
-494
-518
-538
-553
-559
-557
-546
-530
-511
-493
-479
-471
-469
-474
-484
-496
-509
-519
-524
-524
-518
-507
-494
-480
-467
-457
-451
-448
-450
-455
-462
-469
-476
-480
-480
-477
-472
-465
-458
-453
-451
-452
-455
-460
-464
-466
-463
-455
-441
-425
-407
-391
-380
-377
-381
-393
-409
-427
-442
-450
-447
-432
-406
-370
-330
-289
-252
-223
-205
-200
-206
-224
-247
-273
-298
-319
-335
-343
-345
-342
-336
-328
-321
-315
-310
-305
-298
-287
-270
-245
-213
-173
-130
-87
-46
-13
11
22
21
8
-15
-43
-73
-102
-123
-134
-134
-121
-95
-60
-19
26
69
106
134
150
155
149
136
121
107
99
101
114
138
170
206
243
274
298
314
321
323
323
325
332
348
371
401
434
465
490
506
513
511
504
496
493
499
516
546
586
631
676
716
746
764
768
762
751
738
730
729
739
758
786
818
849
878
901
917
927
934
940
946
955
966
975
979
976
961
934
895
849
802
762
736
730
747
787
844
911
975
1026
1056
1059
1032
980
910
832
757
694
649
624
618
625
639
650
653
644
620
584
539
490
443
400
366
339
321
308
296
283
266
243
212
176
136
93
50
11
-23
-49
-66
-72
-70
-59
-42
-21
2
22
38
49
51
43
26
0
-33
-71
-111
-151
-185
-212
-230
-237
-234
-223
-205
-185
-165
-149
-138
-133
-134
-140
-150
-162
-176
-190
-205
-221
-239
-257
-275
-292
-306
-316
-321
-320
-315
-306
-296
-285
-276
-269
-265
-263
-263
-263
-263
-263
-264
-267
-274
-284
-298
-314
-332
-348
-360
-366
-366
-359
-347
-332
-316
-302
-291
-284
-282
-283
-288
-296
-305
-315
-327
-340
-353
-367
-379
-388
-395
-397
-396
-391
-385
-380
-375
-373
-372
-373
-374
-371
-364
-351
-332
-310
-286
-265
-248
-239
-239
-245
-258
-273
-287
-297
-302
-302
-298
-292
-287
-287
-292
-302
-317
-333
-347
-355
-353
-341
-318
-287
-250
-214
-184
-162
-153
-156
-170
-192
-218
-241
-258
-267
-266
-257
-242
-226
-211
-201
-198
-200
-207
-216
-223
-225
-221
-211
-195
-177
-160
-145
-137
-134
-138
-146
-156
-168
-178
-185
-188
-188
-186
-182
-177
-173
-169
-167
-167
-171
-178
-189
-204
-221
-239
-258
-272
-282
-283
-276
-262
-240
-214
-186
-158
-133
-114
-103
-99
-103
-115
-133
-157
-183
-209
-232
-248
-254
-249
-233
-207
-172
-135
-100
-73
-58
-58
-72
-99
-134
-172
-208
-235
-252
-257
-251
-237
-218
-197
-179
-165
-158
-157
-161
-169
-179
-190
-200
-208
-214
-217
-218
-218
-216
-214
-214
-215
-216
-218
-218
-214
-206
-192
-173
-151
-128
-108
-95
-93
-104
-126
-156
-191
-223
-248
-262
-264
-253
-232
-205
-178
-154
-137
-129
-128
-134
-144
-156
-168
-179
-189
-198
-205
-210
-212
-209
-201
-186
-168
-148
-129
-117
-113
-120
-137
-161
-188
-211
-225
-226
-213
-186
-151
-113
-80
-58
-53
-65
-93
-131
-173
-212
-240
-253
-247
-224
-188
-145
-102
-66
-43
-36
-45
-71
-107
-149
-190
-224
-247
-255
-247
-226
-194
-156
-117
-84
-59
-48
-49
-64
-89
-121
-156
-189
-218
-239
-249
-249
-241
-228
-213
-202
-196
-199
-210
-228
-249
-269
-281
-282
-269
-243
-206
-163
-122
-91
-75
-80
-106
-149
-205
-262
-312
-345
-355
-339
-301
-245
-181
-120
-70
-40
-33
-49
-82
-126
-172
-211
-237
-245
-235
-210
-175
-136
-99
-71
-53
-48
-55
-68
-87
-107
-126
-140
-151
-157
-160
-161
-161
-161
-162
-164
-167
-173
-182
-192
-203
-215
-225
-231
-230
-222
-205
-180
-148
-115
-84
-60
-48
-50
-67
-98
-139
-185
-230
-267
-293
-307
-307
-296
-276
-253
-230
-211
-199
-195
-198
-205
-213
-221
-225
-224
-219
-211
-202
-194
-190
-190
-194
-201
-207
-209
-206
-195
-177
-157
-139
-129
-131
-149
-183
-231
-283
-331
-365
-378
-364
-323
-261
-188
-114
-52
-12
0
-14
-49
-96
-143
-181
-200
-200
-182
-152
-121
-96
-85
-90
-111
-143
-179
-212
-236
-249
-253
-251
-249
-253
-264
-283
-304
-323
-332
-325
-301
-261
-212
-162
-123
-102
-105
-130
-173
-225
-275
-311
-326
-317
-285
-236
-180
-125
-79
-50
-38
-42
-58
-81
-104
-123
-137
-145
-146
-141
-133
-121
-105
-87
-67
-47
-29
-17
-13
-17
-30
-48
-69
-87
-99
-100
-91
-74
-53
-34
-23
-24
-39
-64
-96
-128
-152
-163
-157
-135
-100
-59
-20
10
26
24
4
-29
-70
-111
-145
-166
-171
-158
-129
-88
-41
7
50
84
107
120
124
123
120
118
118
121
124
124
119
106
83
52
17
-18
-46
-62
-63
-48
-22
12
45
70
82
76
55
20
-20
-57
-83
-92
-81
-49
-1
56
115
167
208
232
239
231
212
187
163
147
141
148
168
199
236
276
312
341
358
362
354
336
314
291
273
263
262
270
283
297
306
304
289
259
217
164
108
53
5
-32
-55
-64
-61
-47
-27
-4
20
39
52
57
55
45
28
6
-18
-42
-64
-81
-90
-91
-84
-69
-46
-18
14
46
77
102
120
127
121
102
69
24
-28
-81
-131
-171
-196
-205
-195
-169
-133
-93
-55
-25
-7
-4
-16
-39
-70
-104
-137
-166
-188
-201
-207
-206
-198
-186
-170
-151
-131
-113
-98
-91
-93
-106
-130
-164
-204
-244
-281
-307
-319
-312
-286
-244
-191
-135
-82
-40
-14
-7
-18
-46
-84
-124
-159
-183
-190
-180
-155
-118
-78
-41
-15
-5
-13
-39
-77
-121
-164
-199
-219
-221
-205
-173
-132
-86
-44
-13
1
-4
-31
-78
-140
-211
-284
-350
-401
-431
-434
-411
-361
-291
-204
-109
-10
89
187
288
397
520
662
827
1015
1223
1445
1671
1894
2106
2303
2481
2639
2778
2898
2995
3063
3093
3075
2999
2860
2659
2402
2103
1781
1456
1149
875
644
458
312
198
105
23
-54
-130
-201
-263
-311
-340
-349
-342
-323
-301
-282
-274
-277
-292
-311
-330
-341
-339
-322
-292
-255
-218
-187
-170
-169
-184
-211
-246
-283
-315
-339
-353
-358
-355
-349
-343
-338
-336
-335
-335
-333
-330
-326
-321
-319
-320
-328
-344
-368
-399
-434
-468
-498
-521
-533
-535
-525
-504
-477
-445
-414
-387
-365
-352
-348
-353
-365
-380
-395
-407
-414
-414
-408
-396
-381
-367
-356
-351
-351
-358
-369
-382
-393
-400
-402
-398
-388
-372
-353
-332
-309
-286
-262
-239
-217
-195
-175
-159
-147
-141
-141
-148
-159
-173
-187
-200
-210
-215
-216
-213
-209
-205
-203
-207
-217
-233
-256
-283
-310
-335
-354
-360
-353
-330
-294
-247
-196
-145
-104
-76
-65
-72
-95
-130
-168
-202
-227
-237
-230
-209
-177
-140
-104
-75
-57
-52
-58
-74
-95
-118
-135
-146
-147
-138
-121
-97
-68
-37
-7
19
40
53
58
54
43
26
6
-13
-29
-37
-35
-22
3
37
79
123
165
202
229
245
249
244
231
215
201
191
189
197
214
239
270
305
342
376
406
432
453
469
481
490
498
504
511
517
523
530
538
546
556
569
585
604
627
654
682
712
741
767
789
806
817
823
825
824
822
820
820
822
825
827
828
826
822
818
814
816
825
847
881
928
983
1043
1100
1147
1179
1192
1185
1159
1121
1075
1031
993
968
955
955
962
973
982
983
974
954
924
887
847
808
773
745
723
709
701
698
696
695
691
683
668
645
611
568
515
455
390
324
262
205
158
122
97
80
69
62
56
46
32
11
-16
-50
-90
-134
-181
-227
-270
-307
-335
-352
-358
-355
-345
-331
-319
-314
-317
-331
-355
-384
-413
-436
-451
-455
-447
-432
-416
-406
-409
-429
-467
-522
-586
-652
-710
-751
-769
-762
-733
-688
-636
-585
-545
-520
-515
-527
-553
-585
-618
-646
-662
-667
-660
-645
-626
-608
-592
-583
-581
-584
-590
-596
-601
-602
-599
-594
-588
-582
-579
-578
-580
-585
-593
-601
-609
-615
-620
-622
-622
-620
-617
-615
-612
-610
-607
-605
-603
-602
-603
-608
-616
-628
-642
-657
-671
-679
-680
-672
-656
-634
-607
-580
-557
-543
-541
-550
-571
-599
-631
-662
-687
-702
-703
-692
-667
-633
-593
-552
-515
-485
-466
-462
-473
-499
-536
-580
-627
-669
-700
-716
-715
-697
-666
-626
-587
-553
-529
-518
-520
-531
-547
-561
-570
-569
-560
-545
-528
-514
-506
-508
-518
-535
-553
-568
-576
-575
-564
-546
-527
-510
-501
-501
-511
-527
-547
-563
-572
-569
-555
-532
-503
-473
-447
-430
-422
-425
-436
-452
-468
-481
-487
-487
-478
-465
-448
-429
-412
-398
-385
-374
-365
-356
-347
-340
-333
-329
-327
-327
-331
-335
-340
-341
-339
-333
-324
-312
-300
-290
-286
-287
-295
-308
-324
-336
-342
-338
-321
-293
-257
-218
-183
-159
-151
-162
-192
-235
-285
-330
-363
-375
-363
-328
-273
-209
-145
-95
-67
-65
-91
-138
-199
-264
-320
-358
-374
-367
-340
-301
-258
-219
-191
-178
-180
-194
-214
-236
-255
-268
-272
-271
-266
-262
-262
-267
-278
-292
-306
-315
-315
-304
-281
-248
-210
-173
-144
-128
-131
-155
-198
-253
-314
-372
-417
-441
-440
-411
-359
-289
-211
-136
-74
-34
-20
-32
-67
-117
-172
-222
-258
-273
-266
-239
-197
-149
-105
-73
-59
-66
-91
-131
-175
-217
-247
-260
-255
-235
-206
-175
-152
-142
-149
-174
-212
-256
-298
-332
-352
-355
-341
-317
-287
-258
-236
-223
-221
-228
-239
-250
-258
-258
-251
-236
-216
-195
-175
-160
-151
-148
-150
-157
-167
-179
-191
-204
-216
-228
-239
-250
-258
-265
-269
-270
-267
-263
-256
-249
-240
-231
-224
-217
-210
-203
-196
-189
-184
-181
-180
-182
-188
-197
-210
-225
-242
-257
-270
-278
-281
-278
-269
-255
-237
-217
-198
-181
-170
-164
-164
-168
-175
-183
-188
-188
-183
-172
-158
-142
-127
-118
-117
-125
-141
-164
-189
-212
-228
-234
-228
-210
-184
-155
-128
-110
-104
-113
-135
-168
-205
-241
-269
-285
-287
-274
-252
-224
-195
-171
-153
-144
-144
-149
-156
-164
-171
-176
-181
-186
-193
-202
-214
-227
-237
-243
-243
-236
-224
-211
-199
-193
-196
-210
-232
-260
-289
-312
-325
-325
-312
-288
-256
-224
-197
-179
-174
-181
-199
-223
-246
-264
-272
-269
-254
-232
-206
-183
-169
-169
-185
-216
-260
-311
-360
-399
-423
-424
-402
-357
-295
-224
-152
-90
-45
-23
-25
-49
-90
-140
-191
-234
-263
-277
-275
-261
-239
-216
-198
-191
-197
-216
-245
-280
-315
-343
-360
-363
-351
-327
-294
-258
-224
-196
-180
-175
-181
-195
-212
-229
-241
-244
-237
-222
-199
-174
-150
-131
-121
-124
-138
-163
-196
-234
-271
-303
-324
-332
-327
-309
-282
-250
-219
-194
-179
-176
-185
-203
-225
-247
-263
-270
-265
-251
-231
-209
-190
-178
-176
-185
-203
-223
-243
-255
-259
-250
-231
-203
-171
-141
-118
-107
-109
-126
-154
-190
-228
-265
-294
-312
-315
-303
-277
-238
-191
-140
-89
-44
-7
20
36
41
39
31
17
2
-15
-31
-47
-61
-72
-80
-84
-82
-74
-61
-44
-23
-2
20
42
63
83
102
121
138
153
165
170
167
156
137
114
90
70
59
61
76
105
143
185
225
257
276
281
271
252
227
202
183
174
176
188
207
229
251
269
280
283
278
266
249
227
202
174
146
117
89
64
43
27
18
17
21
30
39
46
47
41
26
2
-29
-65
-101
-135
-161
-179
-186
-182
-168
-146
-120
-92
-65
-42
-25
-15
-11
-13
-20
-28
-37
-45
-52
-58
-64
-73
-86
-105
-129
-158
-191
-223
-251
-270
-278
-272
-251
-220
-180
-138
-98
-67
-48
-45
-56
-81
-115
-153
-190
-221
-243
-255
-256
-248
-235
-219
-203
-189
-179
-172
-167
-164
-160
-156
-151
-146
-145
-147
-156
-171
-192
-217
-242
-263
-275
-277
-266
-244
-213
-179
-147
-124
-113
-115
-130
-154
-180
-202
-215
-215
-201
-176
-145
-115
-92
-82
-89
-112
-146
-187
-228
-263
-288
-303
-307
-304
-300
-297
-299
-306
-315
-323
-326
-320
-303
-275
-237
-191
-138
-77
-8
76
179
308
466
657
878
1122
1381
1643
1896
2131
2340
2519
2669
2790
2885
2953
2996
3009
2986
2922
2809
2646
2432
2174
1880
1567
1250
947
673
440
256
122
33
-17
-42
-52
-57
-67
-87
-118
-158
-202
-243
-275
-293
-295
-280
-249
-205
-154
-100
-48
0
38
66
82
85
77
60
35
6
-21
-42
-55
-57
-47
-28
-3
24
45
57
56
43
17
-16
-54
-90
-120
-141
-151
-149
-138
-117
-90
-59
-26
6
33
53
62
57
37
1
-46
-100
-154
-200
-231
-240
-226
-191
-137
-72
-6
54
100
128
135
124
98
62
20
-20
-56
-85
-105
-115
-117
-111
-98
-81
-62
-42
-24
-10
-3
-1
-6
-17
-31
-45
-56
-62
-59
-47
-25
7
44
84
120
148
163
164
149
121
85
48
16
-5
-11
0
26
61
98
129
149
154
144
123
97
72
57
56
70
99
138
180
219
247
264
268
261
248
233
219
208
198
187
173
153
126
93
58
25
0
-11
-6
18
57
108
167
227
284
333
370
396
410
413
407
393
374
352
330
311
297
291
294
307
328
356
386
414
438
454
462
462
458
451
447
448
458
477
506
542
582
621
657
684
702
709
705
694
678
661
648
644
651
670
700
738
781
826
869
906
937
959
975
987
995
1003
1009
1016
1021
1024
1026
1025
1024
1024
1028
1037
1054
1078
1109
1142
1176
1205
1227
1241
1247
1245
1239
1233
1231
1235
1245
1261
1281
1301
1320
1335
1345
1350
1351
1349
1347
1345
1343
1341
1336
1327
1311
1288
1256
1218
1174
1127
1081
1038
1001
972
954
946
948
958
974
990
1002
1007
998
973
928
866
788
698
604
510
424
350
292
253
230
222
225
235
247
256
258
248
225
188
138
78
13
-52
-110
-157
-188
-201
-199
-185
-165
-146
-134
-132
-143
-166
-197
-231
-260
-282
-294
-296
-290
-281
-274
-275
-286
-308
-339
-374
-409
-440
-462
-474
-477
-473
-464
-456
-450
-447
-448
-450
-451
-449
-445
-437
-428
-420
-418
-424
-439
-462
-491
-521
-547
-564
-566
-553
-524
-485
-441
-399
-366
-348
-346
-360
-388
-424
-462
-494
-518
-530
-529
-519
-504
-486
-471
-462
-458
-459
-464
-470
-475
-479
-481
-483
-489
-498
-515
-537
-564
-593
-620
-640
-649
-645
-629
-602
-566
-528
-490
-457
-433
-418
-411
-411
-415
-420
-425
-429
-431
-434
-440
-451
-467
-490
-518
-548
-577
-601
-618
-626
-626
-619
-609
-599
-590
-587
-590
-598
-610
-623
-634
-639
-638
-630
-617
-600
-582
-565
-551
-541
-535
-534
-535
-538
-544
-549
-555
-559
-563
-567
-570
-572
-575
-579
-584
-592
-601
-613
-625
-638
-648
-654
-655
-649
-639
-625
-611
-599
-592
-592
-600
-617
-639
-664
-690
-712
-729
-737
-738
-732
-721
-707
-693
-682
-676
-675
-682
-693
-708
-724
-737
-745
-744
-733
-711
-681
-645
-608
-577
-556
-549
-556
-577
-609
-647
-683
-713
-731
-736
-726
-705
-677
-649
-625
-610
-606
-610
-621
-635
-648
-656
-657
-653
-644
-634
-626
-622
-625
-636
-654
-674
-696
-716
-729
-736
-734
-725
-709
-688
-664
-638
-614
-593
-576
-565
-562
-566
-575
-589
-606
-623
-637
-646
-650
-650
-648
-645
-645
-651
-663
-681
-703
-726
-745
-756
-757
-745
-721
-690
-656
-623
-596
-580
-577
-586
-605
-631
-660
-687
-707
-720
-724
-720
-710
-697
-683
-670
-661
-654
-651
-651
-652
-653
-654
-652
-647
-640
-632
-624
-617
-613
-612
-614
-618
-622
-624
-623
-616
-604
-587
-568
-551
-538
-534
-540
-556
-580
-610
-640
-666
-685
-692
-687
-671
-645
-614
-580
-547
-519
-499
-487
-485
-492
-507
-529
-554
-580
-603
-621
-631
-632
-625
-613
-599
-587
-583
-588
-604
-627
-653
-674
-684
-679
-656
-615
-561
-501
-446
-404
-381
-382
-405
-447
-497
-549
-592
-620
-631
-624
-604
-578
-551
-531
-522
-526
-540
-561
-584
-603
-615
-616
-609
-594
-577
-561
-549
-543
-544
-548
-553
-553
-547
-532
-508
-479
-448
-421
-402
-395
-400
-415
-438
-464
-487
-505
-515
-520
-521
-520
-521
-527
-537
-550
-564
-575
-580
-576
-564
-545
-522
-499
-479
-465
-460
-461
-466
-473
-477
-475
-466
-450
-427
-402
-377
-355
-338
-330
-329
-337
-351
-370
-390
-410
-427
-439
-446
-445
-440
-430
-418
-408
-404
-408
-419
-439
-465
-494
-521
-540
-550
-548
-534
-509
-477
-440
-405
-374
-349
-333
-323
-321
-322
-327
-333
-339
-347
-356
-366
-378
-391
-405
-417
-428
-436
-440
-440
-436
-429
-421
-413
-404
-397
-393
-390
-390
-390
-391
-392
-392
-391
-389
-386
-383
-382
-383
-386
-394
-404
-415
-426
-434
-439
-438
-432
-422
-410
-399
-391
-388
-392
-402
-416
-432
-446
-456
-460
-456
-447
-432
-414
-395
-376
-360
-345
-333
-321
-311
-304
-298
-297
-301
-310
-324
-339
-355
-369
-377
-379
-373
-359
-340
-319
-297
-278
-262
-250
-242
-238
-237
-238
-241
-247
-256
-268
-284
-302
-319
-334
-344
-347
-343
-333
-321
-309
-300
-298
-305
-320
-341
-364
-386
-400
-402
-391
-366
-330
-287
-242
-202
-171
-154
-151
-162
-185
-215
-247
-279
-307
-327
-339
-344
-342
-336
-328
-319
-310
-301
-292
-283
-271
-258
-244
-228
-213
-198
-185
-175
-166
-160
-157
-155
-155
-157
-161
-166
-172
-178
-184
-187
-188
-185
-180
-172
-164
-156
-152
-152
-156
-163
-172
-180
-187
-189
-185
-175
-161
-143
-123
-104
-88
-75
-66
-61
-59
-62
-69
-80
-95
-115
-139
-167
-199
-233
-267
-301
-335
-368
-398
-424
-445
-461
-468
-468
-459
-443
-423
-403
-386
-378
-380
-393
-415
-445
-477
-505
-526
-536
-535
-524
-508
-490
-476
-469
-473
-485
-503
-523
-539
-546
-542
-524
-495
-458
-416
-376
-341
-315
-301
-298
-306
-321
-340
-362
-383
-403
-420
-435
-449
-462
-476
-490
-506
-522
-536
-548
-556
-560
-557
-548
-534
-517
-497
-478
-461
-449
-441
-437
-436
-438
-440
-442
-444
-445
-447
-451
-459
-471
-487
-505
-522
-534
-539
-535
-521
-498
-469
-440
-416
-402
-401
-414
-441
-477
-518
-558
-593
-618
-633
-639
-635
-627
-615
-603
-591
-578
-563
-547
-527
-507
-487
-471
-461
-460
-469
-487
-513
-543
-573
-597
-614
-621
-618
-607
-587
-562
-533
-499
-458
-406
-340
-255
-146
-13
145
325
523
733
949
1162
1366
1558
1734
1893
2031
2149
2241
2303
2330
2315
2252
2137
1970
1752
1493
1205
902
602
318
63
-155
-331
-466
-563
-628
-668
-691
-702
-708
-711
-715
-723
-735
-752
-774
-799
-823
-842
-852
-846
-823
-782
-724
-655
-580
-508
-444
-395
-365
-354
-361
-382
-415
-453
-493
-530
-563
-587
-602
-605
-598
-579
-551
-515
-476
-437
-403
-378
-366
-366
-378
-399
-425
-452
-474
-489
-496
-493
-483
-467
-449
-429
-410
-393
-379
-369
-360
-354
-348
-343
-340
-339
-340
-345
-353
-365
-380
-398
-417
-432
-442
-443
-435
-416
-387
-353
-318
-288
-269
-263
-273
-299
-336
-379
-419
-451
-467
-464
-442
-403
-354
-301
-252
-214
-193
-188
-198
-218
-241
-261
-271
-266
-247
-215
-176
-135
-100
-78
-74
-88
-120
-164
-213
-259
-294
-312
-309
-286
-247
-197
-145
-98
-63
-43
-39
-48
-66
-86
-101
-107
-101
-84
-58
-27
5
32
53
67
74
78
81
86
95
107
121
132
139
136
124
102
72
38
5
-21
-37
-41
-31
-10
21
56
92
127
157
181
201
216
230
244
259
276
294
312
329
344
354
359
358
353
345
338
333
334
343
360
385
418
455
494
532
567
597
620
637
649
658
664
669
675
680
685
691
697
705
715
727
744
764
788
814
841
868
891
910
923
932
938
945
954
968
988
1013
1042
1072
1099
1122
1137
1144
1144
1137
1129
1123
1122
1128
1141
1161
1186
1211
1232
1247
1252
1245
1229
1208
1184
1166
1157
1162
1182
1218
1263
1312
1357
1389
1400
1386
1346
1281
1199
1109
1020
943
885
850
839
848
870
897
919
929
922
895
850
791
726
659
599
549
513
489
477
472
467
458
442
415
380
337
291
247
209
180
160
148
142
136
129
116
98
75
52
33
21
21
32
51
73
91
98
89
62
17
-40
-101
-157
-200
-225
-228
-212
-182
-146
-111
-84
-71
-72
-87
-110
-139
-166
-187
-199
-201
-194
-181
-164
-146
-132
-123
-121
-126
-138
-156
-179
-203
-227
-248
-265
-277
-284
-285
-282
-277
-273
-269
-269
-272
-278
-286
-297
-307
-316
-322
-323
-319
-309
-292
-269
-241
-212
-185
-163
-150
-150
-162
-187
-221
-261
-300
-332
-352
-358
-349
-326
-293
-255
-219
-190
-172
-166
-171
-183
-197
-208
-211
-203
-183
-154
-118
-83
-52
-30
-21
-23
-35
-53
-72
-86
-91
-86
-69
-45
-17
8
27
36
33
18
-5
-32
-58
-79
-91
-91
-82
-63
-38
-11
15
37
53
63
67
65
58
48
35
21
6
-9
-23
-36
-47
-55
-60
-61
-59
-57
-54
-52
-51
-53
-57
-63
-67
-70
-69
-64
-55
-43
-31
-19
-10
-5
-5
-7
-10
-13
-13
-9
-1
9
19
27
30
28
20
7
-8
-21
-30
-33
-29
-19
-5
12
29
45
58
69
79
88
96
103
107
104
92
70
38
-2
-46
-89
-122
-141
-140
-118
-77
-22
38
95
141
167
170
149
109
56
-1
-54
-94
-115
-115
-96
-60
-16
29
67
94
106
101
84
58
29
3
-18
-29
-29
-21
-6
10
23
30
28
18
-1
-26
-51
-73
-88
-92
-83
-62
-31
6
43
76
98
106
99
79
48
10
-27
-59
-81
-90
-85
-68
-42
-9
24
55
79
96
103
102
95
82
66
49
34
22
13
7
6
7
10
11
10
5
-5
-18
-35
-52
-67
-78
-84
-83
-78
-69
-60
-51
-47
-46
-50
-57
-64
-70
-70
-64
-51
-34
-14
3
17
23
19
6
-16
-43
-70
-95
-113
-122
-121
-110
-91
-68
-44
-22
-5
6
9
5
-3
-14
-25
-35
-43
-48
-50
-50
-50
-51
-54
-59
-65
-71
-77
-81
-82
-77
-69
-57
-41
-23
-5
9
19
22
18
6
-13
-36
-59
-80
-92
-93
-82
-58
-25
14
51
81
98
97
78
44
-2
-52
-98
-134
-153
-154
-138
-108
-70
-30
5
31
47
51
47
37
24
12
4
-1
-1
2
10
20
31
41
50
54
52
42
23
-4
-36
-72
-105
-132
-149
-151
-140
-116
-85
-51
-18
8
24
29
27
17
4
-9
-19
-28
-34
-39
-43
-49
-56
-64
-70
-73
-72
-65
-53
-38
-19
0
18
32
41
45
43
37
28
18
9
5
6
13
28
46
65
81
90
89
75
49
15
-22
-54
-76
-81
-67
-36
8
57
104
140
160
160
143
114
78
45
19
5
3
11
27
43
57
65
67
62
53
43
35
28
25
24
25
29
33
39
47
56
68
81
92
99
101
96
83
64
42
21
3
-8
-11
-6
4
18
33
46
56
64
68
71
74
78
81
84
86
87
85
83
81
79
79
80
82
82
79
69
53
31
6
-18
-38
-49
-49
-38
-16
12
43
73
97
113
122
124
121
117
112
108
105
101
97
91
83
74
65
60
60
67
82
105
133
163
190
210
218
212
191
157
113
65
20
-16
-38
-40
-20
19
74
137
202
260
305
332
341
333
312
284
256
233
220
217
225
240
259
277
291
298
298
290
277
259
241
222
207
195
189
188
194
208
231
263
302
344
388
427
457
473
471
452
416
369
318
270
232
208
202
212
234
261
285
298
295
275
236
184
125
67
17
-21
-45
-53
-51
-41
-30
-21
-16
-16
-19
-22
-23
-19
-8
9
33
60
88
112
132
145
150
148
140
128
115
101
89
79
71
67
65
63
59
51
39
20
-4
-32
-63
-92
-117
-134
-143
-141
-129
-107
-79
-47
-15
15
40
59
71
74
67
52
27
-4
-39
-75
-108
-136
-152
-156
-146
-121
-84
-38
14
65
112
150
174
185
179
160
128
86
41
-5
-48
-83
-107
-118
-115
-99
-73
-41
-9
20
40
49
46
32
11
-13
-34
-49
-53
-46
-26
2
34
66
92
108
112
101
78
43
0
-47
-96
-142
-183
-216
-239
-252
-252
-237
-206
-158
-89
0
111
242
392
560
743
937
1140
1349
1561
1774
1984
2190
2389
2577
2749
2900
3025
3117
3171
3180
3143
3055
2919
2738
2519
2271
2005
1731
1463
1209
980
780
611
474
365
282
219
170
133
103
79
60
45
36
33
37
50
72
103
142
186
233
279
319
349
367
373
366
350
330
312
302
303
317
344
378
414
446
466
471
458
429
389
343
299
263
239
229
232
245
262
277
287
287
277
258
235
212
194
186
190
207
235
270
308
343
370
385
387
376
354
325
294
266
245
236
239
255
282
316
355
394
430
459
480
492
496
495
488
477
465
452
438
425
412
399
388
380
374
371
372
375
382
389
395
399
398
394
387
378
368
360
355
355
359
366
374
380
383
380
371
358
344
332
324
324
332
346
364
384
399
407
405
393
374
349
325
305
293
292
301
319
343
368
390
407
415
416
410
399
388
381
378
382
393
408
426
442
452
455
449
435
415
394
376
368
372
392
429
479
537
596
651
694
723
733
727
707
679
651
628
615
613
624
645
672
700
726
746
759
766
770
773
780
793
811
834
858
880
896
901
895
879
855
828
805
790
788
803
832
874
925
979
1031
1075
1110
1134
1148
1156
1162
1169
1180
1196
1218
1244
1273
1301
1325
1344
1356
1361
1360
1355
1348
1343
1339
1341
1349
1363
1383
1407
1434
1459
1482
1501
1512
1517
1514
1507
1497
1490
1487
1493
1508
1534
1568
1606
1643
1675
1696
1703
1693
1668
1633
1591
1548
1510
1478
1456
1440
1429
1416
1398
1369
1328
1274
1210
1141
1071
1006
950
905
873
853
844
844
847
852
855
854
846
830
805
770
727
677
625
573
525
484
454
433
419
409
398
381
356
319
271
215
156
100
53
20
3
1
11
31
54
74
88
93
88
75
57
36
17
1
-8
-10
-6
3
13
24
31
35
32
23
7
-13
-36
-58
-79
-94
-102
-101
-93
-78
-59
-38
-18
-4
4
5
-2
-13
-26
-39
-48
-51
-47
-37
-23
-8
7
19
25
25
20
13
4
-2
-4
-1
7
17
30
42
50
54
53
46
35
23
10
-1
-11
-17
-21
-24
-26
-28
-30
-31
-32
-31
-27
-20
-11
1
13
26
37
45
50
53
53
51
47
41
33
21
5
-15
-40
-68
-96
-124
-148
-165
-174
-174
-167
-155
-140
-124
-112
-105
-105
-110
-119
-131
-142
-151
-158
-162
-163
-161
-159
-156
-154
-151
-149
-148
-146
-145
-145
-146
-149
-153
-159
-166
-173
-179
-183
-186
-186
-184
-180
-176
-172
-167
-160
-150
-137
-120
-100
-79
-60
-45
-39
-43
-59
-85
-117
-151
-180
-198
-201
-188
-160
-122
-80
-44
-20
-13
-24
-52
-91
-133
-168
-192
-199
-190
-166
-134
-103
-80
-71
-79
-101
-133
-167
-196
-215
-218
-207
-185
-157
-131
-112
-105
-110
-126
-150
-176
-199
-214
-221
-220
-213
-204
-195
-191
-190
-191
-194
-195
-192
-184
-171
-156
-142
-132
-127
-129
-140
-158
-180
-206
-231
-255
-275
-291
-301
-305
-303
-294
-277
-255
-226
-195
-163
-135
-113
-100
-97
-102
-115
-132
-150
-167
-180
-189
-194
-197
-198
-200
-201
-204
-205
-204
-202
-197
-192
-189
-190
-195
-207
-224
-244
-262
-275
-282
-278
-266
-247
-226
-207
-194
-189
-194
-205
-221
-237
-248
-252
-248
-236
-221
-206
-195
-191
-196
-208
-223
-239
-250
-252
-245
-228
-203
-176
-149
-129
-120
-123
-138
-163
-195
-229
-262
-289
-308
-316
-315
-304
-287
-265
-242
-222
-205
-194
-189
-190
-196
-205
-218
-232
-246
-260
-273
-286
-299
-312
-325
-339
-353
-365
-374
-380
-383
-381
-375
-366
-355
-343
-332
-321
-311
-301
-291
-282
-273
-264
-257
-252
-251
-255
-265
-281
-303
-328
-355
-379
-399
-412
-417
-414
-402
-383
-360
-335
-310
-289
-273
-265
-265
-274
-290
-312
-337
-362
-382
-395
-398
-391
-375
-352
-325
-299
-279
-267
-263
-266
-274
-282
-286
-283
-271
-249
-223
-194
-168
-149
-140
-144
-160
-186
-217
-249
-279
-300
-313
-316
-308
-293
-273
-250
-229
-211
-199
-194
-198
-209
-226
-248
-270
-290
-304
-311
-310
-302
-287
-269
-251
-235
-224
-219
-219
-223
-230
-238
-248
-259
-270
-283
-299
-315
-333
-348
-358
-361
-354
-335
-307
-272
-234
-198
-171
-154
-151
-162
-185
-216
-250
-285
-316
-339
-354
-362
-362
-357
-346
-330
-311
-288
-261
-232
-200
-168
-138
-112
-93
-82
-81
-90
-107
-130
-156
-183
-207
-227
-243
-253
-259
-264
-268
-274
-280
-287
-294
-299
-298
-291
-277
-257
-232
-205
-178
-156
-140
-131
-129
-135
-145
-159
-174
-188
-201
-213
-223
-231
-238
-243
-245
-243
-237
-226
-209
-189
-167
-146
-130
-121
-121
-130
-147
-171
-199
-229
-257
-281
-299
-308
-310
-301
-284
-259
-229
-196
-162
-132
-110
-96
-93
-101
-120
-144
-170
-192
-206
-208
-197
-175
-145
-114
-87
-69
-64
-72
-92
-117
-143
-163
-172
-168
-151
-124
-89
-53
-21
5
22
31
31
26
16
4
-9
-23
-38
-52
-63
-69
-68
-58
-39
-12
19
50
76
92
94
81
55
20
-17
-49
-70
-78
-73
-55
-27
4
36
64
88
107
122
133
142
149
153
154
150
141
127
112
100
92
94
105
127
156
187
215
233
238
229
208
180
150
126
114
117
137
169
208
247
277
292
284
253
200
128
43
-45
-129
-200
-253
-283
-288
-269
-231
-180
-124
-71
-30
-5
-2
-19
-55
-104
-158
-210
-253
-280
-290
-282
-260
-227
-189
-150
-114
-84
-59
-40
-26
-18
-16
-21
-32
-51
-76
-105
-136
-163
-181
-186
-177
-153
-119
-79
-41
-12
4
2
-18
-50
-91
-132
-167
-189
-197
-190
-173
-150
-127
-110
-102
-105
-118
-137
-159
-178
-190
-193
-187
-171
-150
-125
-101
-81
-65
-56
-53
-56
-63
-75
-89
-105
-123
-141
-161
-179
-194
-203
-206
-200
-185
-162
-132
-101
-73
-53
-44
-48
-67
-96
-132
-168
-198
-217
-221
-209
-186
-156
-125
-102
-92
-99
-122
-160
-205
-252
-292
-321
-336
-336
-323
-301
-272
-240
-202
-156
-98
-19
86
221
387
581
796
1025
1257
1484
1701
1903
2091
2268
2435
2595
2748
2890
3011
3102
3153
3151
3089
2964
2779
2542
2266
1965
1657
1357
1078
829
615
438
295
185
101
37
-9
-44
-70
-91
-108
-121
-132
-140
-145
-145
-138
-122
-98
-66
-28
12
52
86
113
129
136
132
122
107
92
77
66
59
56
55
56
58
61
66
72
79
87
95
102
106
106
101
92
81
71
64
63
67
76
89
102
112
116
112
101
86
70
55
47
45
50
59
68
72
65
47
19
-17
-56
-91
-114
-121
-111
-85
-45
1
47
87
116
131
134
127
115
102
91
84
82
83
86
87
84
76
64
47
29
13
0
-5
-2
9
29
56
87
122
156
188
214
232
240
237
224
201
168
131
91
52
17
-13
-36
-53
-62
-64
-61
-53
-41
-25
-6
14
36
57
76
93
105
111
112
106
95
79
60
41
23
9
3
4
16
37
65
97
128
153
169
173
163
141
111
79
51
32
27
37
62
97
139
183
224
261
292
321
349
378
409
440
469
493
507
510
499
478
449
417
389
370
365
376
400
436
478
520
555
580
590
587
571
548
522
500
488
491
512
553
609
677
747
812
861
890
895
877
841
796
754
726
719
740
790
863
951
1041
1123
1188
1228
1242
1231
1202
1165
1127
1096
1078
1074
1083
1103
1129
1157
1183
1205
1224
1239
1253
1267
1281
1295
1307
1315
1318
1312
1296
1272
1241
1205
1167
1128
1090
1055
1023
994
968
945
926
910
897
889
884
880
876
868
852
825
786
735
673
604
531
461
398
344
303
274
256
245
239
235
229
219
207
192
175
157
137
117
93
66
31
-13
-66
-127
-192
-258
-320
-373
-415
-443
-458
-460
-453
-443
-434
-428
-427
-433
-444
-459
-477
-494
-510
-525
-539
-552
-565
-578
-591
-605
-618
-633
-650
-670
-694
-722
-755
-789
-821
-846
-860
-857
-836
-796
-742
-679
-616
-562
-525
-512
-523
-557
-610
-673
-737
-794
-837
-862
-866
-854
-828
-795
-761
-730
-705
-689
-681
-678
-678
-681
-683
-687
-692
-698
-707
-719
-731
-743
-751
-755
-749
-736
-716
-693
-670
-653
-645
-649
-663
-685
-710
-732
-746
-749
-738
-717
-689
-660
-638
-628
-633
-653
-684
-720
-753
-774
-779
-763
-730
-684
-634
-589
-560
-553
-572
-616
-679
-753
-825
-886
-924
-936
-920
-878
-818
-748
-679
-621
-578
-555
-550
-561
-582
-608
-631
-649
-659
-660
-654
-644
-633
-625
-621
-624
-632
-645
-663
-682
-700
-714
-724
-726
-721
-708
-688
-664
-638
-614
-595
-582
-577
-580
-588
-597
-606
-611
-610
-604
-595
-584
-575
-571
-572
-578
-587
-596
-602
-603
-596
-583
-565
-546
-528
-516
-511
-513
-522
-535
-548
-560
-568
-572
-572
-571
-570
-571
-576
-585
-595
-606
-616
-621
-620
-613
-600
-583
-562
-541
-521
-506
-496
-491
-490
-492
-494
-496
-494
-488
-478
-465
-449
-434
-419
-409
-403
-403
-408
-417
-431
-447
-465
-483
-502
-523
-544
-565
-585
-602
-615
-623
-625
-619
-605
-586
-563
-537
-511
-487
-466
-449
-435
-425
-418
-413
-410
-409
-409
-409
-408
-406
-402
-397
-390
-384
-380
-381
-389
-405
-427
-453
-482
-508
-528
-539
-540
-531
-517
-500
-486
-479
-483
-498
-523
-552
-581
-605
-622
-628
-625
-614
-597
-577
-556
-533
-508
-481
-448
-413
-378
-347
-328
-327
-346
-389
-452
-529
-610
-684
-739
-769
-770
-744
-697
-640
-582
-533
-499
-481
-478
-484
-492
-496
-493
-480
-460
-436
-414
-398
-392
-395
-404
-417
-429
-435
-433
-423
-406
-387
-368
-353
-343
-339
-341
-347
-355
-363
-370
-378
-385
-393
-402
-409
-415
-415
-408
-392
-367
-336
-300
-266
-239
-222
-217
-226
-245
-271
-297
-320
-334
-338
-333
-321
-306
-293
-286
-288
-301
-321
-345
-370
-389
-399
-398
-384
-362
-334
-306
-282
-267
-261
-264
-275
-291
-308
-323
-331
-332
-326
-313
-295
-275
-254
-234
-216
-200
-188
-180
-175
-175
-181
-192
-207
-228
-252
-276
-298
-315
-323
-323
-312
-293
-268
-241
-216
-197
-187
-186
-193
-208
-225
-241
-252
-257
-253
-242
-226
-207
-188
-172
-162
-157
-157
-160
-165
-168
-168
-164
-156
-147
-137
-129
-125
-128
-137
-150
-167
-185
-201
-214
-223
-227
-226
-224
-222
-222
-223
-227
-231
-235
-236
-235
-231
-225
-220
-217
-218
-224
-234
-245
-253
-255
-246
-226
-195
-156
-114
-75
-46
-31
-32
-48
-77
-113
-150
-182
-205
-216
-215
-205
-188
-170
-153
-141
-135
-134
-138
-144
-150
-154
-154
-150
-141
-128
-112
-94
-75
-57
-41
-29
-21
-19
-23
-33
-47
-63
-78
-91
-99
-102
-99
-91
-81
-71
-63
-58
-59
-64
-73
-83
-93
-100
-102
-100
-92
-79
-62
-41
-17
9
35
63
90
115
138
156
169
174
170
158
136
105
68
27
-15
-54
-86
-108
-116
-109
-87
-51
-4
48
101
149
186
210
220
217
205
187
169
156
151
153
162
173
184
190
190
184
175
165
161
164
179
205
240
279
316
344
359
358
343
316
284
254
230
219
222
239
266
298
328
351
363
360
344
317
283
247
216
193
182
185
202
233
274
320
368
414
454
485
505
512
506
490
466
437
407
382
365
360
366
383
407
434
458
476
484
480
466
443
417
392
370
353
341
333
324
311
291
262
224
180
135
93
60
39
30
33
45
61
75
84
86
81
72
60
51
47
52
65
85
108
131
149
160
162
154
140
122
103
87
77
74
78
88
101
114
124
130
130
124
111
95
76
58
43
32
27
29
38
50
65
79
89
92
88
76
57
32
5
-21
-43
-58
-63
-59
-47
-29
-8
12
30
42
48
48
45
38
30
23
17
11
4
-4
-13
-25
-37
-49
-58
-62
-59
-48
-31
-9
16
41
63
79
89
93
91
87
82
77
75
76
79
83
86
86
83
75
64
50
33
15
-3
-21
-38
-55
-73
-91
-110
-129
-147
-163
-176
-184
-184
-177
-160
-133
-95
-45
19
101
201
321
463
627
811
1013
1227
1450
1675
1898
2115
2322
2516
2696
2857
2996
3109
3187
3224
3213
3146
3021
2839
2604
2328
2023
1705
1394
1105
852
641
478
360
280
229
196
171
146
116
80
40
-1
-38
-67
-85
-90
-82
-64
-41
-15
10
33
53
72
89
106
125
145
166
187
206
224
239
252
265
277
287
297
303
304
297
282
258
227
193
160
131
111
101
102
112
128
145
161
174
182
187
191
196
204
215
227
238
246
248
243
231
214
196
179
169
165
169
179
192
205
215
220
219
213
205
195
187
179
173
167
162
155
145
133
121
111
104
104
113
131
158
192
230
267
301
325
337
335
317
285
243
196
150
113
91
86
102
135
181
232
282
321
345
352
342
320
290
260
235
220
215
218
228
241
253
262
268
270
271
273
277
283
290
297
302
302
298
290
280
273
272
280
299
329
369
413
456
491
515
524
516
493
458
418
380
349
333
336
357
396
448
505
560
607
638
652
648
630
603
574
550
537
539
555
585
625
669
713
752
783
804
814
815
807
795
779
763
751
746
750
765
790
824
862
900
932
951
955
942
915
878
839
808
793
800
833
889
964
1049
1135
1211
1269
1305
1318
1310
1287
1256
1224
1200
1186
1186
1201
1228
1264
1305
1346
1386
1420
1449
1471
1488
1498
1504
1505
1501
1494
1484
1471
1457
1445
1437
1435
1444
1463
1495
1536
1585
1636
1685
1725
1752
1763
1756
1733
1698
1657
1614
1577
1548
1530
1522
1522
1525
1526
1520
1504
1476
1435
1385
1330
1274
1224
1183
1155
1139
1134
1135
1137
1135
1122
1096
1055
1001
937
869
802
743
693
656
628
606
586
563
534
499
457
414
371
336
311
297
292
294
297
296
287
267
237
199
160
124
96
81
77
83
96
109
119
122
115
100
80
60
42
32
31
37
49
63
74
78
73
55
27
-7
-45
-81
-110
-129
-135
-129
-112
-87
-60
-35
-17
-10
-17
-38
-72
-115
-162
-209
-249
-279
-295
-298
-290
-273
-252
-232
-217
-209
-206
-208
-212
-215
-214
-207
-195
-180
-166
-157
-156
-167
-189
-222
-261
-301
-337
-365
-381
-383
-375
-360
-341
-324
-312
-309
-313
-324
-337
-349
-356
-356
-347
-331
-311
-291
-276
-267
-267
-277
-292
-312
-332
-349
-359
-361
-357
-347
-334
-321
-309
-302
-299
-301
-308
-320
-337
-357
-382
-409
-437
-467
-497
-526
-552
-573
-591
-604
-612
-615
-612
-603
-589
-570
-547
-521
-496
-475
-461
-457
-464
-483
-513
-549
-587
-623
-651
-666
-667
-655
-631
-598
-562
-527
-498
-479
-470
-473
-487
-507
-531
-555
-576
-589
-594
-590
-578
-560
-541
-523
-509
-501
-500
-502
-507
-511
-510
-504
-491
-476
-460
-449
-446
-453
-470
-492
-517
-536
-546
-543
-524
-492
-451
-408
-371
-345
-335
-342
-364
-398
-438
-479
-513
-536
-547
-544
-526
-497
-459
-415
-368
-322
-281
-247
-224
-212
-212
-222
-239
-259
-278
-291
-296
-291
-277
-256
-232
-211
-198
-196
-206
-227
-256
-288
-318
-342
-355
-357
-349
-332
-311
-290
-274
-265
-266
-276
-293
-313
-332
-348
-356
-353
-340
-319
-293
-265
-240
-222
-213
-217
-231
-252
-276
-299
-314
-319
-311
-291
-263
-231
-202
-183
-176
-186
-211
-248
-293
-339
-379
-405
-416
-410
-389
-356
-316
-275
-236
-204
-180
-166
-159
-159
-164
-172
-183
-195
-209
-225
-242
-261
-280
-296
-307
-312
-307
-291
-264
-226
-179
-127
-73
-23
19
49
64
65
52
30
2
-28
-53
-70
-78
-74
-63
-46
-28
-14
-6
-6
-16
-33
-54
-76
-92
-101
-98
-85
-64
-36
-8
18
38
48
51
47
39
34
32
38
52
73
95
113
121
117
96
59
11
-43
-96
-141
-173
-187
-183
-162
-130
-91
-50
-11
23
52
76
96
116
135
153
169
180
185
182
171
153
130
106
85
68
55
47
40
32
19
1
-20
-43
-62
-73
-70
-51
-17
28
79
125
159
175
168
140
96
42
-11
-52
-76
-78
-60
-25
17
58
89
104
100
78
42
-1
-42
-77
-98
-104
-94
-71
-38
-1
35
68
92
107
110
101
81
51
13
-31
-76
-119
-155
-183
-199
-204
-197
-181
-159
-135
-113
-97
-87
-83
-87
-95
-107
-120
-132
-141
-147
-151
-151
-149
-145
-139
-132
-125
-117
-109
-101
-92
-83
-74
-65
-56
-48
-44
-42
-45
-54
-67
-84
-105
-125
-144
-158
-166
-166
-158
-144
-125
-106
-90
-79
-77
-84
-100
-122
-148
-174
-196
-211
-218
-216
-207
-194
-181
-172
-170
-175
-187
-204
-221
-233
-238
-231
-215
-190
-162
-136
-118
-113
-120
-140
-168
-199
-225
-242
-243
-227
-198
-158
-115
-74
-42
-21
-15
-21
-37
-59
-84
-107
-127
-143
-156
-165
-173
-180
-186
-192
-196
-197
-193
-185
-173
-157
-138
-118
-99
-83
-70
-63
-60
-62
-66
-71
-75
-75
-69
-56
-36
-11
18
47
71
88
92
84
65
36
4
-26
-48
-56
-49
-24
14
61
111
154
186
203
205
192
171
146
124
111
110
120
138
161
184
201
208
206
197
183
170
162
161
170
186
205
222
233
233
218
189
147
95
37
-20
-73
-117
-152
-175
-188
-193
-190
