-370
-336
-253
-352
-492
-320
-309
-374
-285
-318
-364
-285
-239
-341
-443
-357
-280
-336
-215
-281
-451
-290
-241
-349
-339
-249
-314
-382
-273
-275
-303
-276
-282
-280
-234
-136
-134
-185
-169
-164
-208
-206
-129
-127
-52
59
-18
-80
-169
-322
-286
-233
-295
-288
-294
-237
-260
-404
-293
-285
-442
-267
-230
-408
-314
-230
-298
-291
-249
-239
-267
-362
-438
-339
148
1034
1922
2652
2564
1170
74
-111
-221
-368
-253
-20
-99
-105
48
29
-16
8
27
-74
-110
14
-57
-84
79
70
47
47
16
89
129
161
139
144
290
270
200
299
353
355
426
495
467
538
741
804
801
858
957
931
1024
1252
1218
1189
1332
1308
1185
1252
1142
866
862
806
514
363
269
85
-44
42
12
-235
-205
-157
-251
-292
-271
-233
-306
-321
-387
-394
-257
-323
-356
-294
-181
-275
-470
-268
-176
-310
-324
-212
-124
-219
-241
-225
-271
-236
-245
-267
-212
-135
-213
-265
-158
-217
-369
-304
-200
-206
-200
-179
-286
-369
-239
-213
-333
-234
-158
-306
-348
-276
-272
-389
-268
-170
-382
-320
-227
-376
-346
-233
-319
-370
-254
-251
-287
-252
-283
-347
-351
-215
-196
-313
-289
-264
-286
-272
-283
-350
-310
-230
-285
-356
-292
-248
-311
-217
-202
-283
-243
-246
-220
-144
-88
-85
-144
-120
-87
-124
-130
-23
91
52
23
-34
-171
-234
-243
-246
-247
-157
-147
-274
-240
-219
-317
-272
-240
-378
-340
-177
-239
-338
-274
-232
-275
-303
-317
-430
-488
-132
536
1469
2378
2776
2144
877
150
-212
-340
-203
-165
-40
107
-63
-113
85
50
-76
-45
49
-14
-74
20
-26
-56
56
69
-3
95
137
11
147
291
135
199
372
304
313
363
433
476
474
646
693
629
846
1002
854
918
1211
1259
1163
1306
1388
1212
1330
1428
1206
1085
1003
814
551
446
409
181
81
49
-134
-140
-106
-334
-330
-147
-241
-361
-276
-240
-366
-360
-274
-302
-300
-270
-275
-303
-275
-267
-330
-280
-247
-260
-269
-234
-235
-290
-218
-281
-317
-219
-144
-214
-431
-228
-152
-372
-253
-187
-232
-302
-326
-276
-312
-249
-216
-390
-420
-269
-294
-320
-228
-272
-337
-307
-355
-382
-301
-222
-283
-311
-237
-358
-425
-293
-296
-329
-256
-283
-383
-350
-259
-256
-327
-257
-237
-388
-258
-235
-397
-258
-184
-322
-344
-250
-289
-318
-215
-232
-267
-248
-236
-242
-236
-177
-238
-273
-128
-86
-185
-208
-71
-55
-164
-68
-35
-68
115
220
64
-30
-33
-275
-288
-110
-340
-358
-145
-173
-274
-302
-222
-313
-389
-176
-205
-356
-221
-253
-394
-290
-198
-286
-370
-392
-373
-274
266
1266
2160
2972
2759
1192
209
47
-256
-397
34
199
-8
151
163
-162
-2
229
-8
13
74
77
81
-23
-8
-76
-64
1
-48
-36
102
104
-63
-13
84
75
136
251
234
166
262
474
494
357
510
570
644
844
815
874
1089
1074
939
1036
1174
1164
1080
1018
877
778
628
429
308
145
51
-232
-368
-248
-421
-555
-420
-450
-640
-564
-504
-512
-454
-427
-496
-661
-595
-438
-517
-508
-435
-605
-573
-427
-571
-605
-491
-440
-506
-518
-524
-623
-584
-488
-494
-584
-550
-466
-584
-638
-412
-496
-641
-430
-540
-641
-455
-536
-631
-461
-501
-669
-543
-443
-511
-580
-531
-495
-596
-512
-447
-582
-572
-460
-492
-597
-454
-442
-583
-482
-492
-571
-480
-364
-455
-602
-437
-329
-467
-430
-359
-454
-546
-416
-353
-517
-409
-348
-494
-397
-305
-380
-386
-334
-259
-230
-204
-156
-322
-282
-86
-207
-214
-46
-17
17
114
63
-135
-301
-335
-225
-206
-252
-245
-354
-403
-277
-299
-316
-248
-346
-356
-218
-256
-383
-243
-90
-167
-217
-241
-358
-452
-72
669
1525
2590
3100
2272
856
216
45
-255
-79
260
158
116
218
143
89
211
197
146
262
311
224
211
288
205
179
323
352
296
351
346
298
415
520
515
526
550
520
637
781
678
735
881
940
1082
1171
1227
1200
1282
1528
1505
1485
1690
1700
1636
1675
1590
1444
1391
1315
1116
864
757
712
438
349
363
178
140
71
29
-41
-31
113
-83
-126
15
-95
-146
-19
-67
-165
-95
-14
7
-40
9
-48
-104
46
-12
-108
1
4
-100
-63
14
-81
-105
23
-89
-203
-25
-1
-83
23
22
-101
-155
-104
-120
-159
-77
-146
-214
-160
-118
-108
-153
-108
-99
-220
-176
-14
-115
-205
-65
-111
-185
-98
-150
-200
-113
-82
-229
-182
-9
-167
-144
1
-135
-185
-65
-17
-85
-192
-71
38
-146
-94
19
-57
36
61
-34
68
106
33
58
185
301
230
193
104
-43
-31
-60
-168
-170
-78
-143
-245
-149
-76
-120
-198
-127
-70
-198
-106
-1
-167
-148
-25
-122
-241
-313
-437
-93
968
1978
2762
3029
1995
688
225
14
-178
-1
260
264
231
210
180
81
105
246
97
130
354
314
172
232
365
254
241
362
317
303
419
374
340
469
449
408
549
691
609
625
818
867
780
890
1019
988
1143
1226
1192
1293
1441
1460
1337
1462
1631
1463
1417
1416
1190
1057
1024
798
522
507
367
134
146
123
3
-46
-32
-65
-196
-218
-67
-92
-174
-71
-116
-205
-50
-51
-209
-110
-59
-198
-116
-4
-128
-162
-116
-166
-138
-35
-70
-140
-67
-64
-191
-186
-141
-166
-145
-115
-147
-205
-195
-130
-194
-239
-134
-196
-319
-208
-56
-159
-279
-183
-188
-282
-159
-132
-321
-258
-110
-251
-291
-166
-222
-260
-191
-169
-201
-217
-168
-229
-243
-182
-233
-207
-241
-299
-183
-136
-125
-189
-258
-171
-186
-242
-127
-57
-147
-122
-41
-131
-116
16
-12
-39
150
309
150
-82
-124
-131
-227
-183
-238
-323
-181
-185
-263
-219
-209
-264
-284
-242
-204
-243
-136
-116
-311
-221
-110
-317
-500
-397
-196
229
1212
2148
2583
2210
961
58
-150
-219
-289
-177
39
33
-60
-47
9
-42
0
76
21
8
66
80
-8
66
202
96
91
183
116
135
211
200
197
287
362
242
291
510
472
427
584
589
494
753
975
849
873
1033
996
993
1169
1239
1172
1256
1347
1255
1142
998
836
744
662
479
265
216
145
-74
-131
-78
-193
-257
-183
-269
-340
-264
-282
-370
-291
-204
-325
-350
-229
-300
-370
-235
-184
-307
-324
-235
-290
-325
-194
-185
-321
-271
-140
-221
-279
-231
-317
-317
-216
-306
-390
-327
-304
-307
-238
-210
-342
-369
-244
-277
-342
-254
-235
-320
-250
-220
-350
-362
-290
-304
-456
-405
-242
-303
-360
-303
-297
-350
-280
-281
-410
-347
-277
-370
-413
-340
-303
-281
-275
-398
-331
-196
-285
-381
-332
-287
-362
-315
-194
-243
-271
-147
-94
-141
-92
-83
-194
-159
-53
-12
64
73
-22
-216
-301
-252
-316
-334
-254
-286
-375
-364
-290
-288
-333
-306
-293
-326
-318
-313
-352
-283
-188
-351
-416
-391
-561
-531
-6
841
1653
2480
2781
1593
313
10
-268
-408
-177
-71
-128
-95
-27
-117
-192
-94
-76
-124
-17
-42
-124
-5
-24
-64
-41
-1
11
-65
115
61
-89
162
206
138
163
210
271
245
349
440
419
506
596
602
679
849
874
815
1003
1045
968
1289
1308
1042
1124
1141
997
859
738
600
340
253
203
-88
-137
-61
-284
-371
-310
-412
-450
-369
-356
-471
-547
-442
-428
-463
-378
-445
-489
-406
-416
-478
-505
-381
-365
-490
-405
-373
-477
-469
-401
-404
-431
-396
-415
-479
-413
-374
-502
-430
-290
-482
-557
-364
-451
-591
-461
-453
-536
-481
-448
-535
-514
-440
-544
-535
-433
-523
-534
-469
-461
-529
-555
-471
-503
-589
-484
-447
-588
-496
-433
-538
-531
-456
-499
-605
-530
-483
-574
-523
-467
-522
-465
-446
-516
-477
-458
-445
-549
-571
-369
-484
-530
-335
-398
-395
-249
-302
-395
-325
-331
-447
-296
-99
-161
-177
-112
-287
-509
-449
-371
-504
-531
-434
-451
-514
-491
-442
-538
-506
-418
-559
-521
-385
-549
-565
-384
-448
-488
-458
-617
-795
-552
134
961
1962
2775
2295
769
-137
-333
-533
-468
-190
-199
-245
-128
-205
-344
-265
-243
-270
-201
-213
-286
-211
-113
-184
-197
-160
-73
-70
-140
-43
-131
-213
-16
55
19
87
119
116
228
337
313
348
474
505
536
650
759
838
885
967
1007
1024
1136
1119
1001
1073
1078
936
792
645
463
244
179
59
-182
-218
-141
-280
-400
-357
-475
-520
-426
-513
-502
-392
-463
-537
-534
-474
-446
-500
-472
-451
-534
-495
-373
-450
-522
-380
-438
-577
-388
-356
-537
-458
-376
-491
-481
-390
-553
-533
-345
-429
-510
-454
-418
-526
-566
-447
-500
-627
-417
-400
-620
-442
-496
-630
-433
-446
-441
-454
-560
-521
-551
-523
-466
-547
-510
-445
-506
-465
-364
-474
-561
-450
-405
-509
-482
-380
-468
-461
-423
-423
-430
-435
-420
-527
-453
-334
-401
-471
-376
-367
-508
-388
-282
-418
-364
-218
-339
-377
-291
-303
-253
-187
-166
-160
-124
-90
-275
-425
-243
-371
-545
-376
-368
-459
-472
-398
-435
-486
-431
-486
-473
-344
-394
-514
-461
-387
-442
-502
-414
-437
-654
-520
57
818
1689
2431
2131
823
9
-289
-543
-385
-260
-431
-242
-31
-206
-259
-158
-157
-211
-165
-121
-212
-173
-44
-169
-117
53
-71
-93
-8
40
39
-10
48
85
74
160
156
81
298
426
309
420
562
538
605
756
784
788
876
994
1011
1007
1104
1099
1114
1167
1030
882
857
763
506
363
292
108
34
21
-132
-281
-241
-223
-365
-379
-272
-374
-451
-302
-400
-485
-344
-342
-352
-430
-437
-283
-342
-320
-255
-405
-389
-252
-329
-370
-286
-325
-360
-287
-266
-363
-341
-250
-329
-391
-343
-347
-309
-206
-292
-445
-442
-336
-288
-329
-333
-414
-466
-363
-374
-461
-369
-291
-429
-452
-343
-405
-447
-302
-343
-499
-355
-272
-454
-401
-270
-428
-428
-269
-307
-415
-392
-339
-363
-349
-309
-309
-342
-315
-305
-299
-160
-151
-254
-185
-104
-294
-301
-36
-77
-139
46
59
-242
-288
-214
-328
-359
-391
-380
-452
-485
-294
-341
-414
-275
-373
-485
-393
-427
-420
-262
-271
-442
-386
-224
-478
-660
-500
-315
346
1457
2351
2654
1955
647
-117
-355
-391
-282
-127
-84
-121
-61
-165
-136
-32
-115
-80
-74
-73
-17
5
-45
-90
30
13
-38
58
40
55
164
163
87
207
290
122
242
470
382
341
535
615
550
785
908
807
883
1027
1096
1101
1223
1284
1152
1227
1357
1204
1112
1049
858
663
604
537
186
51
99
-90
-150
-116
-194
-290
-350
-304
-401
-446
-197
-260
-412
-292
-315
-358
-258
-265
-440
-410
-186
-328
-425
-209
-260
-438
-299
-189
-345
-340
-222
-325
-328
-190
-302
-358
-272
-317
-291
-275
-316
-344
-323
-181
-247
-338
-267
-314
-408
-304
-204
-353
-407
-372
-377
-267
-288
-406
-382
-287
-259
-340
-348
-293
-326
-345
-288
-257
-314
-389
-349
-302
-335
-288
-246
-321
-292
-239
-328
-323
-261
-327
-355
-272
-240
-353
-347
-217
-279
-274
-271
-358
-227
-171
-304
-305
-178
-127
-120
-59
-99
-189
-136
-148
-148
-125
-117
48
83
89
44
-227
-266
-162
-252
-290
-228
-265
-342
-271
-199
-353
-401
-274
-275
-363
-304
-263
-420
-347
-225
-327
-290
-279
-450
-569
-299
253
1080
2233
2867
2417
1103
150
-122
-342
-267
-40
-62
-100
-9
-27
-77
5
-7
-133
-67
33
-75
-26
89
11
-57
16
76
14
69
109
57
126
240
194
165
309
329
347
430
460
487
584
732
709
734
892
902
898
1097
1213
1168
1240
1319
1343
1264
1232
1283
1068
934
903
661
528
408
143
97
120
-75
-224
-166
-169
-318
-244
-200
-430
-354
-170
-294
-382
-301
-309
-364
-296
-259
-314
-270
-215
-321
-346
-260
-267
-332
-266
-203
-316
-215
-86
-385
-439
-181
-215
-291
-263
-305
-315
-324
-319
-252
-284
-285
-283
-334
-348
-302
-308
-349
-241
-238
-333
-325
-330
-384
-311
-258
-382
-314
-155
-204
-396
-371
-267
-326
-259
-266
-337
-327
-293
-312
-340
-251
-262
-344
-272
-198
-310
-305
-183
-242
-356
-302
-260
-370
-303
-185
-289
-305
-189
-204
-308
-250
-228
-306
-198
-80
-142
-171
-74
-55
-126
-133
-64
-31
10
111
84
4
13
-43
-217
-209
-116
-236
-216
-122
-242
-237
-156
-248
-265
-140
-137
-235
-202
-141
-249
-285
-121
-138
-254
-164
-274
-459
-312
224
1074
1922
2695
2529
1183
298
38
-329
-361
-88
10
7
-39
-33
64
69
87
34
6
102
7
14
148
52
41
164
190
80
130
303
210
169
300
329
254
373
473
341
392
557
537
558
736
752
747
963
1011
951
1093
1192
1155
1249
1394
1290
1249
1374
1275
1008
904
941
734
486
497
325
92
144
62
-82
-65
-87
-166
-190
-205
-277
-254
-249
-267
-249
-290
-293
-250
-249
-251
-242
-306
-195
-153
-291
-200
-142
-194
-187
-201
-246
-260
-137
-111
-251
-174
-83
-186
-236
-132
-218
-372
-216
-119
-203
-216
-161
-236
-339
-251
-217
-283
-197
-200
-271
-229
-247
-313
-279
-194
-251
-366
-281
-207
-310
-230
-253
-406
-211
-91
-236
-314
-225
-152
-308
-299
-97
-215
-336
-188
-222
-283
-167
-184
-291
-239
-124
-209
-275
-142
-216
-322
-184
-178
-278
-269
-229
-218
-232
-207
-170
-216
-170
-51
-43
-70
-49
-90
-173
-64
-25
-82
88
236
101
-7
-72
-246
-230
-131
-196
-222
-183
-236
-251
-223
-177
-244
-338
-262
-250
-304
-268
-186
-246
-281
-166
-196
-289
-309
-463
-411
356
1343
2116
2874
2580
1098
225
-43
-358
-359
-3
110
-28
18
58
-29
-44
5
11
17
50
68
17
-11
50
11
-9
147
199
70
66
153
147
227
260
165
269
415
352
384
554
575
477
598
800
810
859
977
1036
1119
1246
1265
1201
1321
1409
1315
1326
1333
1102
833
876
804
477
358
263
73
4
-3
-121
-221
-170
-214
-331
-270
-227
-355
-397
-247
-266
-380
-269
-264
-411
-292
-178
-292
-287
-193
-232
-313
-278
-247
-293
-268
-243
-308
-256
-165
-254
-325
-250
-197
-297
-314
-235
-304
-316
-207
-256
-324
-262
-265
-346
-323
-178
-337
-413
-230
-270
-328
-259
-237
-276
-358
-335
-277
-384
-296
-210
-317
-267
-244
-310
-271
-286
-349
-311
-269
-282
-311
-276
-252
-330
-239
-253
-395
-296
-197
-228
-262
-223
-199
-278
-274
-184
-298
-316
-202
-263
-289
-175
-192
-333
-251
-159
-215
-196
-148
-195
-141
-17
-62
-167
-164
-64
-65
-55
22
15
41
122
64
-123
-192
-134
-230
-315
-230
-239
-270
-158
-182
-387
-322
-189
-275
-305
-287
-312
-242
-151
-212
-313
-252
-184
-367
-472
-323
29
758
1784
2664
2846
1903
671
37
-259
-253
-142
-16
56
-34
-40
-36
-56
-31
-52
14
47
-84
-21
112
-6
52
160
20
9
154
102
50
278
301
107
182
279
278
399
467
487
551
569
639
721
846
934
920
1050
1178
1184
1211
1188
1310
1442
1319
1359
1376
1258
1178
970
700
668
595
208
76
138
-4
-60
-39
-182
-272
-170
-262
-357
-199
-218
-298
-256
-233
-306
-328
-270
-245
-259
-275
-252
-286
-279
-196
-285
-329
-213
-234
-239
-135
-172
-291
-266
-208
-267
-293
-174
-188
-383
-304
-188
-297
-266
-152
-197
-337
-263
-183
-329
-268
-141
-314
-408
-223
-194
-343
-327
-235
-255
-240
-242
-351
-292
-242
-291
-243
-223
-256
-312
-294
-215
-349
-426
-155
-152
-318
-199
-228
-289
-191
-192
-283
-336
-266
-211
-225
-205
-209
-287
-249
-148
-270
-317
-202
-200
-253
-238
-212
-229
-189
-144
-250
-251
-105
-109
-148
-185
-110
-27
-63
-24
-65
-55
92
52
20
161
51
-233
-215
-152
-251
-225
-190
-199
-224
-225
-245
-313
-158
-140
-282
-252
-220
-235
-284
-189
-126
-268
-259
-185
-344
-468
-248
229
1064
2092
2691
2306
1171
269
-119
-247
-268
-153
-34
31
79
-34
-34
60
-40
-86
64
30
-126
45
123
8
98
155
92
70
157
167
150
188
148
188
305
366
309
333
454
495
452
605
749
581
699
969
910
966
1219
1129
1021
1245
1332
1277
1365
1382
1185
1067
993
826
623
551
414
103
74
128
-75
-184
-118
-185
-273
-237
-248
-361
-337
-272
-377
-393
-261
-295
-431
-316
-261
-364
-289
-268
-332
-288
-233
-248
-322
-247
-203
-337
-273
-203
-314
-275
-192
-265
-281
-185
-238
-337
-260
-242
-272
-228
-233
-375
-383
-254
-330
-359
-196
-244
-426
-323
-194
-320
-343
-208
-237
-422
-417
-299
-374
-318
-205
-389
-422
-235
-265
-412
-320
-240
-331
-290
-234
-318
-362
-289
-276
-369
-326
-179
-283
-362
-242
-304
-356
-276
-289
-318
-278
-240
-245
-263
-263
-284
-345
-280
-262
-392
-297
-184
-291
-340
-240
-171
-235
-215
-111
-127
-128
-85
-139
-198
-131
-7
-34
56
173
6
-38
-59
-244
-268
-151
-204
-274
-191
-291
-414
-261
-309
-354
-181
-197
-342
-361
-231
-227
-313
-262
-147
-224
-308
-325
-553
-404
233
1029
2056
2847
2646
1325
224
-76
-247
-362
-125
77
29
32
7
-71
-22
89
-46
-106
63
32
-127
-9
105
-7
26
90
11
52
149
158
137
146
232
252
234
315
302
304
452
483
485
631
715
697
818
1016
988
1036
1208
1262
1298
1290
1309
1337
1348
1242
1077
984
906
770
526
382
289
65
-5
40
-168
-255
-114
-204
-317
-314
-326
-322
-302
-268
-318
-380
-324
-321
-344
-275
-226
-263
-301
-292
-348
-366
-214
-207
-357
-308
-186
-223
-265
-196
-207
-327
-248
-147
-334
-315
-158
-286
-278
-196
-306
-373
-286
-298
-380
-254
-235
-376
-358
-228
-291
-381
-254
-345
-486
-263
-226
-419
-321
-249
-351
-347
-307
-321
-408
-405
-275
-302
-316
-194
-340
-456
-275
-285
-387
-344
-277
-314
-322
-228
-308
-418
-297
-255
-352
-298
-308
-414
-374
-250
-252
-348
-290
-262
-351
-285
-231
-334
-334
-260
-291
-314
-241
-240
-357
-358
-205
-209
-242
-69
-147
-294
-119
-57
-160
-108
-103
-198
-16
181
81
-24
-73
-216
-348
-259
-199
-326
-290
-243
-311
-306
-270
-278
-355
-323
-215
-301
-349
-205
-210
-327
-263
-242
-319
-275
-373
-490
-47
859
1775
2598
2938
1898
476
76
-201
-468
-199
-26
-31
-23
-21
-45
-63
38
17
-87
-36
49
-5
-52
20
29
1
42
92
41
47
169
175
103
169
279
203
277
435
390
416
531
566
557
660
720
750
946
981
895
1081
1261
1238
1261
1351
1379
1299
1263
1268
999
864
879
533
342
385
248
-1
-90
-7
-133
-242
-139
-248
-295
-169
-283
-392
-344
-299
-314
-328
-275
-339
-369
-284
-307
-334
-271
-291
-344
-261
-199
-237
-316
-272
-269
-350
-185
-179
-309
-268
-216
-252
-342
-239
-213
-305
-245
-263
-360
-311
-222
-318
-392
-290
-237
-349
-325
-239
-347
-325
-245
-378
-366
-254
-334
-416
-294
-263
-389
-314
-208
-288
-380
-305
-293
-395
-345
-254
-333
-292
-272
-373
-294
-249
-329
-383
-312
-234
-325
-318
-276
-319
-286
-308
-334
-329
-248
-215
-367
-344
-231
-284
-295
-234
-260
-304
-169
-121
-234
-123
-40
-111
-136
-114
-93
-106
31
111
15
-50
-124
-266
-337
-241
-261
-327
-208
-232
-388
-342
-255
-326
-372
-224
-266
-359
-213
-276
-362
-213
-200
-292
-238
-202
-373
-531
-38
943
1816
2574
2698
1521
261
-25
-167
-373
-194
41
-58
-43
114
23
-30
12
-21
13
49
46
-20
54
148
91
108
149
74
15
216
273
134
221
342
287
277
346
390
400
481
672
648
618
786
760
822
1080
1041
1064
1287
1289
1233
1363
1501
1369
1309
1367
1198
1025
911
754
551
442
385
129
32
97
-34
-186
-192
-149
-213
-254
-230
-311
-246
-214
-351
-334
-337
-311
-287
-320
-264
-286
-329
-269
-255
-256
-216
-289
-319
-210
-215
-307
-278
-128
-164
-325
-231
-189
-298
-213
-142
-242
-317
-242
-209
-310
-293
-282
-303
-269
-303
-341
-298
-240
-298
-328
-290
-326
-352
-254
-235
-330
-364
-318
-269
-386
-379
-228
-342
-331
-218
-375
-344
-240
-314
-329
-302
-252
-324
-355
-188
-270
-367
-233
-255
-353
-357
-263
-302
-267
-94
-265
-324
-270
-331
-332
-214
-177
-399
-304
-185
-363
-329
-127
-226
-362
-227
-259
-333
-262
-230
-230
-266
-214
-154
-232
-114
-15
-186
-106
-58
-190
-70
51
-33
24
154
14
-78
-75
-204
-282
-276
-238
-217
-311
-286
-197
-299
-320
-237
-276
-312
-217
-228
-373
-239
-134
-243
-221
-208
-352
-472
-349
-103
466
1535
2455
2877
2209
794
52
-168
-212
-148
-47
22
29
-2
10
70
-86
-134
23
48
-55
19
62
-69
0
51
-6
41
192
156
56
178
200
205
255
277
283
306
460
477
419
533
595
567
722
860
871
1033
1117
1050
1088
1264
1374
1314
1307
1414
1406
1223
1073
949
871
735
513
314
225
262
30
-143
-97
-177
-298
-289
-241
-320
-302
-239
-296
-369
-289
-246
-446
-401
-265
-351
-398
-327
-288
-352
-286
-245
-267
-227
-273
-317
-265
-205
-263
-352
-295
-307
-370
-225
-243
-330
-241
-240
-313
-320
-256
-296
-352
-284
-239
-328
-363
-258
-293
-316
-248
-317
-409
-352
-297
-304
-296
-341
-315
-249
-288
-360
-386
-259
-243
-366
-252
-184
-310
-338
-234
-290
-341
-260
-298
-352
-331
-270
-208
-247
-299
-330
-320
-219
-185
-259
-293
-204
-229
-301
-176
-191
-325
-221
-184
-212
-160
-178
-201
-197
-152
-215
-262
-186
-223
-216
-48
-74
-150
-15
49
-45
-148
-32
58
23
181
278
126
-32
-85
-115
-183
-174
-133
-179
-182
-165
-246
-254
-180
-257
-245
-134
-187
-300
-273
-160
-196
-208
-128
-175
-249
-289
-429
-385
215
1211
2019
2659
2388
1000
174
-33
-206
-316
-180
38
-52
-40
74
-94
-161
15
22
-76
-13
38
-9
40
54
64
107
78
76
43
82
187
168
155
267
207
157
380
382
227
416
606
480
563
766
675
762
966
1061
1144
1132
1215
1183
1182
1396
1352
1230
1275
1161
902
729
586
470
380
295
115
-29
-33
-141
-207
-217
-273
-337
-356
-257
-307
-404
-343
-373
-418
-333
-334
-454
-386
-288
-318
-344
-342
-297
-355
-377
-253
-336
-411
-236
-269
-389
-293
-222
-305
-374
-297
-290
-327
-205
-249
-332
-266
-304
-381
-289
-303
-409
-346
-312
-339
-432
-360
-227
-352
-406
-341
-356
-374
-259
-258
-445
-423
-314
-396
-351
-254
-410
-413
-235
-325
-450
-326
-313
-370
-288
-248
-388
-336
-190
-379
-394
-203
-295
-452
-255
-212
-381
-302
-239
-320
-365
-257
-246
-327
-249
-163
-247
-255
-157
-181
-220
-159
-141
-143
-46
-111
-139
-62
4
47
8
150
105
-176
-226
-177
-190
-220
-219
-185
-226
-262
-292
-375
-240
-141
-310
-322
-171
-268
-369
-196
-203
-319
-199
-145
-412
-519
-189
358
1234
2219
2826
2387
1083
232
-120
-326
-264
6
17
-10
112
-92
-63
98
-62
-103
9
31
-15
21
78
-26
-24
78
34
-7
105
109
10
212
278
156
256
296
259
293
368
462
512
623
701
692
787
935
937
961
1215
1271
1254
1384
1368
1341
1406
1315
1187
1137
1034
829
571
507
440
171
71
114
-25
-163
-166
-254
-340
-304
-303
-308
-300
-349
-437
-390
-342
-361
-369
-335
-292
-450
-395
-207
-363
-349
-213
-310
-354
-306
-250
-316
-345
-252
-287
-279
-175
-248
-260
-162
-292
-340
-232
-244
-289
-285
-275
-319
-317
-284
-288
-301
-323
-326
-364
-324
-256
-321
-388
-298
-350
-521
-320
-189
-329
-357
-276
-344
-408
-271
-321
-383
-319
-282
-320
-417
-276
-293
-437
-347
-327
-344
-216
-210
-359
-337
-293
-258
-283
-337
-269
-283
-267
-226
-288
-317
-277
-239
-292
-256
-194
-330
-305
-140
-251
-284
-175
-209
-239
-171
-112
-175
-176
-100
-155
-139
50
25
-78
99
188
29
-73
-175
-202
-166
-230
-296
-272
-172
-274
-322
-293
-287
-240
-262
-186
-228
-305
-253
-289
-306
-242
-178
-221
-312
-347
-438
-232
604
1659
2478
2930
2280
734
-16
-95
-281
-245
25
97
-45
-12
25
-152
-52
83
-67
-66
35
29
-46
-9
88
12
21
157
89
1
106
149
92
215
301
155
209
409
342
305
529
591
532
715
862
751
826
1063
1035
1069
1310
1346
1252
1354
1515
1391
1220
1298
1154
861
879
753
389
293
258
62
3
-26
-115
-189
-231
-203
-299
-297
-274
-436
-345
-201
-319
-387
-273
-277
-369
-319
-340
-402
-290
-251
-358
-412
-295
-271
-366
-269
-212
-291
-373
-336
-286
-293
-209
-282
-442
-289
-192
-378
-391
-208
-236
-427
-377
-260
-358
-338
-262
-340
-322
-283
-366
-391
-339
-379
-433
-308
-286
-442
-391
-257
-352
-431
-272
-284
-400
-313
-297
-355
-383
-320
-263
-386
-359
-304
-398
-318
-280
-398
-352
-309
-342
-268
-228
-243
-335
-370
-246
-224
-266
-231
-236
-332
-261
-207
-324
-286
-237
-345
-297
-159
-213
-335
-219
-107
-260
-204
-14
-112
-183
-31
-71
-179
-44
81
37
64
115
-93
-200
-97
-263
-364
-125
-217
-355
-192
-189
-247
-260
-194
-255
-374
-238
-266
-331
-187
-169
-293
-233
-136
-348
-470
-362
-318
-38
916
1901
2526
2504
1425
313
-118
-116
-246
-369
-112
46
-17
-29
27
-40
-78
13
-61
-144
-3
24
-83
-4
96
23
-23
75
133
68
98
175
135
179
283
244
225
321
343
318
498
653
569
599
743
836
918
1025
1108
1094
1159
1280
1271
1284
1302
1289
1229
1130
993
725
668
598
312
281
263
-13
-169
-116
-152
-323
-295
-179
-290
-322
-271
-361
-352
-303
-370
-369
-307
-290
-374
-353
-230
-350
-425
-229
-213
-373
-275
-211
-334
-282
-203
-327
-343
-220
-200
-289
-300
-200
-273
-297
-256
-346
-309
-207
-336
-388
-220
-234
-284
-334
-382
-348
-372
-277
-256
-389
-326
-241
-354
-354
-267
-362
-442
-329
-320
-371
-287
-303
-341
-354
-331
-363
-428
-294
-337
-385
-288
-380
-370
-313
-306
-325
-411
-304
-265
-416
-312
-207
-320
-247
-231
-327
-297
-243
-266
-321
-221
-212
-282
-280
-252
-259
-357
-255
-231
-351
-174
-99
-252
-217
-93
-133
-142
-67
-106
-128
-26
78
85
62
114
-21
-293
-235
-176
-299
-226
-158
-275
-305
-193
-224
-316
-248
-271
-372
-227
-180
-365
-316
-192
-262
-228
-150
-308
-471
-412
-138
496
1486
2474
2959
2204
881
110
-252
-301
-163
-80
-32
45
16
-78
-50
16
2
26
21
-42
-8
21
53
-9
23
145
37
44
58
78
195
163
125
150
243
290
248
334
368
361
494
622
653
659
767
894
943
1047
1187
1160
1193
1398
1300
1226
1465
1316
1077
1118
970
776
669
439
199
153
92
7
-68
-183
-217
-324
-359
-264
-367
-461
-328
-337
-431
-345
-311
-429
-376
-227
-351
-391
-279
-395
-397
-242
-284
-366
-341
-331
-381
-382
-316
-295
-320
-294
-276
-284
-247
-270
-379
-301
-235
-358
-336
-305
-327
-317
-304
-346
-403
-394
-372
-329
-367
-363
-352
-383
-353
-273
-312
-429
-272
-252
-462
-344
-265
-385
-323
-385
-451
-313
-327
-368
-373
-309
-266
-398
-383
-275
-352
-361
-281
-343
-357
-300
-304
-344
-327
-328
-424
-400
-253
-313
-416
-302
-259
-324
-269
-250
-345
-337
-359
-332
-272
-236
-245
-378
-307
-239
-362
-394
-204
-126
-243
-179
-114
-158
-168
-165
-201
-167
15
71
-18
17
-8
-243
-298
-223
-266
-270
-236
-283
-338
-339
-352
-320
-286
-295
-307
-340
-287
-318
-391
-252
-203
-311
-322
-325
-394
-499
-338
151
929
2021
2817
2694
1505
366
-93
-318
-215
-43
-7
22
36
-29
-72
-12
-48
-85
-22
-37
-77
23
69
13
32
112
45
-57
147
214
29
110
158
130
250
328
311
275
408
455
410
566
693
645
701
856
864
949
1168
1224
1149
1263
1341
1271
1354
1330
1228
1224
1125
921
694
542
406
228
155
69
-128
-213
-168
-190
-331
-365
-343
-425
-374
-286
-323
-314
-283
-320
-406
-321
-263
-463
-381
-249
-390
-351
-250
-294
-310
-233
-265
-377
-281
-283
-371
-198
-127
-281
-370
-271
-212
-318
-330
-300
-340
-344
-296
-296
-374
-363
-323
-319
-319
-299
-263
-335
-311
-276
-401
-325
-238
-383
-347
-242
-368
-400
-238
-268
-409
-303
-201
-408
-416
-199
-302
-311
-266
-327
-282
-281
-323
-338
-230
-202
-273
-322
-279
-288
-399
-297
-251
-311
-312
-304
-277
-249
-195
-236
-351
-303
-222
-304
-265
-136
-245
-307
-176
-184
-265
-183
-155
-277
-161
-58
-162
-83
-11
-145
-187
-56
94
104
65
3
-172
-186
-222
-322
-249
-200
-201
-249
-239
-202
-309
-249
-206
-279
-269
-288
-255
-284
-290
-170
-193
-251
-162
-263
-441
-370
-16
662
1608
2523
2682
1705
549
23
-273
-301
-213
-211
4
75
-93
-106
18
-11
-82
-19
17
-20
7
115
44
-33
88
40
20
198
199
113
138
245
208
135
322
392
298
452
467
319
605
796
615
692
887
893
952
1108
1221
1148
1206
1395
1344
1327
1344
1275
1191
1075
972
821
630
467
263
106
119
78
-89
-168
-241
-319
-186
-108
-355
-426
-313
-341
-324
-245
-262
-376
-354
-308
-350
-348
-298
-286
-360
-319
-294
-446
-300
-144
-336
-334
-268
-330
-302
-225
-215
-320
-337
-236
-280
-312
-222
-300
-401
-220
-289
-485
-352
-321
-379
-413
-355
-290
-442
-398
-275
-450
-466
-314
-354
-393
-337
-346
-390
-344
-363
-423
-351
-313
-404
-362
-232
-348
-424
-285
-349
-481
-339
-252
-323
-317
-278
-338
-411
-333
-248
-377
-353
-216
-372
-397
-258
-297
-318
-234
-310
-316
-242
-260
-229
-303
-341
-285
-302
-244
-279
-432
-305
-176
-318
-345
-142
-122
-240
-98
-130
-252
-92
-53
-127
-83
20
100
77
-24
-104
-229
-286
-234
-288
-350
-244
-253
-367
-286
-269
-376
-322
-298
-343
-298
-227
-249
-327
-228
-267
-293
-153
-386
-582
-381
169
996
1926
2813
2692
1368
346
-21
-283
-335
-119
11
-4
60
72
-41
-52
-6
-74
-81
68
30
-117
33
14
-83
40
99
6
-36
173
178
45
184
246
160
270
347
261
303
425
470
532
636
675
713
843
1021
1012
995
1188
1268
1271
1384
1416
1349
1363
1336
1143
1046
1006
742
480
417
344
155
48
-27
-146
-133
-122
-257
-311
-179
-240
-385
-301
-277
-318
-286
-336
-406
-324
-313
-349
-263
-238
-313
-362
-292
-216
-285
-284
-252
-295
-346
-303
-197
-266
-346
-258
-257
-407
-254
-198
-346
-238
-203
-305
-330
-303
-305
-313
-307
-250
-246
-247
-242
-343
-338
-216
-283
-418
-270
-245
-408
-306
-231
-336
-323
-259
-345
-415
-282
-264
-331
-201
-207
-374
-383
-301
-320
-375
-263
-205
-340
-262
-271
-429
-264
-195
-271
-272
-242
-256
-366
-298
-260
-335
-244
-209
-320
-346
-264
-259
-337
-401
-258
-190
-329
-258
-194
-230
-132
-60
-145
-147
-84
-179
-194
-32
-42
-82
128
164
-40
-98
-136
-283
-289
-209
-242
-276
-234
-270
-308
-225
-243
-319
-322
-281
-271
-375
-280
-177
-307
-272
-225
-236
-328
-453
-362
-110
623
1725
2516
2817
1972
526
17
-114
-315
-241
-1
100
-36
9
89
-108
-110
1
-31
-14
47
25
-68
35
122
71
140
165
112
151
238
218
198
267
271
234
305
442
408
361
549
618
577
753
840
816
1007
1113
1090
1186
1247
1299
1341
1410
1470
1356
1327
1331
1146
981
874
703
476
406
366
143
68
89
-31
-168
-66
-71
-254
-168
-194
-345
-295
-216
-256
-234
-209
-312
-313
-195
-225
-328
-264
-172
-184
-222
-190
-226
-264
-189
-152
-233
-229
-137
-173
-222
-160
-139
-244
-178
-114
-259
-291
-180
-228
-316
-179
-149
-280
-183
-136
-339
-295
-119
-276
-388
-236
-232
-277
-207
-214
-321
-260
-173
-303
-322
-213
-266
-307
-269
-250
-253
-222
-134
-268
-384
-202
-201
-340
-210
-273
-360
-202
-210
-247
-264
-252
-270
-323
-264
-235
-259
-234
-236
-304
-294
-217
-273
-356
-212
-164
-254
-217
-208
-228
-262
-180
-63
-139
-152
-101
-100
-143
-106
-16
-9
84
99
2
-30
-71
-196
-272
-226
-270
-291
-200
-196
-332
-314
-264
-337
-241
-277
-487
-341
-151
-255
-345
-318
-261
-304
-297
-292
-482
-463
34
793
1656
2591
2729
1553
362
-95
-337
-387
-158
-72
-64
20
-17
-119
-129
-55
-59
-97
1
7
-83
-36
-32
-9
91
96
56
70
142
154
147
192
229
183
248
377
331
359
528
499
458
748
809
714
876
1011
1030
1082
1187
1179
1233
1393
1447
1426
1395
1304
1179
1049
978
874
611
499
458
246
131
80
-81
-185
-121
-121
-248
-212
-209
-299
-242
-213
-343
-357
-187
-322
-395
-128
-230
-322
-204
-249
-263
-249
-208
-252
-302
-155
-154
-250
-248
-217
-242
-239
-118
-161
-204
-146
-180
-264
-262
-188
-258
-297
-159
-229
-343
-237
-248
-286
-316
-315
-257
-279
-202
-194
-259
-249
-289
-386
-286
-175
-314
-299
-140
-251
-384
-225
-139
-288
-340
-191
-209
-300
-220
-293
-298
-184
-244
-292
-237
-153
-225
-310
-169
-155
-290
-233
-147
-266
-233
-70
-208
-310
-145
-150
-224
-124
-147
-316
-238
-103
-237
-187
-64
-181
-280
-183
-85
-157
-44
44
-222
-149
40
-111
-70
46
5
45
183
195
33
-121
-116
-162
-324
-240
-158
-285
-224
-160
-236
-297
-271
-256
-339
-224
-215
-319
-200
-204
-207
-175
-213
-220
-355
-413
-361
-52
787
1797
2574
2797
1891
536
-65
-180
-259
-136
84
86
-29
-60
15
-12
-42
-9
-38
11
38
-16
-7
-8
38
161
35
-31
162
144
162
276
167
141
309
339
301
410
441
348
456
607
573
615
838
857
837
1075
1195
1138
1194
1344
1341
1376
1446
1332
1306
1294
1137
995
802
624
443
302
245
90
13
-62
-169
-217
-222
-199
-312
-331
-296
-421
-385
-271
-310
-407
-421
-326
-343
-383
-302
-347
-363
-278
-351
-358
-251
-240
-325
-338
-227
-337
-440
-245
-229
-318
-251
-244
-343
-338
-270
-325
-367
-295
-223
-298
-385
-347
-391
-375
-266
-393
-496
-275
-280
-441
-344
-345
-432
-357
-224
-354
-485
-319
-262
-396
-405
-319
-404
-472
-326
-286
-419
-319
-337
-476
-210
-188
-389
-299
-292
-367
-316
-267
-258
-310
-288
-205
-340
-378
-193
-329
-444
-210
-212
-317
-234
-232
-323
-302
-211
-239
-290
-274
-257
-244
-224
-195
-257
-271
-215
-234
-186
-92
-142
-177
-137
-107
-134
-161
1
-14
-57
105
75
-2
-37
-128
-221
-253
-130
-200
-332
-152
-191
-352
-260
-209
-286
-291
-171
-226
-305
-197
-197
-260
-187
-189
-307
-278
-315
-429
-238
430
1343
2145
2719
2313
879
63
-53
-301
-341
-56
40
-31
70
35
-86
-5
103
17
-71
50
37
-41
75
127
97
77
84
115
151
225
167
125
298
308
205
283
364
373
366
493
591
485
596
820
782
852
1040
1012
1038
1171
1291
1308
1306
1353
1320
1288
1286
1171
935
897
828
530
380
326
108
-55
-49
-92
-187
-210
-176
-206
-241
-217
-298
-347
-236
-267
-398
-338
-293
-337
-341
-367
-283
-248
-269
-217
-278
-286
-300
-316
-157
-143
-263
-249
-166
-183
-263
-204
-192
-325
-289
-232
-291
-248
-188
-241
-303
-195
-185
-343
-297
-213
-288
-275
-199
-340
-390
-270
-327
-392
-348
-352
-388
-344
-285
-371
-387
-289
-295
-318
-239
-224
-404
-385
-197
-244
-362
-312
-255
-333
-316
-267
-369
-379
-216
-271
-355
-232
-269
-374
-238
-205
-406
-344
-157
-167
-242
-201
-237
-332
-204
-143
-275
-226
-131
-276
-283
-143
-128
-169
-117
-14
-89
-119
10
-21
-91
39
81
-9
148
244
29
-44
-16
-178
-241
-70
-122
-296
-183
-100
-292
-288
-130
-228
-263
-173
-151
-190
-232
-172
-203
-196
-69
-194
-285
-189
-308
-328
272
1221
2069
2787
2757
1413
268
-3
-271
-286
-15
94
12
-10
104
-11
-81
64
39
3
9
76
50
-13
112
94
53
166
151
117
192
202
116
164
325
270
176
322
396
367
515
636
601
596
751
824
839
1027
1065
1093
1325
1357
1265
1368
1464
1340
1300
1408
1304
993
905
829
547
463
343
128
54
-1
-79
-153
-135
-167
-264
-272
-276
-387
-393
-205
-240
-419
-348
-306
-367
-284
-242
-308
-358
-300
-269
-342
-237
-174
-372
-344
-176
-306
-407
-247
-210
-357
-292
-184
-334
-360
-220
-264
-345
-303
-359
-389
-220
-195
-410
-411
-271
-322
-371
-310
-307
-409
-343
-327
-400
-299
-261
-338
-396
-372
-371
-371
-327
-319
-403
-395
-283
-395
-424
-243
-321
-419
-294
-267
-358
-357
-277
-332
-336
-269
-322
-314
-306
-337
-297
-256
-257
-324
-357
-253
-238
-289
-203
-223
-293
-274
-275
-289
-328
-251
-266
-349
-187
-159
-266
-235
-247
-243
-132
-36
-119
-213
-42
-65
-240
-98
17
-18
56
157
62
-213
-257
-125
-278
-364
-226
-243
-286
-183
-202
-354
-319
-188
-236
-312
-270
-296
-288
-229
-289
-225
-137
-268
-416
-452
-379
-88
567
1599
2547
2889
2203
847
59
-131
-207
-176
-32
101
4
19
105
4
-66
8
101
-82
-19
188
9
-41
67
79
49
104
169
149
149
246
223
118
297
348
205
335
465
384
421
597
655
659
741
912
901
902
1131
1171
1214
1296
1269
1367
1414
1350
1367
1279
1044
925
865
761
584
334
270
223
14
-32
-84
-225
-180
-158
-232
-263
-189
-229
-373
-297
-226
-255
-254
-255
-246
-273
-229
-185
-295
-232
-155
-254
-310
-254
-226
-240
-192
-187
-265
-270
-180
-181
-218
-209
-251
-336
-240
-167
-260
-217
-152
-220
-256
-224
-266
-320
-256
-258
-339
-256
-167
-246
-258
-178
-259
-398
-267
-168
-332
-243
-176
-397
-286
-139
-263
-317
-248
-199
-239
-254
-243
-268
-257
-223
-288
-293
-187
-182
-313
-308
-166
-266
-341
-197
-180
-225
-162
-262
-342
-228
-228
-267
-195
-140
-245
-282
-162
-103
-121
-148
-68
-54
-120
-36
-69
-133
-16
65
64
21
120
23
-269
-171
-154
-300
-189
-155
-300
-209
-102
-232
-298
-168
-199
-352
-220
-187
-222
-149
-264
-300
-156
-99
-268
-448
-357
-185
251
1254
2219
2685
2202
961
123
-137
-215
-287
-140
44
10
-16
40
127
19
-47
118
117
40
86
61
23
74
140
23
-9
173
191
103
147
274
216
241
310
247
337
503
523
455
584
704
625
728
958
931
892
1093
1219
1247
1298
1292
1306
1410
1506
1381
1188
1251
1166
887
758
583
407
288
241
146
3
-6
-50
-166
-174
-126
-204
-235
-204
-247
-236
-193
-199
-232
-235
-167
-171
-234
-219
-254
-301
-134
-93
-220
-93
-62
-237
-203
-115
-214
-188
-69
-135
-114
-85
-176
-166
-124
-94
-205
-275
-153
-165
-278
-188
-93
-228
-263
-193
-250
-272
-224
-239
-305
-228
-170
-279
-221
-209
-305
-305
-174
-201
-388
-236
-107
-241
-275
-198
-307
-352
-214
-273
-294
-181
-157
-287
-294
-209
-315
-252
-150
-213
-268
-255
-184
-273
-254
-164
-294
-268
-134
-186
-289
-276
-187
-181
-242
-184
-181
-213
-153
-200
-237
-117
-67
-60
-12
-27
-58
-168
-105
-7
-77
49
219
153
24
35
-78
-242
-173
-133
-189
-181
-153
-201
-257
-203
-173
-214
-179
-187
-289
-263
-187
-226
-151
-79
-264
-317
-213
-350
-450
-85
673
1616
2543
3014
2156
724
198
-91
-409
-211
68
38
62
121
-43
-67
90
36
-59
65
61
-65
59
197
87
13
117
152
133
200
166
129
209
262
275
251
333
413
357
453
567
543
627
686
732
871
952
1005
1036
1186
1255
1175
1312
1468
1403
1333
1324
1225
1115
1007
858
661
508
388
146
42
110
-26
-196
-165
-198
-314
-325
-257
-236
-355
-312
-305
-439
-302
-260
-364
-424
-331
-269
-417
-364
-295
-361
-402
-332
-294
-402
-288
-312
-395
-262
-302
-353
-303
-298
-355
-327
-261
-315
-346
-287
-260
-366
-367
-289
-379
-346
-291
-369
-376
-345
-311
-395
-378
-299
-404
-395
-276
-380
-470
-329
-359
-442
-327
-286
-346
-380
-416
-387
-344
-293
-368
-417
-302
-317
-356
-311
-306
-386
-394
-257
-286
-435
-304
-287
-432
-358
-312
-334
-311
-293
-273
-399
-455
-287
-331
-352
-233
-280
-371
-327
-216
-272
-251
-129
-217
-198
-113
-216
-217
-109
-110
-42
120
53
-180
-248
-194
-277
-360
-177
-183
-371
-238
-211
-451
-450
-243
-309
-397
-243
-270
-393
-274
-231
-299
-240
-178
-301
-535
-528
-249
343
1376
2343
2748
2173
853
26
-199
-236
-249
-240
-24
14
-112
-67
-19
-55
-107
-77
-36
-27
55
28
-66
-104
-22
88
22
80
64
0
168
162
56
180
331
281
238
355
452
442
525
598
610
659
766
858
937
1088
1137
1180
1276
1297
1287
1297
1328
1284
1171
1144
1009
784
690
522
303
247
183
32
-21
-63
-163
-208
-184
-152
-293
-387
-254
-292
-428
-299
-246
-417
-383
-217
-259
-321
-246
-298
-327
-241
-263
-271
-214
-275
-333
-228
-194
-226
-298
-333
-255
-295
-291
-202
-242
-293
-246
-274
-284
-235
-346
-402
-240
-206
-370
-291
-188
-410
-419
-215
-264
-369
-317
-242
-341
-372
-277
-386
-379
-262
-340
-383
-225
-234
-416
-357
-269
-363
-394
-299
-330
-393
-302
-312
-388
-313
-345
-439
-315
-262
-317
-358
-356
-292
-375
-328
-236
-335
-363
-303
-300
-364
-321
-247
-264
-183
-116
-236
-227
-103
-144
-207
-118
4
0
-51
-126
-279
-329
-316
-378
-385
-302
-366
-466
-371
-293
-388
-438
-319
-338
-408
-303
-331
-404
-359
-323
-378
-404
-324
-487
-657
-334
355
1262
2232
2784
2137
719
-2
-161
-426
-409
-142
-188
-210
-43
-129
-223
-84
-90
-166
-71
-90
-165
-119
-40
-70
-100
33
-15
-102
20
26
4
97
164
108
91
249
307
249
359
431
362
530
744
703
691
856
953
931
1057
1221
1107
1145
1382
1293
1229
1344
1224
995
945
807
528
433
395
157
-52
-39
-102
-234
-188
-194
-334
-285
-249
-461
-429
-273
-282
-369
-384
-269
-346
-379
-311
-401
-421
-282
-338
-460
-283
-286
-434
-253
-137
-314
-356
-233
-331
-368
-222
-236
-288
-263
-241
-392
-431
-224
-272
-384
-327
-283
-354
-342
-225
-338
-345
-287
-454
-399
-216
-234
-345
-381
-265
-332
-430
-279
-330
-426
-343
-310
-332
-342
-297
-347
-399
-307
-265
-359
-341
-259
-365
-356
-212
-279
-348
-253
-276
-345
-203
-197
-332
-292
-266
-335
-317
-216
-295
-381
-300
-276
-314
-255
-242
-325
-251
-144
-153
-184
-118
-63
-157
-175
-92
-99
-50
159
126
-108
-81
-41
-183
-306
-268
-228
-348
-301
-186
-324
-294
-223
-401
-274
-156
-364
-374
-220
-205
-280
-208
-170
-348
-389
-362
-456
-107
853
1805
2544
2892
1894
427
37
-48
-310
-215
83
52
-67
62
22
-138
-83
7
6
-54
-21
42
-19
49
76
-56
32
117
-8
53
177
135
148
237
278
130
212
434
329
323
504
509
467
672
813
801
896
1012
1028
1038
1199
1259
1238
1381
1422
1359
1311
1220
1084
960
896
619
342
391
248
-22
39
4
-183
-215
-212
-238
-277
-241
-240
-328
-330
-253
-299
-394
-325
-283
-354
-235
-205
-358
-317
-203
-303
-387
-263
-246
-329
-206
-231
-425
-304
-238
-374
-302
-169
-274
-307
-208
-247
-328
-265
-194
-276
-373
-270
-309
-412
-188
-242
-346
-224
-284
-360
-279
-213
-296
-350
-268
-231
-317
-304
-246
-275
-340
-272
-223
-315
-263
-238
-327
-285
-208
-240
-228
-167
-290
-392
-246
-161
-287
-242
-154
-310
-304
-175
-246
-317
-256
-237
-292
-251
-158
-208
-278
-220
-168
-137
-76
-55
-176
-161
35
-75
-195
12
23
-48
157
197
-31
-155
-119
-168
-228
-199
-196
-231
-205
-189
-279
-243
-170
-274
-274
-163
-240
-277
-211
-203
-218
-194
-100
-216
-377
-299
-195
204
1117
2024
2658
2472
1234
257
3
-111
-263
-217
81
182
91
127
152
-69
-48
165
132
82
98
159
176
216
252
91
99
280
198
155
393
361
241
379
469
428
338
534
617
523
740
804
778
863
936
980
1027
1259
1367
1226
1297
1476
1391
1437
1515
1303
1334
1417
1061
832
867
606
349
380
302
121
94
86
-87
-160
-56
-146
-248
-133
-108
-227
-250
-190
-212
-277
-258
-211
-185
-185
-231
-233
-199
-184
-270
-287
-211
-241
-177
-84
-125
-269
-294
-120
-183
-276
-113
-122
-224
-143
-153
-213
-183
-198
-273
-330
-247
-234
-314
-196
-175
-294
-232
-167
-252
-309
-217
-185
-297
-269
-218
-317
-283
-215
-288
-316
-263
-226
-291
-318
-267
-303
-261
-226
-300
-288
-211
-228
-294
-247
-281
-312
-225
-277
-269
-224
-198
-123
-250
-335
-164
-184
-268
-191
-172
-194
-144
-27
-95
-125
-102
-165
-68
22
-13
-28
97
196
-6
-134
-66
-181
-276
-192
-324
-380
-159
-184
-275
-250
-242
-256
-273
-223
-264
-291
-181
-272
-326
-133
-161
-359
-377
-388
-240
333
1299
2284
2660
2066
887
155
-209
-374
-207
-80
-12
23
-34
-8
55
-76
-70
55
-13
-39
26
79
19
-11
95
8
-26
174
144
53
189
220
139
240
391
341
300
438
434
373
582
756
624
656
841
902
978
1131
1198
1157
1325
1380
1263
1390
1464
1299
1244
1148
950
816
668
496
362
263
131
6
-94
-69
-77
-230
-205
-202
-354
-306
-252
-326
-264
-216
-304
-389
-291
-221
-391
-291
-218
-361
-338
-264
-301
-347
-223
-254
-359
-257
-196
-316
-310
-240
-246
-232
-259
-321
-343
-345
-313
-307
-307
-262
-364
-429
-370
-400
-357
-259
-340
-375
-328
-314
-330
-384
-276
-270
-424
-336
-254
-359
-355
-263
-348
-389
-266
-291
-419
-376
-308
-361
-330
-276
-345
-347
-288
-328
-332
-271
-252
-358
-409
-293
-324
-372
-280
-265
-283
-241
-211
-339
-361
-214
-264
-212
-39
-159
-230
-118
-139
-196
-114
11
21
22
109
9
-196
-225
-212
-270
-343
-279
-260
-390
-318
-244
-368
-251
-171
-385
-388
-253
-329
-418
-284
-260
-323
-197
-317
-500
-456
-326
249
1192
2155
2657
2071
798
-9
-317
-422
-221
-47
2
19
-55
-150
-112
-38
-103
-96
-12
-53
-105
-24
51
-41
-26
28
-54
-6
174
131
54
170
146
155
274
321
278
285
437
435
417
586
656
626
809
978
892
967
1162
1180
1205
1367
1403
1270
1329
1365
1155
1034
947
801
665
494
356
235
142
126
-41
-195
-106
-147
-280
-195
-174
-254
-289
-297
-314
-318
-303
-326
-280
-258
-333
-429
-329
-251
-345
-372
-289
-286
-405
-365
-291
-390
-364
-224
-294
-340
-248
-298
-372
-248
-288
-459
-326
-283
-454
-441
-280
-323
-454
-321
-266
-394
-377
-355
-371
-373
-391
-392
-470
-384
-349
-518
-385
-196
-392
-500
-273
-310
-421
-384
-423
-379
-334
-398
-458
-457
-390
-368
-402
-394
-309
-366
-442
-327
-399
-455
-359
-352
-376
-375
-369
-429
-343
-244
-369
-343
-221
-256
-321
-268
-258
-396
-273
-48
-108
-98
-7
-119
-274
-341
-390
-498
-527
-396
-451
-521
-412
-431
-459
-412
-466
-521
-410
-377
-489
-412
-314
-430
-472
-411
-423
-572
-678
-510
-4
917
1966
2621
2356
1166
140
-268
-381
-221
-106
-86
35
-37
-166
-91
-81
-149
-101
-32
-116
-67
49
-36
-28
103
84
-44
55
171
94
104
252
286
168
251
342
260
379
449
387
525
611
601
696
850
962
1014
1145
1263
1152
1199
1410
1362
1370
1477
1373
1253
1229
1080
900
751
591
456
327
238
65
-56
4
-44
-188
-218
-181
-238
-280
-178
-209
-330
-199
-106
-248
-319
-219
-234
-366
-202
-125
-228
-143
-191
-307
-243
-151
-221
-264
-171
-192
-277
-247
-219
-252
-218
-249
-305
-244
-192
-240
-279
-231
-254
-339
-281
-184
-288
-411
-220
-143
-420
-373
-202
-384
-331
-218
-356
-332
-206
-262
-405
-289
-197
-331
-299
-205
-289
-294
-183
-200
-259
-241
-182
-223
-276
-204
-232
-296
-129
-136
-315
-185
-133
-273
-243
-99
-130
-200
-80
-37
-68
-54
-83
-152
-67
108
170
146
135
6
-224
-208
-148
-261
-278
-229
-284
-323
-279
-214
-371
-386
-273
-267
-312
-417
-260
-267
-349
-231
-250
-301
-410
-694
-625
-189
422
1636
2541
2459
1422
285
-142
-410
-425
-294
-226
-143
-101
-130
-197
-170
-181
-293
-248
-74
-110
-184
-54
-65
-182
-89
44
24
17
61
-12
24
160
204
168
153
246
300
369
439
446
558
653
645
757
898
1006
970
1016
1230
1188
1228
1327
1302
1317
1343
1266
1129
1045
936
734
488
406
305
53
-5
50
-145
-324
-151
-166
-397
-255
-231
-417
-279
-267
-353
-254
-265
-380
-349
-186
-205
-259
-245
-254
-246
-243
-148
-200
-315
-167
-185
-296
-196
-206
-411
-278
-48
-273
-283
-181
-244
-236
-226
-169
-297
-297
-132
-263
-343
-202
-255
-352
-254
-166
-288
-395
-250
-267
-319
-195
-380
-526
-214
-145
-370
-362
-235
-349
-403
-227
-263
-375
-360
-307
-237
-290
-324
-305
-280
-165
-289
-320
-167
-235
-297
-247
-151
-110
-156
-108
-135
-239
-110
-96
-194
33
222
117
142
193
-27
-224
-197
-186
-287
-242
-83
-210
-325
-185
-236
-346
-270
-227
-259
-278
-278
-289
-315
-255
-227
-308
-331
-406
-593
-248
625
1498
2369
2803
1881
530
46
-193
-424
-122
170
-46
-55
99
101
60
56
144
97
111
192
83
87
248
193
81
183
306
270
224
322
341
313
439
478
334
419
554
466
621
741
612
749
935
986
986
1019
1218
1298
1298
1382
1437
1511
1514
1530
1460
1446
1554
1303
1103
1095
752
511
665
525
308
231
140
103
80
97
-92
-126
46
-22
-105
1
63
-81
-206
-101
-16
-69
-80
-143
-135
-34
-12
-46
-91
-34
-145
-233
-54
-43
-146
-115
-152
-256
-212
-138
-124
-217
-231
-208
-234
-161
-238
-343
-222
-198
-386
-377
-215
-278
-320
-212
-311
-428
-299
-249
-409
-365
-140
-250
-329
-246
-331
-362
-324
-246
-322
-417
-284
-221
-323
-358
-194
-239
-242
-56
-194
-219
-109
-164
-152
-92
-19
-28
15
183
41
-202
-194
-245
-342
-302
-304
-365
-275
-251
-411
-357
-333
-440
-418
-386
-322
-304
-254
-167
-360
-364
-135
-173
-421
-555
-449
-63
817
1873
2689
2669
1540
452
8
-203
-227
-80
70
155
171
164
220
203
104
186
248
154
175
271
220
238
365
275
200
452
511
341
417
479
433
512
614
583
512
597
687
652
709
892
972
929
971
1004
1062
1263
1339
1250
1364
1489
1396
1434
1550
1456
1297
1290
1158
895
782
716
529
361
333
188
70
146
83
-104
-136
-65
-93
-127
-78
-94
-142
-79
-139
-222
-60
-28
-158
-167
-94
-40
-94
-56
16
-107
-107
-46
-125
-134
-15
-105
-227
-114
-107
-198
-177
-96
-192
-242
-76
-184
-342
-147
-39
-132
-173
-132
-215
-293
-155
-148
-288
-220
-132
-271
-270
-171
-201
-201
-168
-228
-252
-210
-209
-273
-247
-147
-242
-248
-200
-296
-283
-148
-106
-223
-169
-10
-140
-168
-27
-82
-156
-49
72
51
105
150
-35
-138
-102
-194
-364
-337
-266
-324
-256
-214
-377
-445
-257
-274
-419
-251
-163
-382
-436
-250
-326
-405
-253
-345
-532
-559
-442
67
1056
2150
2738
2247
1035
145
-243
-397
-399
-286
-65
5
-135
-108
-18
-175
-245
-69
-43
-164
-64
-54
-14
17
-148
-53
-98
-66
80
-34
15
101
72
135
191
160
151
273
355
277
421
637
530
568
809
760
764
994
1063
1022
1042
1118
1079
1115
1296
1195
1018
954
789
592
496
397
263
112
-4
-59
-159
-73
-80
-359
-300
-195
-325
-340
-362
-346
-267
-252
-354
-434
-301
-214
-317
-390
-302
-365
-402
-264
-326
-404
-275
-174
-313
-430
-254
-249
-426
-314
-319
-469
-352
-298
-354
-311
-315
-401
-418
-353
-366
-398
-309
-299
-444
-425
-324
-395
-433
-380
-368
-439
-388
-322
-399
-336
-308
-423
-364
-276
-359
-344
-274
-293
-355
-370
-264
-262
-269
-137
-190
-331
-214
-114
-214
-208
-49
-28
-49
169
120
-229
-272
-238
-367
-372
-336
-360
-341
-280
-273
-399
-341
-353
-540
-421
-252
-354
-423
-327
-280
-362
-378
-319
-472
-630
-569
-165
590
1586
2478
2503
1465
337
-189
-364
-382
-364
-155
-10
-63
-85
-90
-66
-190
-168
-78
-167
-68
0
-108
-81
38
-2
-58
29
92
33
32
170
182
43
100
241
188
234
375
363
354
494
528
534
673
664
743
932
942
944
985
1050
1168
1097
1031
1200
1068
858
857
713
517
353
269
184
11
-101
-216
-221
-168
-286
-388
-380
-396
-437
-377
-368
-530
-463
-289
-425
-523
-392
-355
-468
-426
-318
-386
-439
-345
-406
-453
-302
-347
-465
-423
-327
-432
-466
-259
-363
-473
-281
-307
-454
-350
-340
-533
-527
-452
-443
-527
-545
-522
-654
-526
-494
-721
-656
-494
-617
-743
-594
-570
-675
-575
-569
-718
-594
-442
-624
-690
-545
-607
-651
-491
-435
-539
-617
-560
-536
-394
-345
-444
-439
-468
-377
-393
-373
-256
-367
-196
-2
-160
-419
-565
-499
-536
-575
-563
-530
-502
-630
-648
-448
-515
-570
-453
-515
-428
-510
-654
-427
-514
-682
-399
-440
-730
-683
-637
-234
615
1561
2436
2407
1370
162
-308
-314
-483
-466
-268
-143
-161
-300
-229
-217
-284
-157
-249
-278
-192
-79
-80
-196
-205
-169
-84
-53
21
-152
-140
103
34
-6
68
97
40
170
300
180
300
480
421
484
657
663
590
739
859
846
890
923
1015
1069
1066
1086
954
923
858
541
363
278
165
43
9
-26
-283
-356
-265
-368
-360
-340
-491
-432
-312
-402
-519
-481
-381
-426
-412
-353
-374
-437
-360
-259
-393
-398
-379
-362
-296
-254
-252
-364
-313
-270
-354
-268
-226
-368
-363
-257
-299
-410
-389
-334
-329
-308
-270
-329
-385
-281
-268
-366
-255
-203
-377
-352
-297
-333
-278
-206
-285
-422
-320
-244
-340
-280
-172
-247
-225
-93
-145
-184
-116
-97
-150
-181
-71
-60
-6
116
63
40
-49
-186
-311
-302
-216
-348
-343
-241
-290
-276
-228
-273
-358
-328
-272
-347
-296
-182
-273
-340
-276
-304
-476
-570
-355
161
990
2056
2739
2415
1197
225
-80
-275
-331
-188
-4
129
58
-101
-88
-40
-89
-42
23
-80
-8
139
49
-15
88
78
-36
108
217
133
140
247
251
184
283
334
284
367
432
404
525
648
657
662
766
918
911
999
1169
1111
1064
1233
1285
1194
1241
1204
1084
937
776
680
541
436
295
86
29
17
-142
-171
-133
-261
-285
-179
-189
-304
-288
-237
-355
-373
-214
-183
-278
-211
-232
-347
-180
-69
-245
-267
-160
-228
-280
-207
-201
-257
-228
-286
-312
-181
-193
-275
-261
-259
-281
-266
-191
-212
-338
-295
-202
-271
-298
-220
-252
-277
-232
-271
-328
-321
-223
-194
-245
-158
-147
-306
-230
-107
-278
-282
-138
-239
-275
-174
-191
-261
-150
-89
-193
-107
31
-139
-168
-11
-37
8
125
163
128
220
188
-156
-222
-132
-216
-230
-175
-196
-230
-162
-141
-321
-315
-158
-265
-299
-225
-293
-309
-220
-300
-285
-129
-233
-488
-557
-74
721
1658
2598
2782
1745
495
29
-177
-319
-112
89
21
27
25
2
91
50
39
100
72
120
115
42
120
146
135
199
160
102
221
302
228
274
398
313
214
433
589
506
557
572
565
765
804
730
891
1040
1017
1058
1204
1226
1188
1294
1354
1277
1287
1337
1216
901
726
775
585
376
337
162
45
23
-81
-147
-138
-139
-169
-184
-100
-195
-345
-192
-162
-234
-127
-177
-242
-142
-140
-197
-210
-107
-110
-139
-54
-184
-287
-166
-88
-163
-207
-95
-113
-257
-156
-55
-248
-219
-78
-229
-230
-144
-211
-244
-192
-240
-289
-205
-191
-259
-240
-118
-191
-287
-197
-168
-246
-251
-193
-230
-238
-205
-179
-185
-283
-206
-89
-62
-70
-137
-99
-18
-23
-151
-87
-19
-95
176
280
61
36
-39
-181
-358
-300
-161
-337
-242
-175
-303
-303
-276
-265
-312
-328
-315
-248
-247
-276
-330
-342
-174
-267
-444
-389
-300
98
1001
1929
2510
2144
942
76
-266
-281
-304
-276
-58
-31
-51
23
85
-20
-83
21
67
-12
-62
121
113
43
188
58
53
225
184
136
212
307
292
277
333
353
341
484
465
390
622
669
643
730
811
879
873
1092
1179
1012
1131
1253
1135
1153
1259
1182
1001
928
972
728
486
465
269
176
195
7
-138
-23
-12
-162
-170
-127
-196
-224
-190
-255
-235
-165
-208
-302
-198
-73
-200
-203
-132
-170
-197
-158
-111
-214
-200
-84
-269
-276
-75
-145
-254
-194
-194
-281
-178
-139
-286
-290
-163
-227
-384
-247
-158
-373
-311
-159
-333
-276
-115
-219
-332
-275
-194
-338
-285
-124
-264
-295
-209
-265
-297
-258
-293
-345
-259
-226
-273
-270
-254
-300
-338
-235
-192
-333
-316
-184
-315
-307
-128
-172
-218
-36
-20
-238
-228
-93
-119
-112
92
122
49
25
-159
-289
-294
-272
-252
-293
-290
-272
-309
-287
-311
-378
-349
-296
-332
-357
-332
-319
-341
-293
-250
-420
-468
-544
-452
321
1342
2211
2715
2134
846
50
-262
-331
-249
-143
-50
-91
-143
-19
-45
-157
-62
-62
-201
-49
80
-74
-104
25
75
18
13
54
19
54
172
120
117
242
234
184
308
398
280
357
554
523
520
695
782
724
868
1054
885
820
1167
1225
1089
1266
1212
996
1058
961
664
536
490
306
148
183
50
-137
-109
-107
-306
-367
-196
-266
-355
-274
-280
-343
-297
-232
-360
-398
-225
-239
-339
-276
-236
-287
-312
-296
-295
-309
-236
-240
-306
-223
-283
-379
-215
-142
-317
-340
-317
-400
-306
-204
-287
-382
-385
-303
-308
-352
-277
-367
-422
-288
-374
-462
-344
-288
-411
-433
-296
-322
-441
-419
-366
-413
-381
-285
-408
-411
-309
-416
-432
-343
-367
-438
-392
-378
-436
-411
-343
-422
-399
-222
-246
-283
-204
-218
-329
-251
-193
-242
-165
-102
-53
-59
-47
-144
-440
-456
-337
-375
-434
-381
-386
-502
-433
-399
-498
-452
-366
-372
-467
-464
-392
-456
-410
-291
-446
-528
-517
-687
-386
488
1465
2312
2640
1856
504
-90
-263
-475
-366
-92
-69
-201
-99
-95
-247
-111
-23
-168
-194
-121
-77
-127
-143
-31
-94
-98
22
-51
-83
5
60
29
83
155
118
222
353
232
171
431
513
455
629
633
579
796
956
908
905
1027
1046
1032
1139
1170
1067
1015
984
777
581
519
363
173
117
-24
-199
-204
-141
-237
-430
-351
-356
-489
-379
-351
-481
-517
-427
-477
-515
-330
-338
-432
-370
-360
-424
-400
-338
-425
-393
-269
-371
-465
-375
-295
-329
-354
-371
-426
-396
-323
-367
-407
-383
-475
-534
-444
-434
-443
-414
-281
-285
-532
-473
-352
-443
-414
-382
-463
-465
-453
-474
-457
-405
-360
-464
-494
-400
-433
-435
-318
-343
-456
-416
-356
-405
-437
-384
-421
-446
-419
-465
-426
-368
-353
-364
-389
-378
-321
-275
-306
-247
-178
-209
-235
-304
-251
-160
-260
-223
-60
-62
-25
-4
-115
-253
-346
-277
-343
-408
-214
-352
-489
-279
-269
-379
-348
-269
-329
-470
-370
-290
-415
-325
-223
-307
-360
-532
-676
-285
532
1386
2157
2523
1714
403
-98
-241
-431
-406
-130
-39
-175
-119
-54
-176
-155
36
-63
-155
-62
-45
-74
-57
0
-53
-34
58
11
53
169
106
42
252
316
86
175
377
349
360
450
458
494
668
744
688
865
1047
945
979
1137
1136
1125
1209
1179
1064
1109
1151
919
671
657
494
213
220
159
-32
-79
-50
-125
-274
-207
-170
-277
-268
-229
-264
-251
-232
-349
-364
-215
-239
-369
-273
-187
-287
-308
-276
-284
-247
-170
-205
-270
-187
-184
-330
-253
-181
-330
-230
-115
-249
-273
-244
-225
-220
-256
-111
-156
-335
-211
-211
-344
-282
-270
-383
-266
-116
-219
-270
-232
-331
-319
-162
-166
-304
-306
-189
-262
-258
-167
-280
-336
-275
-196
-204
-206
-154
-272
-335
-193
-190
-250
-175
-188
-252
-199
-277
-346
-210
-136
-161
-211
-107
37
-67
-108
2
-75
-105
82
80
-2
167
240
27
-97
-84
-182
-282
-180
-113
-226
-197
-158
-340
-264
-67
-236
-330
-183
-202
-242
-183
-220
-292
-248
-217
-386
-492
-331
132
922
1967
2795
2581
1358
412
8
-330
-310
-52
64
91
18
-95
-5
46
-21
19
59
-29
-25
33
44
97
105
177
120
51
190
97
83
276
297
268
277
382
337
289
474
536
545
686
762
696
850
1064
975
948
1117
1236
1241
1274
1303
1262
1297
1333
1165
1019
995
773
521
487
334
139
162
77
-72
-103
-66
-142
-251
-199
-168
-299
-354
-256
-280
-267
-182
-222
-281
-224
-255
-331
-193
-179
-296
-235
-105
-233
-327
-121
-156
-309
-195
-158
-265
-308
-294
-171
-227
-256
-113
-292
-360
-136
-211
-356
-238
-264
-302
-197
-249
-339
-320
-296
-346
-314
-164
-251
-440
-326
-211
-306
-362
-255
-284
-384
-337
-374
-415
-323
-330
-405
-357
-301
-329
-403
-370
-339
-373
-275
-305
-439
-334
-278
-427
-383
-268
-337
-409
-328
-230
-322
-277
-129
-213
-296
-196
-112
-138
-161
-149
-160
-97
36
56
72
24
-278
-456
-282
-238
-429
-376
-290
-419
-387
-280
-350
-452
-336
-253
-378
-375
-311
-359
-374
-313
-325
-422
-471
-557
-542
-6
1053
2061
2591
2457
1249
77
-162
-352
-419
-153
-38
-116
-151
-142
-186
-154
-29
18
-93
-149
-133
-140
-100
-39
-54
-118
0
87
-16
-40
71
110
85
159
235
181
202
340
277
358
552
507
573
752
661
719
965
975
999
1124
1232
1203
1219
1255
1199
1207
1131
937
776
673
660
439
191
233
72
-104
1
-16
-111
-130
-282
-301
-200
-256
-256
-262
-217
-185
-233
-232
-184
-227
-289
-133
-92
-246
-220
-159
-274
-176
16
-177
-253
-149
-257
-163
-143
-235
-118
-124
-184
-229
-171
-76
-211
-267
-191
-194
-174
-195
-203
-154
-192
-172
-170
-225
-173
-146
-238
-151
-55
-285
-314
-83
-147
-301
-176
-167
-314
-238
-178
-247
-212
-213
-272
-238
-186
-247
-353
-307
-211
-280
-346
-248
-287
-320
-97
-151
-389
-323
-225
-217
-225
-259
-309
-325
-260
-284
-438
-366
-218
-290
-245
-162
-184
-179
-127
-162
-237
-137
-88
-132
-9
205
140
-58
-119
-254
-351
-214
-141
-324
-373
-249
-320
-364
-231
-343
-472
-231
-202
-367
-307
-228
-261
-408
-344
-248
-433
-491
-398
-113
731
1925
2664
2599
1637
547
-46
-352
-304
-146
-75
19
2
-152
-89
-28
-142
-70
2
-129
-79
56
-6
-1
91
113
-9
34
197
110
123
265
199
118
328
395
216
346
495
415
517
693
710
692
747
877
996
1036
1106
1152
1160
1314
1290
1175
1375
1354
1075
1102
1078
788
628
551
350
229
211
-7
-125
-32
-124
-192
-212
-226
-264
-304
-224
-330
-373
-226
-198
-234
-237
-87
-216
-418
-144
-118
-384
-368
-232
-324
-450
-318
-238
-403
-413
-352
-499
-446
-293
-497
-524
-366
-395
-478
-337
-351
-603
-534
-443
-459
-465
-501
-404
-438
-414
-305
-466
-456
-377
-408
-417
-362
-463
-482
-275
-434
-587
-399
-396
-539
-466
-290
-411
-595
-485
-354
-365
-406
-434
-458
-406
-318
-467
-453
-281
-390
-466
-407
-250
-262
-366
-340
-299
-336
-356
-321
-347
-228
-202
-373
-265
-72
-185
-274
-114
-73
-185
-124
63
-5
-51
151
-86
-388
-245
-305
-390
-259
-330
-339
-307
-317
-287
-427
-308
-249
-459
-285
-251
-388
-251
-177
-266
-372
-420
-537
-326
394
1226
2136
2889
2514
1001
116
-3
-272
-279
41
110
-114
-60
139
36
-11
68
50
17
36
142
86
20
139
46
7
147
179
146
181
264
208
182
368
449
389
483
528
482
557
706
665
643
962
1044
954
1108
1182
1144
1223
1352
1353
1371
1479
1413
1389
1391
1072
876
909
777
556
478
447
219
67
98
15
-51
-12
-28
-105
-163
-168
-249
-239
-126
-174
-213
-177
-161
-214
-211
-166
-201
-240
-174
-139
-251
-216
-96
-206
-159
0
-183
-272
-95
-55
-239
-263
-159
-259
-285
-162
-177
-195
-162
-226
-258
-190
-175
-204
-225
-213
-220
-267
-188
-195
-347
-248
-160
-321
-251
-168
-316
-338
-233
-206
-291
-230
-142
-244
-235
-227
-270
-218
-187
-191
-223
-247
-239
-250
-214
-129
-271
-359
-178
-151
-269
-222
-182
-226
-123
7
-30
-122
-32
-29
-179
-103
22
44
121
204
109
-88
-127
-188
-267
-186
-121
-194
-270
-143
-203
-408
-295
-272
-311
-226
-310
-315
-252
-246
-295
-308
-252
-399
-621
-393
393
1149
1992
2881
2520
1081
205
-103
-369
-271
-42
-32
-29
29
-8
-25
-6
-38
-57
-12
29
-95
-75
172
105
-71
95
87
-47
205
307
124
164
296
249
248
370
354
323
476
584
540
594
725
822
865
958
1081
1060
1109
1277
1250
1195
1358
1398
1347
1371
1267
1021
939
952
639
365
414
313
145
128
-11
-116
-95
-140
-254
-255
-146
-188
-180
-151
-293
-261
-167
-192
-246
-235
-111
-149
-242
-125
-97
-257
-155
-94
-269
-149
-25
-184
-146
-79
-174
-212
-203
-125
-132
-197
-172
-221
-242
-161
-288
-326
-202
-286
-319
-231
-225
-264
-293
-248
-272
-388
-299
-180
-335
-359
-189
-290
-406
-262
-257
-356
-328
-268
-242
-312
-330
-280
-233
-194
-259
-253
-173
-217
-296
-256
-212
-258
-238
-190
-248
-357
-211
-55
-192
-200
-175
-314
-212
-81
-143
-170
-133
-74
-147
-169
-19
-76
-189
57
223
96
103
89
-190
-361
-193
-184
-330
-178
-183
-364
-257
-173
-262
-301
-208
-247
-358
-274
-214
-261
-319
-239
-182
-339
-391
-472
-409
233
1094
1907
2643
2390
1001
132
-66
-320
-318
-56
16
-52
6
26
-13
35
111
10
-31
29
5
56
81
128
101
64
204
140
113
328
279
171
257
311
318
296
364
386
331
454
560
585
671
745
769
823
990
1031
945
1117
1265
1173
1189
1268
1202
1198
1190
987
753
684
625
433
369
270
87
32
-10
-164
-259
-142
-137
-300
-335
-310
-312
-259
-272
-323
-291
-241
-283
-346
-257
-219
-311
-266
-186
-306
-319
-167
-202
-352
-311
-153
-179
-297
-226
-171
-356
-273
-132
-296
-225
-184
-346
-318
-271
-276
-270
-261
-252
-380
-406
-240
-324
-313
-168
-395
-401
-234
-388
-424
-311
-308
-384
-365
-247
-345
-434
-341
-433
-440
-253
-333
-503
-361
-272
-383
-350
-315
-378
-465
-373
-281
-374
-322
-235
-326
-381
-221
-177
-328
-266
-142
-272
-291
-114
-176
-141
70
24
-87
-210
-326
-351
-342
-317
-316
-345
-353
-349
-442
-373
-280
-431
-404
-274
-342
-348
-315
-376
-337
-335
-387
-523
-652
-504
-13
794
1815
2604
2329
1184
268
-256
-439
-255
-193
-188
-38
-35
-167
-111
-68
-215
-176
25
-84
-148
-11
-28
-54
-67
62
75
-55
58
92
100
156
76
63
208
336
236
230
428
406
316
548
726
596
688
836
818
907
1056
1054
1053
1262
1271
1111
1099
1168
1105
936
855
686
450
326
221
76
-41
-64
-125
-196
-237
-317
-394
-378
-309
-391
-363
-319
-493
-443
-349
-473
-425
-277
-323
-400
-329
-239
-383
-418
-195
-304
-441
-252
-255
-368
-221
-228
-368
-392
-342
-279
-319
-254
-228
-395
-388
-216
-314
-382
-262
-328
-383
-319
-316
-371
-331
-320
-426
-383
-304
-365
-441
-322
-266
-420
-356
-288
-426
-391
-337
-459
-436
-266
-320
-446
-357
-311
-403
-407
-283
-282
-384
-344
-316
-354
-296
-301
-338
-341
-315
-291
-350
-248
-190
-340
-287
-224
-361
-281
-47
-95
-252
-211
-127
-192
-156
-47
-155
-186
-8
94
28
-71
-237
-386
-298
-200
-353
-379
-242
-384
-500
-377
-286
-342
-379
-277
-302
-336
-269
-390
-395
-212
-315
-516
-514
-454
-112
852
2000
2673
2541
1444
298
-172
-304
-275
-176
-87
-15
-104
-193
-30
-49
-211
-47
19
-125
-72
13
3
7
110
72
-69
48
139
34
30
178
223
152
290
344
200
360
471
385
457
624
757
723
733
903
945
968
1137
1115
1100
1315
1275
1242
1349
1274
1158
1080
1058
865
642
578
383
181
144
66
-108
-61
-38
-224
-199
-151
-307
-369
-157
-166
-400
-293
-187
-346
-398
-204
-209
-318
-209
-260
-350
-213
-154
-268
-363
-266
-156
-152
-171
-181
-274
-319
-99
-133
-275
-216
-296
-261
-148
-257
-279
-193
-218
-312
-337
-251
-224
-241
-165
-217
-316
-289
-283
-293
-238
-223
-296
-315
-241
-207
-327
-325
-207
-301
-308
-150
-190
-310
-275
-209
-327
-365
-190
-236
-258
-97
-216
-334
-259
-288
-245
-133
-149
-247
-275
-133
-209
-345
-165
-143
-292
-179
-97
-278
-221
-88
-136
-90
-75
-61
-109
-150
16
29
-21
109
140
32
-5
-104
-291
-237
-135
-236
-230
-123
-213
-323
-239
-168
-235
-249
-180
-204
-244
-232
-257
-244
-132
-136
-264
-300
-374
-363
252
1238
1982
2439
2175
1060
136
-132
-219
-326
-157
81
23
1
104
101
-17
-16
104
48
85
147
35
42
100
86
70
149
216
98
85
170
147
219
293
262
278
377
476
417
423
570
569
597
746
768
736
904
1048
1005
1062
1123
1151
1131
1151
1282
1183
1118
1023
733
683
611
321
161
153
75
-81
-17
-34
-222
-166
-173
-287
-290
-286
-228
-307
-340
-187
-247
-255
-222
-352
-338
-256
-231
-238
-219
-176
-151
-96
-139
-244
-231
-197
-128
-139
-181
-140
-228
-197
-123
-194
-251
-219
-87
-122
-211
-181
-233
-243
-158
-173
-284
-244
-169
-241
-220
-141
-267
-285
-106
-186
-318
-132
-125
-309
-234
-141
-290
-313
-162
-249
-220
-170
-283
-328
-266
-189
-338
-351
-120
-207
-393
-266
-214
-266
-245
-248
-274
-290
-90
-74
-195
-103
-128
-212
-104
89
-21
-75
130
47
-124
-158
-268
-367
-254
-217
-363
-299
-211
-331
-364
-277
-322
-339
-312
-343
-312
-310
-194
-233
-386
-213
-235
-371
-334
-426
-402
184
1060
1845
2482
2185
946
123
-115
-247
-360
-277
-12
48
-16
-23
-22
-42
44
90
-30
23
39
-13
-14
13
152
87
23
145
81
111
262
183
275
396
233
226
404
491
395
399
630
619
564
778
914
886
988
1065
1053
1130
1161
1199
1269
1321
1196
1055
1101
1011
872
723
550
463
287
137
91
1
-21
-39
-241
-193
-5
-194
-348
-183
-188
-291
-202
-261
-425
-290
-140
-241
-309
-245
-221
-239
-186
-154
-175
-214
-163
-196
-273
-95
-150
-248
-86
-161
-274
-162
-160
-292
-244
-208
-281
-239
-174
-185
-235
-329
-258
-188
-314
-299
-238
-247
-218
-263
-321
-341
-287
-258
-267
-147
-202
-352
-251
-156
-277
-342
-247
-319
-365
-210
-257
-349
-303
-248
-264
-314
-234
-268
-320
-245
-343
-352
-201
-225
-328
-272
-171
-297
-356
-146
-58
-242
-215
-64
-157
-121
-37
-90
-103
-5
37
-49
7
-50
-280
-251
-176
-315
-333
-196
-265
-384
-341
-316
-424
-341
-236
-363
-343
-273
-306
-334
-231
-191
-365
-349
-283
-432
-443
21
830
1638
2421
2408
1265
328
-46
-379
-399
-110
-77
-135
-12
24
-147
-144
-7
-111
-100
64
-24
-152
-2
57
-85
21
84
-16
86
174
108
35
119
195
142
186
260
271
315
435
408
390
616
625
646
849
836
888
1004
1037
1061
1056
1158
1219
1066
1072
1121
901
753
713
473
270
282
175
26
25
7
-125
-175
-165
-208
-272
-276
-253
-296
-313
-279
-291
-377
-269
-229
-406
-291
-158
-307
-240
-81
-258
-322
-111
-107
-262
-227
-212
-272
-126
-110
-283
-230
-210
-285
-217
-148
-186
-302
-325
-175
-201
-340
-192
-280
-405
-166
-203
-356
-320
-241
-239
-361
-321
-263
-383
-324
-199
-300
-376
-317
-295
-309
-291
-307
-419
-326
-200
-286
-313
-307
-333
-408
-318
-196
-348
-278
-212
-292
-159
-125
-210
-158
-71
-217
-239
83
105
-103
-123
-212
-390
-404
-336
-454
-452
-270
-286
-415
-376
-249
-424
-453
-289
-365
-456
-441
-432
-539
-489
-219
-362
-642
-478
-431
-193
698
1714
2454
2498
1515
253
-302
-318
-327
-212
-42
-107
-155
-101
-93
-137
-199
-107
-100
-261
-57
-10
-218
-141
-21
-79
-55
47
-34
-91
26
111
72
104
165
209
302
275
273
365
461
468
467
647
740
805
927
1021
995
1031
1219
1192
1143
1335
1348
1151
1143
1100
841
625
537
358
141
127
102
-52
-100
-72
-258
-373
-170
-135
-345
-270
-213
-333
-246
-233
-366
-355
-197
-232
-372
-293
-181
-289
-349
-249
-217
-268
-213
-132
-217
-232
-124
-153
-248
-150
-151
-339
-214
-59
-327
-340
-169
-284
-311
-203
-223
-310
-197
-183
-361
-277
-215
-288
-355
-306
-198
-309
-331
-268
-305
-356
-292
-301
-386
-253
-259
-407
-296
-290
-404
-365
-325
-424
-427
-158
-165
-371
-273
-213
-345
-336
-248
-289
-291
-211
-362
-420
-202
-192
-316
-225
-125
-277
-267
-112
-238
-261
-59
-137
-258
12
126
-230
-122
83
-117
-23
102
62
60
216
171
-105
-223
-191
-113
-229
-330
-233
-239
-226
-160
-244
-337
-266
-228
-301
-138
-36
-296
-369
-188
-150
-277
-424
-454
-421
-129
681
1661
2506
2886
2020
597
47
-73
-307
-187
93
48
30
85
-27
-131
-36
-21
-110
19
43
-53
-42
-15
15
-13
69
157
-37
-46
200
210
164
173
138
300
356
287
394
494
493
485
634
754
726
854
1015
1016
1045
1103
1176
1271
1343
1405
1304
1247
1293
1135
937
835
722
487
388
320
94
-3
-6
-136
-272
-190
-100
-244
-239
-110
-280
-294
-131
-274
-244
-80
-208
-269
-165
-131
-233
-257
-144
-178
-219
-155
-146
-230
-280
-132
-169
-295
-201
-231
-258
-150
-177
-298
-232
-203
-275
-202
-192
-183
-201
-245
-200
-226
-226
-191
-306
-281
-203
-259
-242
-239
-254
-361
-280
-80
-272
-292
-225
-348
-320
-246
-272
-316
-247
-240
-327
-342
-235
-242
-246
-131
-223
-340
-201
-200
-437
-328
-98
-211
-250
-107
-134
-295
-225
-45
-156
-213
-72
-90
-149
-16
-19
-131
22
88
-183
-101
185
18
33
267
114
-59
-34
-152
-288
-279
-137
-83
-240
-136
-105
-380
-319
-154
-270
-294
-236
-196
-186
-166
-184
-325
-204
-146
-452
-579
-188
458
1309
2425
2793
1778
556
126
-108
-311
-202
-117
22
111
40
5
95
123
-54
-69
84
-26
-53
250
165
-34
78
96
43
185
294
170
185
358
335
229
328
444
345
372
584
547
535
823
795
724
957
1026
988
1076
1270
1346
1265
1317
1448
1412
1356
1291
1189
1019
914
754
419
430
373
104
124
127
-109
-147
-104
-289
-237
13
-138
-343
-150
-120
-273
-313
-243
-133
-203
-231
-246
-303
-188
-84
-159
-185
-109
-212
-251
-97
-92
-195
-136
-90
-282
-269
-88
-150
-161
4
0
-162
-216
-89
-43
-133
-90
-123
-255
-140
-55
-176
-69
26
-152
-158
-53
-166
-235
-59
-94
-293
-139
-68
-238
-179
-169
-316
-224
-89
-165
-243
-169
-167
-292
-260
-117
-183
-251
-127
-195
-266
-181
-155
-230
-199
-56
-182
-250
-103
-180
-306
-204
-139
-280
-273
-103
-185
-261
-138
-168
-178
45
-34
-262
-84
50
-24
-49
19
105
127
179
94
-178
-310
-136
-155
-325
-185
-203
-271
-255
-306
-341
-267
-144
-326
-391
-232
-252
-247
-291
-208
-204
-433
-452
-670
-450
477
1316
2237
2783
2085
593
-191
-273
-559
-500
-113
-68
-238
-205
-155
-336
-245
-54
-206
-230
-41
-37
-166
-45
18
-174
-16
99
-51
110
200
72
132
161
146
253
408
360
244
466
570
465
598
770
816
784
958
1154
1026
1113
1341
1284
1191
1430
1535
1328
1237
1249
1079
824
766
644
371
191
155
51
-28
-52
-166
-189
-211
-337
-373
-264
-327
-316
-237
-357
-355
-265
-311
-445
-466
-302
-245
-379
-266
-212
-399
-413
-250
-288
-347
-275
-342
-365
-402
-319
-211
-341
-356
-356
-391
-283
-287
-343
-314
-366
-465
-432
-283
-315
-386
-392
-359
-323
-346
-364
-459
-387
-262
-304
-421
-354
-318
-470
-383
-285
-372
-395
-306
-395
-516
-303
-220
-380
-349
-307
-358
-273
-137
-281
-375
-207
-195
-293
-261
-141
-169
-152
43
-66
-226
-184
-281
-356
-367
-315
-376
-370
-118
-277
-478
-318
-251
-277
-288
-331
-363
-323
-205
-258
-333
-250
-328
-507
-544
-240
439
1409
2539
2869
1806
587
28
-338
-280
29
-21
18
123
4
-72
-17
-54
-79
58
14
8
76
51
75
-5
31
140
58
112
196
132
99
217
272
234
286
285
299
403
483
510
643
791
735
758
984
1112
1041
1127
1338
1301
1352
1542
1428
1334
1390
1261
1099
989
859
605
375
335
195
-3
25
-40
-260
-202
-144
-284
-283
-269
-333
-345
-304
-320
-385
-302
-305
-393
-268
-248
-401
-379
-261
-206
-350
-427
-221
-268
-365
-217
-223
-333
-262
-204
-245
-202
-191
-262
-228
-203
-290
-242
-105
-179
-394
-344
-182
-218
-334
-243
-182
-386
-343
-285
-384
-293
-237
-331
-306
-206
-351
-422
-209
-182
-386
-349
-180
-272
-329
-233
-290
-321
-206
-269
-349
-249
-158
-247
-308
-195
-216
-341
-276
-186
-318
-335
-156
-166
-168
-93
-146
-176
-105
-96
-190
-95
89
87
101
98
-35
-190
-284
-291
-332
-325
-227
-280
-353
-255
-267
-433
-392
-252
-360
-374
-272
-363
-330
-256
-320
-421
-400
-519
-735
-256
607
1447
2338
2741
1779
373
-51
-202
-380
-130
63
-28
-76
-64
-40
-25
-36
-14
-34
-52
-29
-36
-15
17
-27
-39
118
155
-12
22
163
152
208
262
197
184
328
441
331
457
622
553
626
723
760
850
1002
1136
1153
1174
1347
1395
1288
1451
1522
1318
1297
1294
987
809
876
598
372
411
181
-53
-50
-58
-125
-121
-123
-263
-275
-162
-275
-343
-187
-169
-270
-211
-142
-286
-298
-127
-186
-256
-144
-178
-304
-206
-103
-234
-247
-134
-171
-251
-164
-135
-293
-214
-141
-257
-318
-282
-221
-267
-214
-178
-291
-221
-202
-349
-336
-227
-274
-369
-268
-273
-373
-317
-215
-327
-394
-210
-278
-370
-182
-237
-420
-328
-269
-296
-299
-279
-309
-333
-290
-354
-381
-260
-222
-302
-270
-216
-306
-378
-225
-161
-361
-317
-223
-308
-266
-98
-141
-280
-74
18
-281
-155
116
-54
-45
140
77
-138
-214
-253
-347
-285
-199
-321
-328
-162
-307
-451
-256
-217
-353
-335
-298
-307
-291
-248
-323
-360
-201
-277
-582
-562
-94
563
1462
2391
2480
1445
382
-68
-267
-332
-296
-164
-15
19
-37
-79
37
28
-92
6
47
2
31
87
37
-32
117
135
1
44
132
73
64
239
264
201
215
278
348
401
422
436
520
609
656
663
796
912
892
971
1107
1057
1039
1231
1240
1080
1179
1209
850
730
732
503
349
284
159
-55
-68
-62
-195
-295
-342
-280
-296
-346
-413
-374
-224
-403
-545
-364
-279
-378
-370
-301
-411
-417
-298
-368
-431
-318
-284
-325
-321
-276
-302
-366
-305
-316
-370
-329
-289
-325
-384
-322
-328
-429
-394
-326
-432
-421
-243
-347
-419
-342
-386
-419
-325
-292
-432
-368
-363
-468
-359
-321
-340
-391
-416
-349
-382
-343
-283
-409
-369
-311
-400
-359
-287
-296
-344
-348
-328
-364
-359
-268
-335
-361
-161
-208
-351
-200
-130
-250
-201
-110
-179
-116
25
-40
-110
-68
-180
-376
-327
-291
-368
-389
-381
-386
-426
-346
-309
-416
-383
-289
-382
-469
-367
-344
-442
-363
-294
-438
-550
-558
-552
-76
994
1928
2530
2346
1078
10
-263
-299
-361
-267
-84
-65
-80
-109
-77
-74
-138
-10
-47
-173
-37
-23
-119
-5
79
-67
-25
156
44
-38
96
125
80
136
214
218
302
318
279
418
565
570
539
693
761
717
872
1032
1021
961
1165
1248
1134
1223
1219
1079
1033
1006
776
487
468
420
111
2
-69
-267
-196
-140
-353
-381
-278
-431
-469
-366
-406
-424
-457
-422
-361
-423
-392
-425
-450
-352
-356
-400
-393
-358
-351
-431
-387
-287
-385
-335
-238
-359
-354
-245
-333
-391
-306
-311
-346
-324
-336
-375
-383
-327
-375
-412
-332
-370
-396
-435
-390
-313
-357
-414
-489
-387
-278
-343
-411
-392
-373
-452
-437
-332
-399
-437
-316
-366
-473
-347
-258
-388
-367
-246
-367
-442
-310
-352
-442
-316
-284
-371
-410
-346
-328
-394
-326
-322
-506
-407
-162
-287
-263
-78
-196
-268
-118
-80
-236
-242
-166
-134
-61
22
31
-43
-90
-240
-353
-225
-154
-316
-374
-235
-294
-406
-268
-256
-334
-263
-317
-424
-298
-217
-322
-315
-224
-342
-591
-560
-372
3
1005
2048
2634
2480
1215
158
-125
-256
-300
-181
-3
15
-84
-164
-89
-43
-150
-144
-46
-112
-112
24
-38
-67
84
13
-58
131
144
6
68
200
161
147
396
328
75
402
524
339
533
691
624
659
783
866
931
1042
1120
1086
1170
1317
1200
1197
1420
1276
1014
1076
1006
647
527
526
293
137
127
6
-187
-164
-119
-319
-293
-161
-257
-304
-263
-299
-361
-260
-258
-437
-373
-160
-291
-421
-253
-312
-388
-270
-254
-295
-282
-247
-284
-306
-188
-246
-320
-143
-180
-329
-247
-238
-328
-351
-300
-316
-303
-198
-276
-406
-408
-315
-250
-277
-324
-312
-373
-365
-321
-509
-458
-238
-312
-363
-278
-324
-431
-392
-326
-388
-347
-274
-362
-341
-274
-337
-352
-356
-376
-384
-328
-271
-421
-402
-235
-382
-405
-294
-351
-296
-207
-198
-338
-372
-270
-387
-415
-235
-220
-315
-245
-139
-147
-192
-117
-111
-293
-114
125
-51
-1
239
62
-89
4
-189
-298
-149
-186
-262
-204
-187
-276
-213
-116
-219
-286
-235
-202
-288
-198
-108
-276
-161
-44
-189
-359
-457
-249
167
934
1986
2540
2206
1196
234
-163
-194
-218
-249
-77
58
48
61
70
49
-32
-5
48
23
81
60
-3
37
142
110
23
149
165
122
217
225
136
174
354
286
253
445
393
434
573
571
634
666
828
878
799
1052
1199
1094
1144
1213
1216
1235
1260
1183
1038
1012
870
624
510
398
267
153
56
-72
-179
-175
-234
-304
-300
-260
-302
-479
-385
-263
-336
-301
-321
-347
-292
-333
-380
-358
-294
-250
-287
-223
-197
-373
-286
-245
-404
-197
-99
-203
-231
-142
-177
-322
-190
-134
-283
-285
-154
-177
-345
-237
-27
-98
-178
-157
-119
-106
-92
-176
-231
-153
-184
-232
-189
-127
-226
-244
-134
-181
-221
-103
-79
-278
-234
-107
-225
-254
-193
-246
-302
-211
-192
-256
-203
-169
-275
-410
-268
-163
-231
-174
-226
-317
-237
-224
-304
-255
-226
-328
-348
-210
-143
-211
-237
-205
-241
-248
-151
-105
-143
-102
-68
-165
-144
-60
-45
29
157
107
19
105
-73
-319
-199
-71
-232
-314
-122
-213
-320
-174
-245
-305
-223
-195
-237
-252
-78
-87
-300
-216
-148
-383
-369
-334
-397
280
1490
2361
2752
2360
958
14
-79
-272
-343
-40
116
-80
-208
-123
-97
-139
-61
-10
-76
-14
39
-76
-14
74
-42
-105
63
147
26
-12
92
158
116
199
229
203
393
366
276
384
568
602
540
687
860
866
966
1124
1041
1149
1358
1289
1188
1327
1373
1255
1298
1158
860
764
778
582
341
381
277
50
-6
-14
-66
-104
-50
-73
-246
-149
-56
-302
-246
-154
-261
-152
-109
-199
-189
-138
-148
-234
-204
-96
-252
-287
-118
-152
-276
-311
-153
-192
-265
-181
-266
-238
-174
-280
-299
-203
-225
-376
-299
-212
-337
-322
-242
-325
-418
-271
-255
-405
-369
-337
-388
-359
-311
-364
-372
-304
-355
-497
-397
-331
-441
-398
-304
-314
-438
-394
-309
-401
-352
-341
-401
-406
-389
-397
-424
-297
-290
-388
-343
-326
-414
-324
-244
-346
-331
-300
-369
-382
-363
-377
-345
-304
-320
-344
-307
-218
-201
-283
-247
-145
-217
-185
-103
-134
-89
18
30
-193
-263
-184
-357
-427
-288
-310
-413
-341
-303
-356
-399
-360
-373
-447
-337
-387
-450
-258
-322
-493
-296
-337
-564
-471
-383
10
938
2055
2759
2271
989
76
-353
-492
-338
-358
-328
-145
-193
-324
-230
-89
-290
-429
-196
-210
-347
-163
-127
-309
-245
-92
-157
-221
-151
-49
-82
-48
32
-117
-4
190
75
246
391
223
268
521
579
553
715
745
771
922
1007
1062
1145
1261
1265
1222
1232
1222
1118
990
859
685
521
349
201
92
71
49
-164
-231
-167
-326
-377
-247
-295
-346
-219
-299
-381
-288
-246
-208
-219
-188
-223
-275
-159
-105
-147
-173
-117
-156
-193
-51
-123
-199
-4
-54
-223
-149
-141
-196
-144
-72
-83
-126
-218
-177
-185
-192
-75
-309
-326
-214
-241
-249
-384
-284
-223
-243
-166
-249
-269
-199
-265
-342
-264
-149
-253
-268
-110
-264
-270
-114
-325
-257
-123
-307
-292
-194
-226
-298
-264
-262
-325
-310
-227
-323
-461
-401
-422
-417
-428
-490
-387
-449
-453
-295
-354
-375
-315
-375
-382
-267
-263
-226
-206
-280
-173
17
7
-260
-375
-326
-445
-512
-422
-345
-359
-381
-325
-397
-464
-295
-268
-442
-402
-228
-360
-412
-207
-270
-403
-499
-615
-533
-25
957
1934
2654
2518
1117
-19
-76
-170
-403
-203
-20
-101
-54
78
-86
-253
72
162
-99
-14
99
-30
-7
161
94
31
96
90
118
169
198
195
206
317
316
190
368
518
324
474
579
471
701
775
735
966
1097
1035
1065
1205
1290
1287
1393
1510
1362
1221
1243
1110
842
852
718
299
295
392
89
-75
15
-79
-224
-226
-208
-329
-295
-221
-400
-383
-186
-334
-426
-165
-216
-361
-271
-204
-353
-403
-170
-209
-355
-234
-158
-267
-177
-165
-334
-253
-123
-154
-279
-217
-107
-287
-285
-101
-220
-328
-190
-148
-176
-183
-203
-232
-170
-72
-256
-309
-95
-97
-294
-250
-112
-242
-155
-51
-213
-242
-199
-205
-240
-177
-159
-321
-241
-123
-271
-237
-147
-256
-275
-207
-234
-239
-197
-153
-227
-253
-51
-84
-121
43
-13
-92
-62
-32
9
55
201
170
-61
-103
-149
-194
-164
-222
-338
-288
-71
-236
-363
-139
-185
-309
-253
-243
-309
-251
-227
-334
-275
-204
-307
-440
-502
-312
167
1086
2221
2872
2544
1239
232
-116
-270
-189
-217
-102
138
-27
-177
7
36
-99
-40
134
73
-68
11
76
39
95
171
61
105
194
112
175
274
259
176
297
407
357
470
476
456
592
746
740
723
936
989
971
1065
1223
1285
1302
1441
1451
1370
1417
1339
1133
1094
958
624
457
454
265
66
46
12
-101
-152
-174
-318
-338
-216
-280
-273
-189
-285
-335
-368
-318
-309
-292
-158
-335
-401
-238
-308
-377
-294
-284
-317
-289
-205
-211
-256
-169
-231
-339
-218
-188
-297
-347
-265
-265
-296
-152
-176
-322
-294
-188
-266
-346
-251
-303
-355
-257
-241
-313
-244
-157
-296
-331
-284
-279
-203
-200
-223
-262
-245
-168
-304
-311
-136
-270
-315
-183
-191
-247
-281
-180
-116
-149
-119
-93
-121
-106
-59
-67
-63
61
59
87
230
73
-166
-242
-271
-267
-188
-122
-211
-282
-223
-295
-376
-241
-201
-269
-217
-184
-228
-226
-205
-225
-216
-219
-293
-454
-388
62
730
1770
2792
2937
1843
661
131
-241
-258
-6
43
18
133
103
-18
13
59
48
-7
56
40
-21
129
54
-97
99
190
44
60
157
140
166
248
213
270
354
296
331
428
482
558
623
718
770
765
942
1032
1001
1213
1330
1257
1357
1534
1411
1323
1467
1325
1053
1021
946
617
424
400
214
63
116
27
-203
-164
-105
-299
-260
-156
-276
-293
-264
-313
-321
-246
-162
-251
-311
-246
-297
-277
-239
-236
-285
-350
-193
-245
-346
-195
-264
-344
-215
-239
-382
-264
-184
-344
-257
-196
-381
-343
-175
-236
-348
-318
-262
-316
-430
-324
-220
-296
-281
-318
-376
-288
-335
-435
-344
-296
-339
-320
-220
-272
-433
-400
-305
-392
-381
-250
-319
-402
-310
-283
-378
-334
-279
-429
-428
-287
-373
-349
-309
-408
-305
-296
-387
-341
-271
-245
-338
-346
-240
-216
-259
-193
-66
-98
-123
-95
-196
-343
-431
-445
-438
-380
-288
-394
-402
-328
-453
-393
-286
-376
-428
-337
-257
-328
-357
-250
-204
-309
-388
-485
-512
-54
842
1676
2412
2561
1390
265
-41
-310
-426
-210
-63
-67
-15
31
-85
-150
-12
50
-10
-38
-31
-60
-12
102
25
-19
118
112
2
123
244
96
115
245
217
210
331
387
314
425
506
478
638
785
737
761
931
901
835
1110
1281
1140
1149
1263
1141
1052
1119
943
692
627
510
256
149
173
-71
-229
-61
-233
-359
-207
-275
-332
-314
-313
-378
-403
-263
-354
-515
-344
-322
-419
-353
-347
-432
-443
-276
-309
-459
-347
-218
-311
-373
-278
-319
-369
-254
-236
-312
-248
-191
-350
-336
-215
-310
-335
-227
-266
-314
-241
-288
-379
-325
-260
-320
-398
-334
-314
-382
-291
-371
-494
-358
-292
-296
-322
-320
-330
-336
-250
-297
-404
-398
-295
-330
-483
-348
-286
-386
-357
-407
-525
-428
-210
-315
-418
-241
-318
-458
-216
-90
-240
-251
-84
-148
-320
-195
-167
-277
-74
90
-44
-95
-212
-388
-361
-342
-318
-351
-403
-331
-419
-383
-343
-562
-488
-330
-379
-460
-440
-433
-457
-330
-281
-406
-524
-582
-512
-186
666
1741
2490
2609
1545
72
-416
-309
-355
-306
-116
-76
-155
-131
-151
-240
-164
-100
-171
-188
-188
-238
-155
-70
-40
-77
-133
-41
-26
-86
-17
46
60
107
142
100
146
314
311
246
416
575
514
646
837
756
838
1034
1011
958
1127
1300
1233
1253
1310
1157
1029
1004
886
622
442
371
186
24
-42
-170
-251
-212
-264
-354
-346
-368
-386
-377
-364
-412
-413
-377
-444
-462
-416
-420
-507
-466
-327
-439
-515
-381
-439
-458
-402
-485
-475
-422
-457
-483
-461
-420
-451
-478
-380
-393
-455
-437
-474
-484
-440
-384
-415
-507
-486
-385
-455
-496
-391
-491
-504
-422
-492
-446
-417
-500
-536
-496
-434
-492
-423
-361
-534
-498
-421
-450
-433
-413
-326
-452
-504
-291
-398
-521
-391
-362
-494
-534
-364
-306
-392
-374
-384
-465
-403
-414
-579
-480
-314
-399
-406
-289
-336
-444
-283
-160
-337
-352
-188
-232
-273
-108
-102
-97
33
-37
-233
-320
-305
-427
-510
-370
-383
-539
-371
-299
-574
-509
-332
-463
-493
-410
-449
-491
-414
-356
-403
-397
-409
-497
-619
-582
-195
542
1644
2605
2772
1768
514
-145
-448
-365
-187
-151
-99
1
-77
-172
-39
-77
-172
-34
-107
-251
-98
1
-140
-91
14
-127
-89
30
-3
-22
39
145
149
214
295
158
203
384
391
402
496
628
655
681
850
963
1077
1165
1121
1163
1259
1228
1287
1444
1350
1101
1003
946
717
555
482
352
249
49
-113
-131
-142
-184
-320
-382
-314
-281
-385
-402
-300
-387
-459
-331
-355
-460
-379
-380
-432
-381
-332
-318
-342
-265
-264
-430
-357
-204
-363
-375
-235
-350
-381
-276
-268
-364
-371
-265
-351
-373
-261
-330
-318
-217
-269
-411
-335
-250
-414
-370
-234
-343
-379
-267
-264
-347
-297
-280
-429
-336
-271
-362
-267
-269
-349
-298
-299
-352
-358
-352
-289
-324
-338
-262
-354
-353
-245
-271
-305
-315
-307
-260
-194
-212
-300
-270
-198
-198
-282
-167
-127
-387
-297
-84
-164
-267
-159
-84
-228
-144
29
-146
-280
-55
11
-57
69
117
165
188
46
-101
-151
-139
-192
-181
-119
-140
-250
-211
-29
-182
-250
-100
-186
-224
-125
-160
-231
-145
-80
-163
-186
-141
-266
-425
-197
411
1214
2200
2840
2187
838
183
-94
-321
-186
-37
-30
130
200
117
113
151
145
56
118
187
26
53
223
170
159
269
222
143
249
309
255
289
422
359
310
534
443
320
617
736
550
645
880
774
864
1078
975
1037
1270
1275
1200
1349
1396
1249
1283
1336
1175
972
884
745
562
537
447
169
32
91
34
-127
-115
-125
-263
-214
-139
-268
-300
-165
-194
-330
-325
-246
-254
-286
-206
-207
-168
-50
-273
-373
-148
-151
-203
-123
-29
-118
-231
-75
-103
-234
-113
-95
-218
-189
-139
-241
-181
-57
-247
-265
-83
-223
-307
-187
-193
-254
-227
-191
-268
-309
-197
-198
-360
-298
-221
-330
-285
-227
-338
-360
-207
-203
-298
-212
-183
-317
-391
-338
-329
-374
-269
-193
-340
-340
-217
-298
-274
-173
-327
-346
-158
-240
-362
-241
-175
-271
-319
-225
-225
-331
-235
-151
-326
-323
-155
-213
-292
-255
-256
-365
-260
-58
-177
-218
-85
-87
-103
2
-58
-212
-50
59
37
175
207
59
-66
-147
-208
-272
-233
-166
-255
-244
-185
-291
-305
-164
-205
-342
-241
-174
-316
-302
-227
-252
-277
-204
-192
-396
-465
-261
282
1282
2298
2845
2498
1178
54
-246
-189
-221
-143
139
78
-17
51
8
-21
-12
15
16
-59
-29
102
22
-60
129
46
-64
119
74
-46
102
315
265
191
320
225
195
482
458
395
606
606
488
688
891
947
1030
1140
1194
1177
1254
1343
1273
1310
1523
1397
1187
1128
932
755
701
577
326
177
219
84
-62
-39
-126
-232
-193
-189
-331
-278
-188
-255
-357
-302
-173
-243
-276
-186
-261
-343
-163
-174
-255
-139
-258
-330
-160
-178
-294
-216
-179
-215
-152
-161
-188
-223
-188
-113
-250
-265
-136
-230
-274
-200
-214
-225
-265
-231
-274
-356
-260
-282
-359
-258
-242
-338
-266
-170
-275
-356
-194
-251
-399
-218
-164
-316
-272
-157
-244
-283
-187
-148
-249
-277
-174
-275
-254
-132
-200
-326
-300
-162
-215
-157
-147
-301
-211
-110
-220
-256
-166
-177
-209
-88
-91
-233
-216
-172
-196
-205
-118
-144
-216
-86
-52
-124
-131
-85
-51
-10
60
-32
-146
31
64
-105
-6
125
122
160
187
24
-115
-126
-134
-136
-154
-239
-276
-181
-149
-223
-309
-273
-159
-236
-229
-102
-260
-328
-192
-252
-276
-143
-249
-439
-436
-135
465
1417
2464
2892
2352
1105
148
-196
-229
-86
8
42
74
75
40
-40
-12
-24
-16
46
-64
17
170
38
25
193
98
-28
103
179
122
202
350
264
196
388
382
249
394
533
501
551
687
659
684
868
928
953
1075
1174
1210
1295
1373
1318
1338
1470
1316
1120
1175
1078
782
640
549
341
155
209
164
-107
-117
-59
-198
-247
-154
-222
-254
-134
-247
-397
-283
-234
-343
-237
-226
-363
-269
-204
-220
-258
-259
-196
-247
-272
-184
-210
-280
-183
-112
-283
-245
-162
-268
-171
-193
-286
-203
-143
-200
-283
-179
-146
-319
-314
-220
-266
-238
-197
-271
-273
-167
-150
-306
-313
-155
-254
-354
-160
-133
-344
-307
-204
-327
-277
-170
-294
-359
-231
-220
-320
-253
-135
-200
-261
-164
-177
-196
-93
-169
-262
-157
-95
-202
-279
-132
-98
-216
-162
-156
-227
-170
-131
-197
-161
-106
-258
-265
-143
-209
-185
-210
-308
-159
-82
-81
-157
-271
-151
-131
-194
-103
5
-110
-183
-16
-33
-98
-29
-58
0
170
247
209
99
33
-55
-185
-147
-119
-215
-117
-87
-236
-251
-186
-228
-235
-129
-125
-187
-147
-148
-220
-190
-193
-199
-212
-233
-305
-406
-72
639
1453
2297
2687
1841
565
76
-83
-265
-219
-44
17
66
111
105
30
17
133
77
117
195
49
72
217
135
-20
142
260
128
251
252
90
322
439
276
256
384
432
443
528
558
589
724
726
724
871
947
1034
1019
1024
1234
1244
1261
1445
1381
1257
1285
1207
1046
976
906
611
450
463
247
126
165
31
-126
-19
19
-200
-207
-107
-207
-221
-123
-149
-222
-180
-160
-246
-195
-117
-295
-202
30
-92
-216
-101
-2
-157
-178
-10
-106
-232
-83
-126
-194
-41
-64
-204
-156
-56
-114
-133
-68
-58
-217
-200
-102
-226
-145
-67
-243
-259
-138
-121
-257
-260
-132
-231
-225
-62
-209
-356
-168
-159
-390
-296
-176
-222
-199
-221
-256
-243
-166
-183
-265
-238
-162
-178
-224
-149
-141
-213
-145
-156
-286
-214
-214
-348
-217
-104
-230
-272
-172
-215
-304
-138
-57
-245
-233
-102
-228
-266
-147
-204
-223
-181
-216
-199
-223
-153
-124
-228
-152
-53
-107
-118
0
-50
-91
33
10
-52
35
75
47
168
188
-45
-76
49
-102
-216
-112
-120
-218
-221
-123
-172
-193
-117
-246
-305
-185
-197
-261
-213
-104
-167
-213
-19
-248
-538
-353
-270
158
1257
2290
2806
2447
1251
262
-52
-211
-225
-2
93
88
27
-38
34
24
9
60
3
-37
29
52
39
61
152
130
97
186
143
108
163
162
149
290
409
257
267
468
391
394
667
633
572
775
835
860
981
1063
1109
1057
1172
1363
1297
1271
1345
1304
1163
1123
998
712
683
607
322
236
195
22
-152
-120
-92
-239
-244
-168
-305
-405
-250
-223
-328
-248
-257
-389
-276
-227
-383
-331
-226
-297
-282
-198
-284
-361
-238
-188
-317
-275
-190
-320
-339
-193
-262
-380
-271
-251
-408
-329
-238
-364
-320
-192
-277
-431
-341
-310
-471
-347
-236
-395
-511
-342
-237
-479
-396
-313
-483
-448
-389
-489
-514
-363
-427
-506
-381
-346
-468
-450
-299
-393
-461
-302
-341
-498
-382
-311
-465
-359
-237
-436
-472
-320
-315
-341
-318
-338
-379
-414
-358
-323
-319
-305
-404
-429
-307
-287
-440
-359
-184
-354
-387
-253
-367
-405
-218
-266
-386
-339
-316
-262
-279
-228
-262
-374
-243
-213
-285
-143
-36
-220
-269
-84
-129
-216
-73
-81
-153
-50
19
-4
15
153
22
-300
-261
-142
-269
-251
-208
-299
-283
-231
-238
-310
-290
-279
-393
-330
-196
-305
-336
-214
-259
-335
-232
-327
-574
-446
3
770
1811
2734
2895
1776
525
100
-209
-352
-110
8
39
71
-51
-86
35
33
-38
65
88
-7
38
113
59
42
166
143
37
126
209
207
233
288
271
264
342
355
351
503
586
556
618
724
826
803
836
933
1033
1162
1221
1265
1243
1371
1424
1333
1430
1299
1136
1158
1028
781
586
540
385
196
145
83
-13
-125
-81
-113
-233
-187
-209
-279
-250
-219
-228
-228
-215
-179
-216
-207
-154
-268
-298
-164
-170
-200
-100
-176
-205
-82
-160
-192
-96
-167
-278
-194
-55
-128
-232
-148
-139
-227
-163
-87
-215
-231
-141
-243
-321
-148
-139
-252
-147
-145
-284
-260
-257
-339
-286
-248
-235
-308
-269
-226
-359
-305
-168
-182
-287
-220
-188
-286
-183
-175
-313
-224
-151
-298
-350
-231
-226
-267
-203
-195
-295
-273
-186
-252
-218
-163
-197
-241
-315
-193
-184
-268
-128
-224
-352
-175
-217
-315
-201
-191
-254
-240
-223
-239
-199
-182
-284
-271
-122
-133
-258
-220
-132
-230
-216
-42
-47
-101
-36
10
-130
-143
51
-79
-76
182
72
15
-65
-258
-251
-236
-168
-276
-328
-146
-253
-373
-185
-190
-351
-233
-176
-297
-302
-173
-163
-335
-259
-101
-314
-372
-333
-389
40
998
1941
2580
2526
1269
128
-119
-164
-289
-242
70
40
-103
55
17
-126
19
89
13
34
100
53
21
145
200
93
147
281
235
225
265
250
270
374
386
356
472
536
443
496
668
658
661
814
912
906
1018
1157
1091
1140
1306
1308
1266
1398
1439
1297
1299
1196
944
876
846
651
432
380
236
39
84
95
-76
-130
-61
-172
-204
-78
-117
-198
-151
-134
-187
-225
-161
-135
-267
-205
-105
-167
-175
-59
-99
-199
-117
-195
-201
-24
-92
-289
-226
-34
-130
-226
-106
-169
-308
-171
-94
-215
-196
-176
-255
-295
-248
-236
-258
-160
-201
-348
-218
-152
-296
-282
-252
-315
-268
-277
-302
-209
-215
-279
-325
-309
-163
-210
-312
-218
-208
-214
-151
-193
-293
-217
-135
-257
-278
-213
-257
-261
-219
-144
-244
-319
-224
-274
-286
-180
-180
-312
-262
-123
-221
-254
-160
-265
-303
-145
-175
-269
-236
-209
-269
-232
-96
-161
-266
-177
-158
-284
-186
-81
-202
-187
-70
-233
-306
-47
-66
-141
-41
3
-74
-52
6
-128
-40
135
116
104
158
181
56
-102
-81
-177
-287
-135
-84
-217
-202
-131
-224
-207
-138
-246
-281
-167
-183
-271
-225
-201
-228
-211
-179
-181
-343
-369
-171
358
1450
2496
2959
2403
1075
140
-119
-117
-108
-35
55
43
-2
-13
85
54
-50
55
98
-41
26
150
4
21
192
139
41
108
107
10
139
236
101
153
303
221
231
408
450
454
494
498
615
732
822
875
847
1056
1132
1006
1159
1200
1127
1291
1306
1142
1128
1098
913
751
652
478
187
104
127
-37
-135
-105
-210
-344
-314
-283
-349
-372
-342
-368
-368
-309
-280
-363
-403
-384
-394
-395
-305
-296
-434
-311
-235
-336
-310
-305
-355
-344
-218
-324
-429
-262
-352
-434
-205
-220
-389
-419
-344
-375
-432
-307
-347
-374
-301
-344
-377
-361
-318
-347
-411
-447
-412
-359
-355
-319
-418
-486
-325
-339
-446
-354
-341
-417
-388
-282
-414
-486
-288
-381
-499
-342
-308
-407
-339
-277
-370
-364
-200
-229
-422
-316
-238
-381
-290
-201
-352
-368
-254
-336
-338
-248
-371
-428
-281
-239
-367
-326
-220
-319
-357
-234
-279
-316
-223
-279
-360
-338
-318
-265
-221
-253
-270
-271
-220
-151
-179
-145
-54
-187
-238
-63
20
-21
-133
-39
124
81
45
-56
-208
-157
-198
-369
-214
-127
-296
-255
-205
-323
-318
-213
-208
-284
-296
-242
-331
-342
-120
-141
-259
-218
-305
-481
-383
151
952
1946
2849
2965
1845
612
141
-195
-234
84
88
12
140
55
-48
61
15
-57
65
133
-25
-7
200
28
23
179
124
102
92
173
168
218
304
221
229
356
432
380
475
596
408
497
800
760
736
945
1036
985
1145
1243
1160
1327
1414
1315
1378
1434
1301
1145
1128
980
731
589
538
331
135
154
18
-105
-73
-126
-226
-275
-237
-241
-335
-268
-219
-332
-298
-215
-363
-375
-198
-265
-307
-198
-263
-310
-237
-217
-270
-277
-167
-236
-324
-230
-255
-326
-251
-179
-290
-326
-217
-302
-312
-195
-324
-422
-302
-190
-267
-363
-233
-221
-370
-363
-311
-323
-309
-276
-315
-279
-264
-349
-325
-286
-278
-354
-324
-238
-364
-322
-232
-329
-317
-259
-303
-262
-222
-273
-348
-326
-224
-307
-403
-206
-241
-452
-281
-202
-378
-318
-206
-357
-408
-267
-206
-397
-356
-157
-363
-357
-187
-361
-352
-248
-288
-269
-237
-268
-339
-240
-117
-241
-384
-273
-203
-270
-216
-145
-208
-237
-178
-164
-103
-27
-56
-109
-86
-30
-33
93
147
64
82
23
-103
-204
-139
-76
-240
-237
-152
-270
-261
-206
-255
-254
-226
-159
-250
-372
-241
-183
-243
-164
-115
-199
-309
-421
-448
-90
763
1713
2449
2615
1718
482
-9
-80
-264
-254
15
64
-73
27
96
-131
-74
51
-86
29
181
51
-36
42
32
33
196
176
140
219
177
156
215
328
242
93
342
499
357
431
572
569
599
719
808
787
974
1117
1046
1164
1295
1264
1230
1364
1418
1287
1305
1168
968
971
871
646
449
364
254
106
63
27
-101
-145
-164
-258
-206
-142
-213
-321
-288
-177
-262
-306
-238
-274
-312
-219
-195
-250
-235
-261
-237
-181
-147
-162
-211
-155
-193
-263
-139
-155
-273
-214
-95
-171
-249
-134
-120
-229
-227
-195
-210
-163
-133
-239
-281
-139
-177
-338
-264
-160
-252
-235
-234
-280
-162
-163
-262
-278
-239
-225
-288
-304
-211
-235
-295
-275
-288
-345
-271
-174
-263
-237
-157
-261
-316
-210
-255
-328
-184
-182
-330
-284
-170
-211
-259
-213
-278
-313
-190
-151
-324
-334
-127
-207
-244
-117
-239
-295
-153
-197
-291
-234
-169
-220
-237
-221
-229
-242
-272
-117
-137
-185
-45
-86
-86
-17
-38
-51
-50
-43
-35
53
166
78
49
62
-128
-281
-188
-55
-177
-248
-149
-250
-295
-133
-234
-322
-134
-176
-269
-199
-124
-205
-342
-216
-168
-264
-263
-324
-506
-314
442
1268
2161
2927
2498
1063
186
-2
-231
-313
7
103
-37
58
34
-82
33
85
-35
-1
59
57
109
129
73
93
142
128
164
229
208
195
194
213
285
250
354
486
416
439
576
522
483
728
871
827
928
1054
1077
1192
1292
1234
1309
1430
1329
1344
1488
1315
1035
997
831
614
568
463
288
86
51
29
-126
-108
-66
-227
-311
-211
-246
-362
-305
-298
-380
-272
-163
-378
-422
-140
-233
-373
-276
-232
-293
-315
-223
-249
-288
-219
-275
-368
-237
-240
-294
-254
-191
-195
-298
-229
-211
-300
-317
-288
-318
-333
-234
-352
-410
-241
-349
-424
-200
-205
-396
-354
-285
-322
-329
-273
-299
-414
-334
-269
-418
-400
-272
-322
-337
-281
-352
-384
-276
-281
-439
-336
-176
-352
-377
-173
-244
-439
-297
-211
-358
-326
-254
-333
-321
-205
-315
-431
-206
-150
-337
-310
-245
-290
-252
-185
-295
-331
-230
-305
-351
-207
-194
-328
-286
-154
-328
-369
-158
-194
-372
-353
-156
-188
-210
-116
-184
-223
-142
-123
-241
-202
-104
-126
-97
-17
82
55
73
23
-284
-317
-201
-339
-275
-145
-326
-384
-283
-269
-343
-339
-307
-391
-349
-206
-309
-355
-178
-237
-358
-284
-296
-497
-563
-227
371
1266
2386
2927
2340
1060
191
-174
-374
-236
-97
-64
1
-19
-94
-60
-32
-101
-145
-20
22
-119
-53
22
-112
-19
175
34
-2
148
71
8
188
258
105
144
338
339
295
406
434
419
599
652
613
847
990
898
958
1139
1238
1214
1220
1350
1365
1362
1448
1261
1037
1008
818
612
559
377
158
81
89
-6
-190
-175
-203
-365
-268
-187
-455
-381
-144
-375
-431
-259
-387
-425
-228
-296
-446
-418
-330
-341
-391
-291
-265
-360
-338
-283
-385
-355
-221
-317
-334
-313
-379
-326
-291
-316
-374
-378
-313
-380
-382
-258
-289
-441
-372
-264
-433
-362
-219
-431
-453
-282
-383
-471
-322
-309
-429
-411
-279
-334
-424
-288
-292
-398
-322
-251
-409
-411
-255
-358
-418
-329
-312
-382
-376
-264
-341
-348
-239
-394
-378
-178
-267
-357
-268
-223
-347
-388
-208
-267
-332
-202
-270
-351
-229
-203
-290
-200
-156
-264
-311
-230
-216
-323
-215
-132
-255
-275
-164
-172
-188
-87
-106
-197
-116
25
-54
-22
59
-28
38
181
-23
-290
-209
-195
-306
-252
-151
-247
-272
-150
-260
-313
-190
-178
-223
-237
-196
-294
-374
-205
-191
-336
-248
-178
-350
-422
-417
-215
544
1559
2357
2585
1903
742
9
-233
-296
-332
-218
6
-24
-145
-90
6
-51
-37
34
-110
-108
63
-29
-36
103
20
-9
79
119
95
62
169
219
140
227
307
239
324
410
393
460
623
619
495
749
938
842
953
1092
1125
1125
1206
1333
1359
1366
1349
1247
1174
1071
875
740
662
481
274
237
193
-53
-165
-45
-97
-189
-144
-183
-278
-256
-238
-319
-261
-211
-358
-296
-139
-177
-325
-286
-161
-278
-286
-207
-308
-286
-170
-200
-203
-155
-191
-275
-195
-145
-271
-277
-165
-185
-292
-248
-171
-311
-287
-154
-289
-305
-228
-333
-394
-269
-226
-324
-315
-266
-335
-332
-315
-390
-327
-197
-267
-418
-359
-293
-347
-269
-211
-340
-390
-245
-294
-410
-282
-229
-423
-355
-178
-329
-319
-165
-192
-302
-304
-209
-250
-362
-234
-186
-301
-248
-228
-317
-350
-313
-318
-251
-152
-302
-325
-145
-199
-309
-328
-299
-284
-338
-236
-211
-307
-259
-321
-355
-226
-200
-200
-110
-54
-153
-207
-51
-18
-59
78
118
17
34
192
49
-194
-106
-126
-302
-235
-118
-254
-286
-135
-153
-281
-223
-186
-277
-216
-174
-283
-306
-143
-179
-326
-168
-107
-333
-415
-328
-326
149
1238
2077
2713
2752
1485
313
-24
-175
-277
-132
103
10
-95
58
110
-62
-96
-1
-40
-15
54
18
32
164
159
21
30
98
107
136
249
214
143
259
272
222
336
403
345
441
632
605
596
770
921
981
1028
1149
1151
1189
1402
1395
1381
1475
1420
1329
1299
1260
1043
820
726
541
314
313
260
-11
-16
-26
-226
-211
-161
-250
-332
-279
-249
-363
-381
-269
-316
-374
-322
-361
-337
-252
-270
-387
-347
-232
-339
-370
-288
-281
-308
-274
-244
-338
-322
-266
-329
-323
-273
-323
-333
-266
-362
-427
-315
-300
-388
-368
-315
-375
-425
-389
-353
-348
-330
-317
-358
-408
-364
-372
-450
-362
-307
-399
-362
-303
-434
-447
-299
-358
-397
-294
-346
-466
-387
-267
-377
-405
-238
-334
-453
-273
-255
-378
-273
-189
-326
-364
-260
-279
-332
-263
-261
-283
-245
-249
-362
-355
-223
-315
-355
-278
-210
-285
-316
-216
-355
-358
-129
-250
-385
-202
-264
-415
-261
-157
-258
-231
-190
-190
-77
-45
-118
-134
-62
-36
-126
-53
154
105
33
70
-85
-230
-146
-130
-232
-231
-137
-166
-265
-140
-148
-302
-174
-144
-264
-252
-166
-98
-191
-242
-202
-229
-222
-228
-419
-439
77
877
1855
2853
3008
1840
673
220
-99
-210
-46
67
31
25
95
67
26
29
-80
-40
125
78
-26
111
204
65
57
171
163
135
211
204
248
366
300
227
295
427
388
334
569
625
564
736
775
816
967
1014
1106
1136
1234
1380
1294
1468
1590
1396
1401
1422
1241
1114
1048
823
591
471
325
150
85
50
-34
-119
-125
-168
-280
-209
-229
-327
-286
-273
-296
-276
-282
-377
-376
-241
-218
-313
-275
-236
-315
-310
-254
-272
-254
-218
-247
-275
-265
-196
-178
-315
-290
-184
-332
-274
-150
-273
-256
-205
-294
-300
-147
-224
-354
-256
-287
-312
-212
-219
-314
-309
-218
-259
-405
-310
-201
-334
-274
-171
-275
-236
-120
-257
-418
-249
-161
-298
-224
-225
-283
-238
-247
-252
-328
-299
-215
-298
-267
-215
-267
-201
-170
-283
-311
-166
-166
-229
-198
-142
-141
-214
-128
-174
-281
-174
-160
-241
-165
-66
-123
-213
-211
-152
-111
-71
-114
-172
-116
-29
-190
-235
3
-132
-137
144
2
-123
-19
22
13
42
121
118
111
186
162
-8
-103
-49
-153
-199
-16
-116
-191
-85
-113
-177
-158
-92
-175
-218
-143
-167
-211
-159
-147
-222
-128
-19
-157
-232
-276
-302
216
1101
1937
2632
2668
1595
428
-36
-145
-196
-156
104
170
57
123
125
-12
-19
117
156
105
144
130
18
80
242
216
176
227
234
210
240
334
302
313
443
353
327
540
575
529
737
792
675
820
998
997
1077
1315
1286
1207
1369
1397
1378
1450
1489
1410
1337
1346
1146
932
807
629
490
356
303
196
-4
8
-7
-177
-134
-146
-316
-256
-194
-308
-253
-153
-258
-275
-176
-227
-373
-281
-175
-237
-190
-163
-271
-286
-178
-126
-292
-298
-100
-172
-264
-193
-182
-279
-231
-108
-169
-218
-181
-219
-184
-170
-329
-312
-121
-173
-286
-223
-247
-298
-304
-275
-232
-313
-238
-150
-292
-298
-300
-325
-219
-195
-228
-357
-319
-207
-369
-294
-160
-334
-355
-218
-275
-299
-179
-226
-373
-288
-210
-310
-302
-278
-298
-294
-216
-198
-397
-308
-170
-408
-349
-143
-311
-347
-231
-260
-313
-313
-231
-246
-358
-296
-224
-364
-182
-45
-338
-314
-164
-190
-215
-138
-27
-188
-228
-23
-81
-115
7
-94
-133
101
154
-16
-85
-148
-222
-239
-251
-298
-279
-155
-247
-362
-321
-224
-174
-253
-401
-394
-245
-176
-265
-342
-229
-223
-299
-357
-421
-488
-347
316
1129
1981
2882
2614
1175
209
-87
-283
-275
-9
34
-107
-35
-18
-151
-141
-14
-90
-87
116
71
-7
62
141
117
83
120
64
85
136
88
108
180
283
286
251
341
333
401
541
528
594
746
819
780
929
1072
991
1104
1272
1316
1265
1292
1458
1408
1348
1382
1172
1008
1022
692
369
431
295
42
66
75
-145
-284
-186
-204
-329
-271
-239
-330
-316
-254
-325
-417
-353
-382
-480
-350
-239
-362
-420
-265
-359
-459
-267
-241
-336
-292
-254
-340
-315
-253
-342
-361
-210
-220
-407
-337
-251
-359
-301
-241
-390
-381
-223
-358
-414
-215
-348
-504
-360
-264
-332
-389
-308
-337
-392
-266
-351
-493
-354
-273
-362
-365
-252
-363
-476
-308
-286
-357
-295
-327
-363
-316
-322
-314
-333
-270
-252
-395
-260
-135
-380
-452
-166
-251
-410
-173
-263
-442
-289
-234
-343
-327
-210
-320
-420
-237
-182
-289
-232
-233
-341
-300
-175
-259
-368
-242
-197
-296
-198
-104
-261
-162
23
-168
-195
-44
-118
-102
-6
20
19
73
205
51
-221
-218
-162
-250
-272
-240
-240
-241
-251
-221
-249
-199
-209
-311
-173
-131
-287
-236
-80
-191
-311
-216
-259
-421
-435
-139
461
1425
2501
3017
2348
998
245
-114
-249
-33
56
4
59
12
2
111
4
-109
2
114
16
47
221
81
-29
207
242
92
185
263
187
149
306
324
176
393
517
293
376
664
608
597
846
809
834
1041
1051
1124
1198
1263
1309
1413
1608
1479
1461
1729
1550
1267
1284
1183
847
593
532
350
184
89
-65
-160
-173
-205
-331
-404
-370
-438
-523
-440
-440
-470
-377
-443
-434
-410
-520
-482
-433
-243
-199
-394
-441
-359
-307
-328
-290
-367
-368
-274
-371
-468
-325
-147
-345
-516
-358
-314
-319
-285
-426
-461
-256
-307
-439
-340
-295
-303
-300
-396
-429
-393
-432
-334
-303
-379
-358
-268
-367
-449
-342
-403
-309
-211
-276
-330
-312
-304
-375
-222
-228
-353
-256
-236
-321
-287
-266
-339
-334
-291
-263
-286
-299
-262
-259
-311
-327
-309
-294
-200
-183
-342
-345
-265
-285
-314
-184
-143
-276
-125
-36
-151
-170
-57
-78
-257
-130
-61
-58
158
124
-4
-29
-162
-307
-331
-282
-245
-347
-280
-193
-377
-382
-303
-323
-300
-317
-331
-293
-293
-345
-354
-238
-256
-422
-434
-447
-464
10
973
1897
2619
2703
1522
197
-189
-269
-372
-321
-88
57
-47
-54
-6
-132
-126
104
-10
-181
36
9
-144
13
23
-21
98
107
109
129
154
159
144
250
339
257
275
431
396
419
630
627
558
712
829
873
995
1102
1137
1151
1282
1407
1320
1364
1478
1391
1295
1246
974
729
770
629
351
298
222
-79
-170
-93
-147
-294
-365
-281
-344
-391
-308
-369
-387
-302
-330
-451
-414
-365
-419
-340
-367
-507
-400
-262
-344
-378
-415
-483
-446
-372
-298
-344
-380
-318
-311
-423
-336
-205
-403
-438
-287
-372
-444
-314
-359
-453
-312
-271
-442
-440
-318
-354
-334
-277
-339
-398
-331
-294
-376
-375
-338
-392
-367
-292
-410
-428
-238
-260
-486
-406
-277
-351
-304
-316
-402
-416
-340
-289
-364
-416
-316
-311
-404
-287
-248
-366
-309
-304
-439
-374
-203
-243
-278
-121
-162
-317
-201
-180
-246
-107
-40
-79
-20
97
14
-182
-211
-253
-428
-381
-189
-329
-384
-246
-391
-402
-227
-312
-510
-424
-266
-378
-358
-264
-314
-282
-308
-372
-488
-553
-151
384
1285
2512
2938
2127
837
-10
-321
-308
-217
-152
-88
-28
-99
-86
46
-38
-173
-48
37
-124
-79
47
-89
-61
68
40
-7
59
174
84
71
210
218
191
272
265
190
380
508
377
488
645
610
692
880
962
946
1082
1200
1149
1253
1505
1443
1274
1402
1396
1133
1065
1096
837
534
429
295
128
81
23
-205
-289
-172
-273
-382
-328
-333
-392
-363
-266
-430
-479
-237
-338
-422
-272
-394
-441
-292
-299
-376
-373
-275
-341
-397
-315
-375
-393
-269
-284
-390
-382
-290
-385
-400
-205
-338
-414
-335
-424
-437
-379
-317
-372
-417
-282
-340
-460
-329
-337
-451
-356
-251
-388
-491
-355
-362
-455
-344
-388
-521
-362
-351
-510
-387
-279
-468
-471
-296
-392
-502
-377
-269
-475
-506
-276
-450
-511
-338
-403
-368
-261
-309
-401
-396
-297
-294
-390
-308
-341
-447
-274
-215
-267
-228
-164
-220
-289
-248
-210
-174
-118
-62
-82
-21
78
-134
-495
-489
-334
-414
-402
-325
-401
-475
-439
-518
-561
-386
-386
-513
-494
-402
-427
-515
-388
-433
-590
-438
-570
-763
-522
70
1024
1982
2735
2398
945
89
-275
-646
-507
-167
-195
-240
-19
-157
-407
-196
-154
-272
-145
-169
-284
-240
-157
-105
-106
-56
-67
-182
-146
-27
-39
-41
48
20
-20
175
305
147
241
422
301
408
568
517
605
786
834
767
916
1079
977
1032
1223
1149
1055
1210
1172
791
674
696
448
270
200
80
-102
-199
-208
-316
-324
-322
-520
-536
-398
-453
-479
-394
-453
-536
-514
-450
-464
-557
-491
-462
-456
-332
-309
-442
-474
-318
-410
-522
-355
-385
-456
-319
-354
-466
-374
-381
-466
-408
-339
-370
-445
-432
-425
-439
-378
-373
-415
-394
-294
-377
-529
-306
-291
-512
-407
-343
-422
-331
-232
-411
-458
-395
-429
-429
-393
-316
-384
-416
-276
-329
-424
-322
-323
-329
-310
-315
-339
-461
-403
-321
-404
-407
-281
-327
-330
-250
-379
-343
-265
-361
-346
-225
-268
-368
-356
-222
-158
-149
-135
-178
-138
-76
-122
-258
-103
102
4
40
88
-118
-210
-144
-228
-333
-257
-249
-291
-240
-189
-267
-379
-271
-257
-347
-306
-208
-257
-295
-156
-235
-360
-261
-344
-516
-282
315
1089
2009
2754
2393
1036
282
-52
-323
-180
-180
-77
29
-15
12
-56
-58
-23
-11
49
-15
-82
45
77
4
27
18
10
8
86
229
167
125
290
242
171
303
309
317
457
525
514
593
672
674
810
962
956
1038
1213
1220
1149
1213
1360
1311
1207
1315
1213
1014
938
759
645
486
330
240
56
29
38
-81
-114
-179
-278
-250
-238
-259
-272
-248
-264
-319
-211
-192
-319
-275
-182
-212
-214
-157
-129
-162
-223
-166
-199
-251
-116
-201
-327
-212
-172
-230
-197
-149
-310
-298
-160
-237
-226
-248
-311
-353
-325
-203
-307
-299
-223
-313
-297
-297
-327
-307
-274
-239
-300
-304
-246
-275
-291
-240
-235
-326
-319
-248
-320
-342
-223
-207
-288
-258
-226
-249
-225
-234
-271
-221
-82
-140
-277
-194
-168
-312
-270
-175
-282
-308
-159
-190
-291
-181
-205
-327
-218
-147
-226
-154
-32
-110
-53
95
-75
-171
-20
0
-60
72
175
172
162
133
108
-66
-121
-80
-254
-245
-73
-99
-144
-115
-179
-201
-111
-128
-286
-238
-58
-198
-238
-8
-135
-280
-118
-225
-448
-330
172
1042
2020
2788
2897
1708
434
61
-161
-211
-2
72
44
50
3
41
81
64
-12
-42
138
87
-33
152
204
86
78
178
192
147
275
312
189
239
303
321
417
361
327
505
637
672
629
685
840
885
961
1069
1084
1131
1333
1352
1298
1473
1518
1453
1458
1408
1204
1132
1129
809
593
542
378
195
136
140
34
-54
-3
-92
-234
-172
-180
-255
-186
-60
-210
-296
-83
-199
-314
-97
-113
-249
-203
-110
-150
-211
-92
-133
-308
-151
-34
-164
-164
-170
-211
-171
-158
-151
-195
-144
-92
-222
-198
-92
-185
-257
-190
-164
-221
-227
-226
-258
-198
-185
-307
-338
-255
-209
-346
-356
-189
-285
-227
-207
-354
-219
-209
-311
-264
-190
-210
-299
-287
-203
-244
-260
-232
-276
-273
-196
-235
-332
-209
-153
-288
-328
-209
-174
-260
-219
-149
-243
-213
-102
-257
-285
-90
-174
-262
-96
-29
-151
-116
-20
-118
-126
0
-42
-141
43
216
133
58
-24
-251
-304
-142
-217
-344
-221
-176
-277
-245
-154
-215
-248
-217
-220
-216
-198
-215
-307
-237
-151
-290
-296
-301
-476
-427
61
936
1915
2726
2807
1630
382
13
-199
-307
-31
76
-67
27
84
-61
-58
44
8
-95
59
112
-86
30
57
-70
80
178
31
80
251
205
171
213
300
291
245
344
397
357
456
589
546
610
841
822
824
1071
1085
1075
1271
1242
1154
1398
1484
1308
1284
1321
1207
1052
945
725
490
475
366
89
53
27
-82
-164
-195
-140
-196
-233
-190
-266
-274
-255
-324
-295
-227
-242
-313
-223
-127
-312
-387
-168
-170
-300
-195
-161
-290
-251
-141
-223
-251
-142
-192
-293
-142
-102
-236
-231
-195
-229
-239
-215
-246
-271
-232
-191
-275
-279
-190
-284
-327
-214
-250
-277
-150
-170
-253
-265
-192
-206
-335
-238
-269
-362
-224
-206
-278
-226
-197
-294
-234
-89
-217
-320
-128
-104
-249
-218
-224
-293
-262
-237
-255
-207
-69
-77
-241
-141
-34
-112
-79
-93
-144
-94
32
82
-50
-99
-73
-200
-297
-256
-299
-331
-284
-295
-346
-289
-266
-429
-402
-268
-357
-419
-277
-313
-425
-259
-249
-274
-229
-375
-572
-595
-179
574
1465
2371
2650
1602
307
-75
-191
-390
-297
-157
-136
40
69
-64
-29
2
-119
-85
62
-3
-46
54
137
82
28
15
63
131
163
224
140
211
323
256
319
430
470
433
488
586
599
676
726
755
894
1057
1081
1070
1277
1321
1258
1448
1458
1289
1326
1377
1172
984
992
845
490
354
345
173
24
3
-35
-136
-183
-191
-321
-323
-235
-296
-344
-320
-296
-310
-326
-329
-319
-268
-196
-282
-303
-239
-297
-307
-221
-235
-400
-316
-139
-294
-323
-175
-305
-339
-144
-198
-350
-252
-137
-302
-402
-282
-290
-317
-254
-266
-329
-282
-260
-415
-382
-171
-198
-374
-376
-296
-340
-280
-237
-357
-355
-216
-289
-397
-281
-274
-313
-223
-180
-299
-363
-286
-275
-356
-307
-232
-304
-275
-251
-265
-295
-277
-268
-302
-146
-130
-273
-278
-253
-280
-263
-246
-224
-256
-225
-130
-233
-206
-159
-240
-187
-137
-228
-270
-146
-100
-137
-72
35
-36
-150
-23
-68
-106
100
52
-17
155
251
75
-107
-142
-262
-293
-109
-105
-223
-156
-130
-289
-257
-129
-206
-258
-194
-156
-231
-223
-115
-219
-232
-95
-279
-463
-372
-194
391
1418
2388
2906
2434
1143
209
-62
-182
-127
52
41
90
36
-61
107
17
-49
89
71
45
111
84
26
104
158
86
84
191
225
213
230
278
242
249
352
281
268
451
510
519
683
773
667
722
921
983
1035
1160
1191
1218
1293
1317
1335
1350
1393
1343
1187
1186
1061
693
643
694
405
232
253
76
-31
-9
-156
-233
-232
-292
-325
-261
-188
-216
-287
-305
-268
-349
-377
-265
-238
-222
-136
-260
-384
-224
-227
-379
-254
-184
-337
-249
-120
-201
-283
-234
-216
-320
-277
-165
-259
-322
-252
-293
-335
-218
-163
-396
-374
-175
-323
-383
-229
-323
-450
-279
-331
-469
-362
-292
-338
-329
-255
-325
-401
-324
-263
-369
-397
-246
-295
-338
-243
-334
-372
-275
-261
-339
-336
-229
-295
-326
-205
-260
-363
-291
-265
-297
-238
-254
-311
-284
-196
-211
-405
-382
-240
-271
-218
-176
-295
-275
-217
-279
-287
-147
-43
-167
-167
-80
-141
-129
-117
-144
-129
13
116
14
-3
-75
-236
-203
-141
-236
-304
-194
-130
-280
-216
-137
-359
-314
-127
-231
-301
-193
-233
-317
-204
-175
-325
-318
-277
-431
-353
242
1069
1957
2809
2800
1439
289
19
-196
-268
14
139
-77
-14
116
3
14
121
61
-18
64
112
47
86
159
55
98
250
123
122
256
195
195
277
374
353
326
423
408
384
497
599
607
688
861
819
873
1136
1154
1122
1236
1253
1277
1453
1432
1309
1334
1311
1163
1006
905
742
513
410
370
201
104
125
-22
-191
-138
-106
-258
-204
-112
-282
-296
-201
-254
-332
-271
-250
-301
-200
-137
-247
-357
-295
-237
-312
-221
-184
-293
-221
-187
-262
-221
-266
-269
-207
-228
-191
-243
-266
-170
-243
-403
-316
-189
-256
-239
-235
-344
-274
-178
-321
-355
-208
-267
-381
-277
-219
-339
-316
-223
-282
-293
-237
-264
-311
-277
-241
-293
-234
-255
-382
-194
-106
-273
-348
-276
-255
-320
-221
-227
-353
-360
-274
-229
-264
-210
-214
-298
-253
-183
-229
-275
-180
-224
-363
-231
-173
-301
-241
-140
-220
-254
-145
-136
-187
-111
-126
-196
-92
-49
-131
-81
44
-12
-41
139
-45
-361
-221
-140
-286
-325
-215
-265
-388
-219
-170
-323
-211
-163
-359
-294
-194
-269
-230
-159
-189
-337
-331
-314
-508
-208
615
1420
2285
2709
1902
634
38
-140
-365
-317
2
51
-113
41
110
-80
26
114
-13
13
109
9
-27
67
84
-8
63
200
86
126
233
181
141
242
329
219
307
436
353
422
563
598
614
677
755
817
937
1078
1129
1199
1324
1217
1190
1371
1343
1282
1329
1223
1022
847
771
556
184
227
200
-47
-50
-82
-197
-296
-289
-296
-388
-370
-332
-398
-383
-318
-435
-454
-305
-366
-437
-300
-339
-474
-389
-288
-301
-366
-339
-326
-405
-309
-262
-376
-309
-301
-376
-271
-195
-256
-337
-322
-312
-389
-393
-330
-373
-393
-311
-285
-387
-371
-354
-487
-391
-294
-466
-428
-243
-324
-382
-310
-307
-382
-369
-326
-447
-434
-255
-333
-492
-322
-198
-349
-367
-315
-342
-366
-342
-312
-294
-231
-238
-309
-307
-206
-247
-315
-197
-207
-306
-204
-186
-308
-212
-106
-291
-319
-152
-215
-287
-180
-165
-263
-199
-139
-282
-258
-83
-53
-81
-31
-23
-136
-64
0
-89
14
155
112
90
147
-35
-272
-176
-85
-244
-364
-227
-226
-313
-173
-211
-360
-305
-210
-342
-331
-103
-183
-322
-252
-162
-204
-317
-368
-500
-310
405
1306
2230
2944
2543
947
109
-59
-430
-273
102
25
-90
-27
-31
-137
-123
-3
-74
-88
35
-8
-75
11
80
90
99
108
130
115
116
136
218
268
224
216
302
368
265
337
509
485
543
737
765
715
804
1020
1070
1042
1264
1330
1234
1328
1386
1272
1264
1275
1102
930
890
690
383
336
275
-16
-35
49
-187
-229
-146
-237
-304
-223
-219
-330
-253
-240
-340
-287
-224
-292
-340
-287
-218
-321
-427
-245
-197
-289
-205
-243
-356
-263
-223
-349
-268
-175
-305
-276
-197
-270
-312
-250
-178
-299
-377
-253
-276
-306
-263
-327
-302
-160
-188
-338
-342
-291
-361
-366
-302
-378
-401
-242
-289
-395
-282
-273
-398
-409
-323
-338
-393
-241
-248
-391
-306
-252
-359
-415
-234
-196
-332
-288
-270
-403
-348
-294
-390
-340
-279
-330
-361
-308
-280
-323
-346
-261
-287
-337
-275
-328
-338
-275
-270
-366
-301
-175
-378
-410
-214
-300
-308
-128
-131
-259
-201
-73
-129
-171
-101
-46
-101
31
139
27
-31
-131
-311
-357
-221
-278
-362
-197
-174
-345
-332
-263
-349
-352
-239
-249
-301
-227
-247
-355
-314
-174
-216
-386
-391
-441
-243
554
1482
2391
2937
2286
854
46
-91
-314
-333
23
45
-50
83
18
-107
-109
-26
-51
-126
61
80
-35
49
76
19
27
101
138
24
49
251
133
117
377
304
206
393
370
292
519
609
529
573
790
847
799
1015
1119
1075
1132
1196
1191
1281
1413
1289
1145
1177
1071
838
718
569
333
303
220
-80
-109
-95
-203
-280
-239
-214
-371
-343
-319
-444
-377
-297
-437
-484
-317
-284
-387
-415
-394
-311
-268
-286
-326
-349
-282
-272
-380
-318
-209
-327
-304
-115
-248
-434
-260
-210
-384
-354
-222
-295
-305
-172
-267
-413
-267
-207
-421
-376
-192
-332
-438
-253
-262
-361
-274
-258
-390
-449
-275
-315
-420
-268
-286
-359
-281
-330
-470
-343
-170
-306
-391
-319
-289
-294
-332
-331
-337
-373
-251
-235
-350
-259
-316
-379
-180
-197
-336
-218
-155
-274
-252
-187
-281
-331
-244
-197
-275
-257
-146
-192
-227
-146
-87
-140
-175
-116
-140
-90
56
-48
-110
87
104
8
-58
-166
-276
-288
-180
-261
-294
-171
-265
-322
-185
-198
-316
-289
-204
-237
-299
-205
-227
-395
-250
-122
-320
-328
-284
-479
-218
636
1484
2342
2851
1968
599
55
-138
-234
-236
-2
128
-77
34
149
-23
54
132
-21
18
133
69
33
127
146
89
146
218
151
191
329
304
212
325
422
294
342
491
474
551
719
719
644
800
892
919
1091
1192
1224
1102
1278
1518
1398
1430
1431
1350
1344
1305
1156
970
885
657
411
379
300
66
-63
-20
-120
-187
-85
-186
-316
-224
-229
-366
-355
-273
-298
-321
-219
-240
-437
-353
-217
-323
-292
-224
-280
-289
-160
-175
-343
-268
-124
-265
-306
-154
-192
-217
-183
-207
-262
-381
-341
-211
-256
-249
-207
-276
-228
-279
-476
-311
-174
-305
-313
-296
-362
-334
-262
-280
-311
-315
-280
-372
-391
-252
-311
-376
-295
-279
-387
-368
-245
-348
-341
-185
-313
-372
-256
-360
-402
-231
-235
-334
-313
-304
-409
-377
-218
-292
-393
-302
-248
-317
-357
-297
-315
-372
-239
-204
-298
-153
-167
-359
-283
-194
-218
-248
-196
-166
-253
-164
-44
-110
-187
-65
27
-71
47
136
9
108
204
18
-148
-137
-192
-282
-192
-163
-259
-161
-107
-229
-205
-110
-239
-355
-222
-265
-302
-114
-118
-309
-235
-74
-272
-475
-368
-112
478
1581
2545
2945
2304
905
110
-207
-245
-81
-42
118
84
-53
33
53
-1
-27
48
46
-43
70
134
42
125
174
20
68
221
138
99
255
254
167
284
380
353
306
366
516
505
619
776
747
859
940
949
1147
1288
1219
1307
1454
1431
1419
1475
1499
1383
1239
1137
1010
797
656
559
299
186
190
28
-52
-73
-242
-324
-213
-206
-346
-354
-199
-256
-424
-449
-400
-302
-250
-200
-373
-548
-307
-243
-372
-265
-292
-386
-212
-206
-342
-252
-253
-327
-229
-173
-250
-398
-324
-183
-306
-264
-171
-318
-370
-227
-251
-369
-282
-316
-403
-278
-204
-302
-384
-374
-426
-453
-287
-229
-408
-430
-373
-454
-436
-402
-424
-327
-304
-385
-392
-373
-360
-424
-431
-353
-388
-440
-399
-341
-370
-421
-390
-404
-436
-334
-375
-466
-384
-375
-418
-361
-358
-361
-320
-384
-386
-401
-421
-304
-368
-411
-231
-337
-420
-188
-211
-253
-104
-195
-300
-246
-211
-244
-162
13
-1
-47
14
-33
-267
-323
-253
-342
-389
-307
-281
-326
-259
-226
-393
-371
-218
-319
-355
-303
-355
-359
-274
-241
-307
-323
-371
-511
-512
-177
385
1283
2375
2919
2365
1046
122
-210
-325
-272
-97
-87
-79
44
-67
-104
-5
-51
-89
-15
-6
-36
57
63
-82
-32
87
33
29
161
207
89
166
263
178
255
405
406
297
483
619
478
638
787
780
955
1065
966
1018
1214
1257
1225
1316
1459
1464
1370
1302
1303
1219
1035
861
597
451
409
195
55
116
19
-195
-219
-173
-276
-290
-339
-396
-171
-197
-324
-289
-339
-414
-399
-268
-232
-290
-261
-272
-320
-339
-299
-295
-364
-252
-178
-334
-362
-232
-328
-343
-131
-233
-336
-248
-212
-234
-237
-178
-315
-381
-245
-302
-335
-213
-214
-332
-358
-232
-264
-382
-300
-288
-365
-323
-281
-307
-261
-246
-344
-348
-244
-324
-416
-234
-214
-374
-326
-194
-300
-321
-131
-223
-310
-210
-240
-294
-246
-237
-298
-263
-161
-208
-288
-244
-226
-241
-199
-146
-211
-338
-206
-148
-307
-207
-100
-201
-124
-24
-145
-203
-41
-24
-142
26
31
-62
89
142
71
-74
-139
-209
-291
-182
-234
-267
-217
-259
-243
-292
-227
-169
-310
-288
-211
-300
-315
-167
-189
-336
-172
-144
-356
-400
-440
-117
666
1569
2412
2662
1858
639
-67
-175
-186
-348
-190
68
-42
-83
86
36
-66
50
48
-69
-51
47
91
-12
35
85
-10
93
188
111
109
266
239
116
233
339
335
370
444
417
462
672
657
687
944
968
886
944
1061
1156
1297
1421
1363
1319
1435
1445
1232
1173
1134
791
630
659
400
185
179
23
-107
-117
-177
-309
-333
-219
-335
-450
-293
-305
-416
-301
-251
-437
-410
-268
-344
-411
-323
-285
-383
-301
-213
-352
-395
-239
-238
-274
-209
-241
-287
-223
-123
-197
-284
-164
-178
-281
-184
-182
-296
-228
-156
-288
-386
-263
-223
-341
-329
-352
-363
-265
-306
-354
-323
-334
-331
-346
-328
-295
-343
-287
-231
-350
-345
-262
-316
-404
-341
-275
-338
-343
-343
-279
-255
-233
-260
-392
-274
-245
-393
-363
-290
-319
-329
-278
-315
-423
-375
-275
-371
-352
-267
-448
-415
-243
-322
-372
-313
-288
-333
-281
-213
-290
-251
-108
-150
-232
-159
-175
-272
-163
-90
-108
15
100
-3
-154
-224
-271
-345
-296
-227
-319
-315
-193
-261
-376
-305
-279
-317
-290
-252
-316
-374
-209
-226
-341
-191
-171
-361
-434
-433
-322
289
1339
2223
2778
2460
1151
150
-226
-279
-313
-232
9
-45
-84
-38
-106
-105
-50
-43
-87
-93
-2
-11
-42
61
31
-47
38
109
47
39
125
157
225
253
215
163
303
439
335
408
606
627
583
776
863
779
990
1131
1126
1304
1328
1292
1380
1410
1449
1388
1257
1133
932
774
721
543
257
166
135
-33
-95
-34
-205
-276
-136
-311
-430
-345
-341
-386
-364
-257
-311
-362
-310
-358
-410
-289
-268
-375
-277
-255
-438
-414
-236
-275
-293
-227
-291
-326
-312
-239
-259
-330
-228
-228
-283
-217
-223
-295
-317
-254
-185
-186
-243
-330
-338
-181
-165
-369
-319
-188
-316
-387
-238
-286
-362
-255
-317
-390
-297
-180
-262
-344
-186
-208
-398
-294
-205
-361
-335
-184
-310
-378
-223
-269
-395
-320
-267
-292
-301
-249
-277
-330
-143
-151
-347
-306
-229
-289
-255
-214
-234
-196
-211
-258
-232
-194
-187
-229
-285
-205
-169
-221
-144
-166
-242
-160
-129
-141
-25
33
-93
-99
27
-1
-55
99
231
149
151
120
-140
-156
-119
-284
-258
-114
-155
-231
-165
-161
-280
-273
-197
-276
-308
-179
-157
-257
-231
-176
-238
-218
-136
-324
-536
-315
155
906
1946
2802
2944
1879
651
148
-164
-216
-13
100
113
84
-71
-99
128
97
-35
66
36
-4
64
138
142
69
121
111
103
155
183
161
228
289
153
272
457
377
355
495
549
528
639
742
746
866
1094
1062
1012
1240
1346
1321
1394
1449
1444
1459
1478
1359
1144
1145
1107
739
621
639
278
93
194
30
-173
-63
-17
-228
-241
-154
-302
-270
-126
-224
-301
-257
-259
-294
-261
-254
-334
-297
-199
-250
-312
-293
-260
-291
-328
-240
-255
-361
-238
-196
-254
-177
-167
-271
-282
-143
-213
-278
-123
-172
-266
-213
-188
-280
-275
-140
-228
-243
-116
-236
-260
-143
-216
-243
-154
-170
-258
-207
-148
-280
-288
-187
-155
-189
-344
-258
-186
-259
-128
-239
-344
-180
-174
-247
-181
-91
-177
-228
-101
-106
-220
-151
-185
-250
-118
-115
-181
-167
-133
-117
-199
-169
-94
-248
-179
-10
-140
-181
-91
-154
-219
-166
-122
-193
-228
-60
12
-115
-110
-40
-56
32
-17
-140
-76
14
94
129
146
37
-134
-107
-93
-213
-161
-82
-196
-239
-129
-135
-268
-197
-47
-146
-237
-135
-143
-230
-126
-51
-161
-94
-38
-243
-293
-277
-38
788
1677
2458
2852
2018
702
60
-73
-77
-145
-74
134
95
2
93
112
65
126
152
112
82
175
208
58
141
289
175
149
291
284
256
346
279
178
393
496
345
349
501
545
553
706
745
682
884
1035
1027
1129
1173
1224
1306
1400
1436
1374
1483
1528
1332
1270
1224
953
795
694
514
368
246
168
-9
-60
-18
-123
-174
-129
-159
-251
-262
-265
-316
-310
-249
-265
-264
-248
-294
-273
-262
-326
-375
-313
-157
-210
-339
-254
-255
-305
-177
-149
-258
-291
-295
-296
-301
-206
-199
-337
-301
-226
-230
-230
-276
-358
-343
-236
-292
-380
-209
-237
-406
-309
-257
-347
-360
-254
-284
-435
-320
-251
-424
-350
-216
-296
-374
-323
-274
-350
-328
-303
-346
-305
-228
-309
-400
-268
-280
-374
-291
-244
-347
-348
-309
-365
-273
-229
-356
-324
-246
-276
-293
-353
-307
-299
-373
-220
-260
-439
-326
-208
-231
-219
-192
-251
-276
-147
-191
-344
-255
-166
-209
-167
-65
-108
-149
-57
-39
-154
-81
95
57
83
161
80
-10
-99
-153
-206
-225
-130
-191
-263
-155
-176
-266
-225
-234
-285
-242
-204
-281
-233
-128
-243
-289
-211
-197
-244
-283
-379
-417
58
970
1900
2696
2912
1765
408
60
-135
-353
-172
81
-24
-90
94
36
-39
102
96
-52
1
132
37
-5
202
126
-65
151
233
115
120
155
124
186
319
214
161
373
474
390
427
615
599
566
803
885
837
1004
1127
1149
1176
1295
1408
1425
1504
1452
1371
1392
1345
1103
954
951
682
437
422
236
18
97
57
-157
-198
-136
-164
-247
-170
-192
-285
-193
-188
-315
-256
-159
-327
-346
-171
-186
-297
-219
-196
-391
-312
-140
-223
-304
-244
-238
-259
-226
-238
-401
-338
-162
-344
-274
-140
-286
-290
-212
-219
-360
-316
-146
-275
-337
-201
-236
-327
-251
-219
-287
-281
-236
-322
-370
-299
-377
-399
-203
-242
-398
-302
-283
-399
-342
-233
-360
-358
-187
-283
-361
-327
-216
-264
-461
-325
-255
-350
-265
-231
-391
-385
-242
-362
-391
-175
-296
-414
-241
-255
-374
-302
-260
-410
-364
-172
-227
-400
-343
-236
-323
-282
-195
-273
-317
-230
-227
-294
-170
-79
-201
-150
-14
-101
-176
-136
-138
-45
158
184
35
30
12
-205
-292
-278
-257
-296
-267
-155
-291
-256
-214
-361
-303
-279
-299
-346
-272
-179
-276
-180
-120
-273
-262
-216
-398
-447
29
751
1616
2576
3044
2162
650
61
-91
-347
-178
66
-3
59
113
-99
-115
66
10
-93
-17
88
11
-9
119
44
47
174
128
86
181
265
184
219
341
256
271
406
392
350
465
558
498
549
755
759
799
1035
1011
1037
1251
1301
1272
1350
1541
1435
1263
1417
1332
1105
997
797
618
467
362
228
50
34
-17
-214
-234
-142
-260
-399
-253
-260
-438
-277
-308
-472
-314
-295
-402
-354
-266
-312
-313
-236
-365
-393
-242
-239
-371
-352
-175
-265
-357
-205
-288
-413
-334
-282
-304
-326
-234
-239
-364
-295
-259
-397
-364
-219
-295
-334
-212
-321
-387
-236
-255
-427
-394
-221
-316
-363
-233
-324
-430
-327
-257
-340
-294
-192
-334
-414
-254
-280
-368
-262
-283
-339
-254
-279
-365
-289
-240
-367
-414
-190
-192
-363
-263
-178
-301
-332
-169
-229
-368
-242
-160
-306
-320
-224
-272
-271
-239
-247
-212
-203
-262
-272
-211
-227
-342
-326
-212
-217
-217
-120
-120
-133
-48
-60
-106
-88
-40
-25
109
278
159
-7
-61
-124
-198
-173
-154
-216
-140
-124
-251
-274
-204
-129
-239
-299
-146
-236
-254
-79
-190
-288
-161
-113
-165
-179
-267
-339
-21
715
1571
2403
2805
1952
602
-2
-143
-296
-311
-39
49
-60
36
73
-52
-30
38
-10
-46
40
43
4
97
135
112
108
111
147
211
262
233
172
259
339
277
342
440
406
452
642
654
613
819
892
826
915
1106
1103
1122
1379
1387
1288
1393
1450
1375
1361
1268
1053
924
824
668
440
336
292
76
-24
-13
-140
-206
-193
-255
-268
-236
-296
-342
-301
-278
-377
-425
-328
-382
-424
-276
-262
-404
-363
-235
-295
-338
-271
-266
-350
-335
-281
-371
-340
-224
-266
-318
-282
-271
-345
-248
-238
-383
-293
-175
-256
-371
-273
-264
-379
-256
-205
-366
-325
-179
-300
-374
-261
-312
-412
-334
-271
-411
-467
-298
-259
-383
-346
-304
-383
-304
-267
-382
-328
-249
-378
-413
-280
-309
-381
-336
-262
-281
-399
-323
-236
-324
-256
-199
-390
-326
-135
-347
-358
-206
-296
-312
-289
-234
-282
-320
-219
-266
-274
-197
-259
-271
-128
-235
-326
-136
-113
-204
-221
-223
-203
-162
-43
36
-72
-52
30
-109
-199
-42
88
29
83
182
-5
-227
-133
-138
-272
-125
-230
-381
-213
-190
-256
-218
-226
-357
-223
-124
-324
-286
-205
-245
-290
-274
-148
-250
-432
-383
-334
20
956
1887
2682
2952
1840
410
-23
-94
-300
-173
83
39
-84
1
38
-129
-95
4
-19
-106
-38
102
27
82
68
-51
-2
130
144
23
94
131
92
230
263
143
233
407
364
316
410
564
698
851
907
763
835
1074
1098
1149
1350
1404
1316
1364
1454
1370
1265
1239
1063
970
1007
722
405
353
331
95
-55
1
-131
-223
-127
-185
-336
-284
-260
-344
-225
-205
-373
-347
-213
-266
-359
-237
-209
-360
-324
-220
-310
-312
-155
-235
-402
-295
-212
-294
-228
-212
-236
-278
-256
-172
-303
-221
-140
-285
-290
-192
-253
-265
-168
-252
-346
-289
-225
-282
-210
-128
-301
-303
-171
-206
-283
-267
-135
-178
-372
-266
-204
-353
-242
-161
-264
-290
-290
-275
-225
-242
-350
-333
-187
-177
-298
-348
-259
-251
-297
-175
-210
-282
-164
-198
-315
-238
-159
-283
-253
-100
-147
-193
-132
-155
-256
-166
-146
-281
-187
-102
-155
-180
-128
-123
-236
-157
-150
-370
-242
-8
-110
-156
-33
-30
-77
-60
-19
-69
-47
70
3
-9
214
221
44
52
-43
-256
-196
-15
-100
-223
-124
-118
-223
-216
-137
-177
-227
-149
-179
-235
-157
-173
-274
-199
-109
-244
-278
-240
-385
-195
448
1423
2402
2933
2472
970
100
-26
-249
-263
-73
48
46
75
75
-4
20
107
72
24
114
114
41
155
180
90
129
210
251
156
191
280
155
228
337
288
364
459
399
364
577
701
599
663
893
923
995
1179
1070
1058
1309
1319
1253
1426
1458
1321
1305
1361
1223
975
946
803
497
435
407
167
-5
48
-62
-214
-125
-212
-372
-203
-161
-359
-366
-301
-327
-403
-330
-204
-376
-437
-263
-357
-332
-143
-269
-371
-241
-208
-307
-272
-192
-342
-376
-183
-262
-368
-214
-243
-399
-279
-213
-321
-306
-241
-326
-376
-216
-209
-323
-321
-338
-370
-363
-343
-330
-300
-296
-371
-366
-287
-291
-350
-435
-342
-318
-514
-344
-259
-431
-334
-263
-369
-398
-302
-340
-424
-343
-279
-351
-301
-233
-350
-326
-233
-283
-361
-283
-227
-381
-357
-212
-291
-377
-336
-363
-352
-218
-221
-348
-320
-230
-315
-371
-305
-277
-288
-252
-188
-259
-267
-154
-264
-243
-86
-186
-228
-87
-18
-44
23
51
-142
-289
-195
-240
-314
-263
-298
-343
-358
-258
-290
-346
-222
-300
-390
-261
-250
-345
-284
-258
-359
-302
-156
-314
-545
-455
-133
492
1482
2373
2639
1817
617
-18
-269
-269
-243
-208
-62
28
-90
-118
-21
-78
-123
-75
9
-64
-117
-41
-128
-97
88
-6
-88
64
130
71
86
171
107
113
314
262
192
393
361
350
499
549
577
595
712
907
989
1023
1130
1147
1189
1358
1302
1275
1478
1342
1066
1019
926
707
560
467
271
98
58
-48
-195
-227
-278
-349
-289
-230
-433
-530
-323
-412
-559
-378
-346
-472
-405
-301
-387
-487
-369
-336
-474
-316
-222
-450
-439
-303
-378
-395
-285
-336
-444
-311
-287
-395
-287
-366
-499
-337
-269
-309
-351
-340
-344
-464
-431
-268
-360
-509
-330
-325
-444
-378
-390
-427
-372
-319
-393
-445
-320
-308
-405
-343
-312
-388
-364
-285
-317
-327
-333
-381
-338
-343
-360
-339
-309
-334
-385
-316
-227
-289
-368
-326
-346
-356
-325
-318
-346
-364
-245
-332
-426
-272
-339
-439
-367
-263
-298
-395
-327
-292
-337
-330
-262
-302
-319
-247
-299
-282
-272
-348
-267
-178
-199
-190
-183
-141
-146
-180
-94
-130
-169
15
46
-43
59
185
-11
-245
-166
-203
-360
-318
-228
-330
-310
-156
-299
-392
-270
-322
-406
-300
-333
-423
-287
-220
-312
-313
-187
-285
-569
-532
-199
342
1394
2452
2895
2396
1064
151
-137
-330
-280
-108
13
50
-77
-141
-64
-158
-219
19
24
-149
-67
33
-33
-67
14
109
55
31
164
145
148
252
236
166
275
380
327
424
521
502
571
626
653
761
874
941
1008
1142
1228
1260
1407
1453
1363
1449
1608
1490
1278
1264
1152
885
767
743
490
313
368
169
-68
0
55
-145
-223
-90
-177
-246
-144
-163
-231
-238
-223
-241
-229
-186
-229
-260
-153
-141
-242
-210
-123
-132
-183
-135
-173
-210
-128
-144
-205
-165
-96
-183
-149
-60
-190
-268
-189
-146
-225
-226
-126
-196
-263
-205
-249
-304
-192
-155
-294
-252
-193
-300
-247
-164
-279
-301
-193
-274
-312
-154
-224
-348
-245
-208
-281
-289
-228
-224
-306
-261
-221
-364
-334
-226
-315
-335
-196
-221
-380
-282
-221
-342
-258
-163
-245
-354
-277
-203
-306
-242
-192
-295
-244
-190
