-363
-372
-374
-370
-359
-344
-326
-308
-289
-274
-262
-256
-255
-259
-268
-279
-292
-304
-313
-316
-314
-304
-287
-265
-239
-211
-186
-165
-151
-147
-153
-168
-192
-219
-246
-268
-281
-280
-265
-235
-194
-145
-94
-49
-14
6
9
-6
-34
-70
-109
-144
-169
-180
-175
-157
-126
-88
-49
-12
17
37
45
43
33
18
2
-11
-17
-16
-6
13
39
69
101
130
154
171
180
182
177
167
157
149
146
150
162
184
213
248
286
323
356
383
401
411
411
406
396
386
378
377
384
399
423
453
488
523
556
583
603
614
617
613
604
593
582
575
573
577
587
603
624
646
668
687
701
708
706
697
681
661
640
620
606
599
601
612
631
656
683
710
732
748
754
751
739
719
694
667
641
617
599
586
581
581
586
594
601
606
604
594
576
547
511
470
426
383
346
316
295
284
280
282
286
287
284
274
255
229
198
164
130
98
72
53
40
34
32
32
33
31
24
11
-9
-36
-70
-107
-146
-184
-217
-242
-258
-263
-257
-242
-221
-197
-175
-157
-147
-146
-155
-171
-192
-217
-240
-260
-273
-280
-280
-273
-261
-247
-233
-221
-212
-208
-210
-217
-229
-244
-260
-276
-290
-299
-304
-303
-298
-289
-278
-268
-258
-250
-246
-245
-246
-250
-254
-260
-265
-270
-274
-277
-278
-277
-274
-268
-259
-249
-239
-230
-226
-227
-237
-254
-278
-306
-334
-359
-378
-387
-385
-373
-354
-331
-309
-291
-281
-280
-288
-304
-325
-345
-363
-374
-376
-369
-354
-332
-306
-281
-258
-241
-233
-233
-242
-257
-278
-301
-323
-340
-351
-354
-348
-334
-315
-292
-269
-249
-236
-231
-236
-250
-272
-298
-325
-350
-369
-378
-377
-365
-342
-313
-280
-248
-222
-205
-200
-208
-228
-255
-286
-314
-334
-342
-335
-313
-278
-236
-193
-156
-130
-121
-129
-154
-192
-236
-281
-321
-348
-362
-361
-347
-323
-293
-262
-233
-210
-194
-185
-183
-186
-193
-204
-216
-228
-240
-250
-257
-259
-256
-247
-232
-213
-193
-174
-160
-153
-155
-166
-185
-210
-235
-258
-275
-284
-283
-273
-256
-235
-213
-195
-182
-177
-181
-191
-207
-225
-242
-256
-263
-263
-254
-238
-217
-193
-172
-155
-147
-148
-159
-179
-205
-234
-261
-282
-295
-297
-288
-271
-247
-221
-197
-178
-167
-167
-177
-196
-222
-252
-282
-307
-325
-333
-329
-315
-292
-263
-232
-203
-181
-168
-168
-179
-201
-230
-262
-292
-315
-329
-331
-322
-303
-278
-249
-223
-201
-187
-183
-188
-201
-220
-243
-268
-291
-309
-322
-326
-322
-308
-285
-255
-218
-179
-139
-103
-75
-55
-47
-51
-65
-87
-112
-138
-157
-168
-167
-154
-130
-99
-64
-32
-8
5
4
-11
-37
-68
-99
-123
-134
-130
-108
-71
-22
32
86
133
168
189
196
191
177
160
144
133
130
136
150
172
200
230
260
287
309
324
332
331
322
306
286
263
242
226
216
215
222
236
253
268
278
276
260
230
185
128
66
2
-57
-107
-144
-167
-178
-179
-174
-167
-162
-163
-171
-187
-209
-238
-269
-300
-328
-352
-369
-379
-382
-378
-368
-353
-336
-319
-304
-293
-287
-289
-299
-314
-335
-359
-382
-401
-414
-418
-412
-396
-372
-343
-314
-289
-272
-266
-275
-296
-329
-369
-411
-449
-477
-492
-492
-476
-447
-410
-370
-335
-309
-296
-298
-314
-341
-375
-410
-440
-461
-471
-468
-455
-433
-408
-382
-359
-343
-335
-335
-343
-356
-372
-388
-404
-416
-423
-425
-421
-413
-401
-387
-375
-366
-365
-374
-394
-425
-467
-516
-566
-610
-641
-654
-642
-603
-537
-448
-339
-215
-79
65
219
387
574
787
1030
1309
1620
1960
2316
2673
3012
3315
3561
3736
3828
3833
3752
3591
3361
3077
2756
2416
2072
1742
1436
1164
932
740
587
467
371
291
219
146
68
-17
-108
-199
-286
-361
-420
-457
-472
-465
-441
-405
-365
-326
-296
-276
-271
-280
-301
-331
-366
-402
-435
-462
-480
-490
-491
-485
-472
-457
-441
-426
-417
-413
-415
-425
-439
-457
-476
-494
-509
-519
-522
-519
-511
-498
-482
-466
-450
-437
-429
-426
-428
-437
-450
-467
-485
-503
-517
-526
-526
-518
-501
-477
-449
-421
-396
-379
-371
-375
-389
-411
-438
-464
-485
-497
-499
-489
-469
-443
-413
-384
-361
-346
-341
-347
-362
-382
-406
-427
-444
-452
-450
-437
-415
-385
-352
-319
-291
-272
-264
-268
-282
-305
-333
-361
-386
-402
-408
-402
-384
-357
-323
-288
-255
-229
-214
-210
-218
-237
-263
-292
-321
-343
-354
-353
-338
-310
-272
-229
-186
-150
-124
-111
-114
-131
-160
-195
-232
-265
-288
-299
-295
-278
-249
-212
-171
-133
-100
-76
-63
-62
-71
-86
-103
-119
-129
-130
-121
-101
-72
-38
-2
32
60
79
89
89
83
72
59
48
42
41
47
57
72
89
107
125
141
155
166
177
185
191
196
199
202
203
205
209
216
228
245
268
296
327
358
386
409
424
432
431
425
416
408
405
408
420
440
466
497
528
556
579
594
602
603
599
591
583
575
569
566
567
572
579
589
601
614
627
640
651
659
662
661
655
644
630
615
600
589
583
583
590
602
617
633
647
654
654
644
625
600
569
538
510
487
473
468
472
481
494
504
509
505
490
462
422
374
321
269
221
182
156
141
139
146
157
167
172
168
151
122
81
33
-18
-66
-108
-138
-155
-161
-156
-146
-134
-125
-122
-128
-144
-167
-196
-227
-257
-283
-303
-316
-322
-321
-315
-305
-293
-280
-267
-257
-249
-245
-245
-251
-263
-280
-300
-323
-346
-366
-381
-389
-389
-381
-366
-348
-328
-309
-295
-288
-288
-296
-309
-326
-343
-357
-367
-370
-366
-355
-340
-322
-306
-293
-287
-288
-296
-310
-328
-347
-365
-378
-384
-383
-374
-360
-342
-323
-308
-297
-293
-298
-310
-327
-348
-370
-389
-404
-412
-413
-407
-395
-379
-360
-342
-327
-316
-311
-313
-322
-337
-355
-374
-392
-406
-416
-418
-414
-404
-391
-376
-362
-351
-344
-343
-347
-356
-367
-379
-391
-400
-405
-406
-403
-396
-384
-370
-354
-337
-322
-309
-301
-298
-302
-313
-329
-350
-373
-393
-407
-414
-411
-397
-374
-344
-312
-282
-257
-242
-239
-247
-265
-290
-316
-340
-357
-364
-359
-344
-321
-293
-266
-244
-231
-229
-240
-261
-289
-320
-350
-374
-389
-393
-386
-369
-346
-319
-293
-270
-254
-245
-244
-251
-265
-282
-300
-317
-332
-341
-344
-341
-330
-314
-292
-267
-241
-217
-198
-186
-184
-192
-210
-237
-268
-301
-330
-351
-361
-357
-340
-313
-279
-244
-215
-196
-191
-201
-224
-256
-294
-329
-358
-376
-382
-374
-356
-330
-302
-276
-254
-241
-236
-240
-250
-267
-285
-304
-320
-332
-337
-335
-325
-309
-286
-261
-236
-215
-202
-198
-206
-224
-252
-284
-317
-347
-368
-378
-375
-361
-338
-310
-282
-257
-240
-232
-235
-246
-265
-288
-311
-332
-349
-359
-362
-359
-349
-333
-314
-293
-271
-250
-233
-221
-216
-218
-229
-246
-268
-293
-315
-333
-342
-341
-330
-309
-282
-252
-225
-204
-192
-190
-197
-210
-225
-236
-241
-236
-219
-192
-158
-120
-84
-54
-33
-25
-30
-45
-69
-97
-125
-149
-167
-174
-171
-158
-135
-105
-69
-32
4
37
65
86
101
109
112
112
111
111
116
126
143
166
194
225
257
286
310
327
334
333
325
311
294
278
266
260
261
270
286
306
326
344
356
359
350
330
297
253
201
143
83
26
-27
-70
-103
-124
-134
-135
-130
-121
-114
-112
-117
-131
-154
-184
-217
-252
-282
-306
-321
-326
-322
-311
-297
-282
-269
-263
-263
-270
-283
-300
-318
-335
-349
-357
-360
-357
-348
-337
-323
-311
-301
-296
-297
-304
-316
-333
-352
-371
-386
-397
-400
-396
-385
-368
-349
-329
-313
-302
-298
-301
-312
-327
-344
-362
-378
-390
-397
-400
-399
-394
-389
-383
-378
-376
-376
-379
-384
-391
-398
-403
-407
-406
-400
-390
-375
-356
-335
-314
-296
-284
-280
-287
-303
-331
-369
-414
-465
-518
-568
-612
-645
-664
-665
-649
-614
-563
-498
-423
-340
-254
-163
-65
43
169
321
507
733
1004
1318
1668
2044
2430
2807
3154
3451
3681
3830
3891
3862
3748
3558
3306
3011
2690
2361
2040
1739
1469
1232
1029
856
707
575
454
337
221
105
-9
-117
-215
-296
-357
-395
-410
-405
-384
-354
-321
-292
-270
-260
-262
-275
-296
-320
-344
-365
-378
-384
-383
-375
-364
-352
-342
-337
-338
-345
-359
-377
-398
-419
-437
-450
-456
-455
-447
-435
-419
-403
-390
-380
-377
-380
-389
-401
-414
-427
-436
-440
-438
-429
-416
-398
-378
-359
-342
-328
-321
-320
-325
-337
-353
-372
-393
-412
-427
-436
-437
-430
-413
-390
-362
-333
-306
-285
-273
-272
-281
-298
-322
-347
-369
-384
-390
-384
-367
-342
-312
-281
-254
-236
-228
-232
-246
-269
-296
-323
-344
-357
-360
-351
-333
-307
-278
-250
-226
-208
-199
-198
-203
-213
-224
-235
-242
-245
-244
-238
-228
-215
-201
-186
-173
-161
-150
-142
-137
-135
-135
-139
-145
-153
-162
-169
-173
-173
-168
-157
-140
-120
-98
-77
-60
-49
-46
-51
-63
-78
-95
-109
-118
-119
-112
-95
-72
-44
-14
15
40
60
74
82
85
84
82
80
79
81
87
95
108
124
142
161
179
196
209
217
219
217
209
199
190
183
183
192
210
237
271
310
349
383
411
429
437
437
431
424
419
420
429
448
476
509
545
579
609
631
645
649
646
637
625
612
601
593
589
591
598
610
627
648
671
696
720
742
758
766
767
758
741
719
693
669
649
636
633
639
654
675
697
717
732
739
738
728
713
696
680
668
663
665
673
686
700
711
714
708
691
662
623
577
528
478
432
392
362
341
329
326
328
335
342
347
349
345
333
315
289
258
223
188
154
124
100
84
76
74
78
86
94
99
101
95
81
59
30
-6
-44
-83
-118
-147
-167
-175
-172
-159
-140
-117
-96
-80
-74
-79
-95
-122
-155
-190
-223
-249
-264
-267
-258
-239
-212
-181
-152
-127
-111
-106
-111
-126
-149
-175
-201
-223
-237
-240
-232
-213
-187
-157
-128
-106
-95
-97
-113
-142
-178
-218
-254
-283
-299
-302
-291
-269
-241
-210
-183
-162
-152
-154
-166
-187
-213
-242
-270
-293
-309
-316
-314
-303
-285
-260
-233
-204
-179
-159
-147
-144
-150
-164
-184
-207
-230
-250
-264
-270
-268
-259
-244
-228
-212
-200
-192
-192
-198
-209
-223
-238
-250
-259
-263
-259
-250
-235
-218
-201
-185
-175
-172
-177
-191
-210
-234
-259
-281
-297
-303
-299
-285
-261
-231
-199
-168
-144
-128
-124
-130
-147
-170
-197
-223
-244
-257
-260
-253
-237
-213
-186
-158
-132
-112
-99
-96
-101
-114
-132
-154
-177
-197
-213
-222
-224
-219
-208
-193
-175
-158
-144
-135
-131
-134
-143
-156
-172
-188
-201
-210
-213
-208
-196
-178
-156
-131
-107
-87
-71
-63
-64
-73
-89
-112
-138
-164
-189
-207
-218
-219
-209
-189
-161
-128
-93
-62
-37
-24
-22
-34
-58
-89
-125
-159
-187
-206
-213
-208
-193
-171
-146
-124
-107
-99
-100
-111
-129
-151
-173
-192
-204
-207
-201
-187
-165
-140
-113
-89
-72
-62
-62
-72
-91
-117
-145
-172
-195
-208
-211
-203
-183
-156
-124
-92
-66
-49
-43
-50
-67
-93
-123
-152
-175
-189
-191
-180
-158
-129
-96
-64
-38
-23
-20
-30
-51
-81
-116
-149
-178
-197
-205
-201
-186
-161
-131
-100
-71
-48
-34
-29
-34
-48
-68
-92
-117
-141
-160
-173
-178
-176
-166
-151
-132
-111
-91
-76
-66
-63
-68
-80
-97
-117
-137
-154
-164
-165
-156
-136
-107
-72
-33
4
37
63
78
82
77
65
48
31
18
11
13
24
43
67
92
113
127
131
122
102
73
39
6
-22
-37
-37
-20
14
60
114
169
219
258
283
293
288
272
251
231
217
214
224
247
282
324
370
413
450
476
489
487
473
448
415
379
343
312
290
279
282
296
321
352
385
412
429
430
412
374
318
247
169
91
20
-37
-76
-95
-96
-83
-60
-35
-14
-3
-5
-21
-50
-88
-131
-172
-208
-234
-249
-250
-241
-223
-200
-175
-154
-139
-132
-134
-146
-165
-189
-216
-242
-264
-281
-292
-294
-289
-277
-261
-243
-224
-208
-196
-190
-191
-199
-214
-234
-257
-281
-301
-317
-325
-324
-314
-296
-273
-248
-224
-205
-194
-194
-203
-222
-246
-272
-296
-315
-325
-326
-318
-302
-283
-262
-245
-233
-229
-232
-242
-257
-274
-290
-304
-313
-317
-315
-308
-298
-286
-274
-264
-258
-258
-266
-282
-306
-338
-376
-417
-456
-488
-507
-510
-492
-454
-396
-321
-233
-137
-36
70
181
304
446
616
824
1073
1367
1699
2060
2433
2796
3128
3406
3611
3729
3754
3686
3532
3306
3026
2710
2378
2047
1732
1443
1186
964
775
615
479
361
254
153
55
-42
-138
-230
-316
-390
-447
-485
-502
-497
-472
-432
-382
-330
-281
-243
-218
-211
-219
-240
-270
-304
-334
-357
-369
-367
-354
-331
-301
-270
-242
-221
-211
-212
-224
-245
-272
-302
-331
-355
-372
-380
-379
-369
-351
-329
-306
-284
-266
-255
-251
-256
-267
-283
-300
-314
-321
-319
-307
-283
-252
-215
-178
-146
-123
-114
-119
-138
-168
-205
-243
-277
-301
-314
-312
-298
-274
-243
-211
-182
-159
-145
-141
-147
-160
-178
-198
-216
-229
-236
-236
-227
-212
-191
-167
-143
-120
-102
-90
-85
-87
-96
-110
-127
-143
-157
-165
-167
-161
-147
-128
-106
-83
-64
-51
-45
-48
-58
-73
-92
-109
-123
-129
-128
-118
-100
-78
-53
-28
-7
8
15
16
10
-1
-14
-28
-40
-49
-52
-49
-40
-26
-7
16
40
64
85
101
111
114
111
101
87
72
59
50
50
58
75
102
136
173
210
244
271
288
295
292
279
260
237
215
196
185
183
191
209
236
269
303
335
361
380
388
388
380
368
357
350
352
364
387
420
461
504
547
584
613
630
637
635
625
611
596
585
579
581
589
605
626
651
677
702
724
740
751
757
757
753
747
742
739
741
748
761
779
802
826
850
870
885
892
891
883
869
851
832
815
803
797
798
807
821
840
859
877
891
899
900
892
878
857
832
805
779
755
735
720
711
707
707
709
712
714
711
703
688
665
636
601
565
529
497
473
457
450
450
455
462
465
462
450
428
398
361
321
281
247
220
202
193
192
195
199
202
201
194
181
162
140
115
91
71
54
44
38
38
42
48
54
58
59
55
48
36
22
7
-7
-18
-25
-28
-28
-24
-18
-12
-7
-4
-2
-2
-3
-3
-3
-4
-4
-5
-10
-17
-29
-44
-62
-79
-94
-104
-107
-103
-92
-75
-55
-35
-19
-9
-6
-10
-20
-33
-48
-60
-69
-72
-70
-64
-55
-45
-36
-31
-29
-32
-38
-46
-55
-63
-69
-72
-70
-65
-55
-42
-27
-11
3
15
22
23
18
7
-10
-30
-51
-70
-84
-91
-89
-79
-62
-41
-18
2
16
22
19
6
-14
-40
-66
-90
-106
-114
-110
-95
-70
-38
-4
29
55
72
76
66
45
13
-23
-60
-93
-117
-130
-130
-119
-100
-77
-53
-34
-22
-19
-24
-35
-51
-66
-78
-84
-82
-72
-54
-32
-7
16
36
49
56
55
49
37
24
9
-4
-14
-20
-23
-21
-15
-6
5
18
30
42
52
59
61
58
50
36
19
-1
-20
-36
-46
-48
-39
-22
4
34
64
91
110
117
112
94
67
33
-1
-30
-49
-56
-50
-31
-4
28
58
83
98
101
94
79
57
34
13
-3
-12
-16
-14
-9
-2
4
9
11
11
8
3
-2
-9
-16
-24
-32
-40
-47
-52
-54
-51
-43
-31
-17
-2
11
20
22
18
7
-7
-24
-38
-48
-51
-47
-35
-16
5
27
45
58
62
58
44
23
-3
-33
-61
-85
-102
-109
-107
-94
-73
-46
-16
13
37
52
58
54
41
23
2
-18
-34
-44
-47
-43
-35
-24
-13
-5
0
-1
-6
-15
-27
-41
-55
-67
-76
-81
-81
-75
-63
-45
-23
4
32
58
81
97
106
106
100
88
76
65
60
63
75
97
125
156
188
215
234
242
240
228
207
182
155
131
112
102
101
110
128
153
183
215
245
273
295
311
321
325
325
323
322
324
332
347
371
403
441
482
523
559
587
602
603
590
564
530
493
460
435
423
427
446
477
516
555
588
606
606
586
545
488
419
346
275
212
162
127
107
100
102
109
117
123
124
119
106
88
66
40
14
-11
-33
-51
-65
-72
-74
-70
-61
-49
-36
-22
-11
-5
-5
-12
-26
-46
-69
-94
-116
-134
-143
-145
-137
-123
-104
-85
-70
-61
-61
-71
-90
-114
-140
-163
-179
-183
-175
-155
-125
-90
-55
-26
-7
-1
-10
-32
-65
-104
-143
-178
-203
-216
-216
-205
-185
-161
-136
-115
-101
-94
-95
-103
-115
-128
-140
-148
-151
-150
-143
-134
-123
-111
-101
-94
-90
-90
-95
-106
-122
-145
-174
-208
-245
-284
-321
-352
-373
-380
-371
-344
-301
-243
-175
-100
-22
59
142
233
338
466
627
830
1078
1375
1714
2084
2469
2849
3200
3501
3733
3883
3944
3916
3806
3626
3392
3123
2835
2544
2262
1999
1759
1543
1349
1175
1015
865
720
577
436
297
163
39
-71
-161
-227
-266
-279
-266
-235
-191
-143
-98
-63
-42
-38
-50
-73
-103
-134
-162
-180
-189
-186
-175
-158
-138
-120
-107
-99
-99
-105
-117
-132
-148
-164
-177
-187
-194
-196
-195
-191
-185
-179
-172
-168
-166
-168
-173
-183
-195
-208
-220
-229
-231
-226
-212
-192
-166
-137
-110
-88
-73
-67
-72
-87
-108
-133
-159
-181
-197
-206
-205
-197
-184
-166
-148
-131
-118
-109
-105
-105
-108
-113
-119
-123
-125
-124
-119
-112
-103
-92
-82
-74
-68
-67
-69
-76
-87
-101
-115
-128
-138
-144
-143
-136
-122
-104
-81
-58
-37
-19
-8
-4
-8
-19
-35
-54
-73
-89
-101
-104
-100
-88
-70
-47
-23
-1
17
28
30
25
14
-2
-18
-31
-38
-37
-26
-6
21
52
82
109
128
137
135
123
104
80
57
39
30
31
45
69
101
138
176
210
238
256
264
263
252
236
217
197
181
169
165
169
182
202
228
258
289
318
343
362
373
376
371
360
345
331
319
313
316
329
351
383
422
463
504
540
569
587
595
592
581
566
549
537
531
536
551
577
610
648
686
719
744
758
761
754
738
719
701
687
680
683
695
716
743
773
802
827
844
854
854
846
831
812
791
772
757
749
747
753
765
781
800
817
831
839
840
833
821
805
786
769
756
748
746
750
758
768
777
782
781
771
752
725
690
651
609
569
534
506
487
477
476
482
492
503
511
514
507
489
460
420
372
319
266
216
174
142
122
112
112
119
128
135
138
133
119
97
67
34
0
-31
-56
-74
-83
-84
-78
-67
-53
-39
-28
-22
-22
-30
-44
-66
-91
-119
-146
-169
-183
-188
-181
-164
-138
-108
-77
-51
-35
-31
-41
-63
-94
-130
-165
-194
-215
-224
-222
-212
-196
-179
-163
-152
-147
-148
-153
-161
-170
-179
-186
-191
-194
-195
-195
-193
-190
-186
-181
-174
-168
-162
-159
-159
-163
-171
-182
-194
-205
-212
-215
-211
-200
-185
-167
-148
-132
-121
-116
-119
-129
-144
-163
-184
-203
-219
-230
-234
-231
-222
-207
-189
-169
-151
-137
-130
-130
-138
-153
-174
-197
-218
-235
-244
-243
-234
-216
-193
-168
-145
-129
-120
-120
-128
-142
-160
-177
-191
-199
-201
-196
-186
-172
-156
-141
-128
-118
-112
-109
-109
-111
-115
-120
-125
-131
-136
-141
-145
-148
-149
-149
-148
-146
-143
-140
-138
-137
-137
-140
-143
-148
-153
-156
-157
-154
-147
-133
-115
-94
-71
-49
-33
-24
-25
-36
-57
-85
-117
-147
-170
-184
-185
-174
-152
-123
-91
-61
-39
-27
-27
-39
-61
-90
-120
-148
-169
-180
-180
-168
-146
-116
-82
-50
-23
-7
-3
-15
-40
-77
-121
-166
-207
-237
-252
-250
-230
-196
-152
-105
-62
-31
-15
-16
-36
-69
-111
-156
-198
-229
-248
-251
-240
-217
-186
-153
-121
-95
-78
-71
-74
-85
-103
-124
-146
-165
-180
-190
-194
-191
-183
-171
-156
-142
-129
-118
-113
-112
-115
-123
-133
-144
-155
-163
-168
-169
-167
-161
-153
-144
-137
-131
-129
-131
-135
-143
-153
-164
-173
-180
-184
-184
-179
-170
-157
-142
-125
-108
-94
-84
-79
-82
-90
-106
-125
-147
-167
-182
-190
-187
-172
-148
-116
-80
-48
-23
-12
-18
-42
-81
-131
-186
-238
-280
-306
-311
-295
-260
-210
-152
-93
-39
4
32
46
46
35
18
0
-15
-24
-24
-14
3
27
54
80
102
117
122
118
104
82
56
30
9
-4
-6
5
29
62
102
143
180
211
233
245
248
246
242
240
244
255
276
304
337
371
403
430
448
457
457
448
432
413
392
373
357
346
342
344
352
365
381
398
412
419
416
398
365
315
251
176
95
16
-54
-110
-147
-163
-160
-140
-111
-79
-52
-35
-33
-47
-76
-116
-161
-205
-244
-272
-289
-292
-284
-268
-247
-224
-204
-189
-181
-181
-189
-204
-224
-247
-272
-296
-316
-329
-335
-333
-322
-305
-283
-260
-241
-227
-222
-226
-240
-261
-287
-313
-336
-351
-358
-354
-342
-323
-300
-278
-261
-250
-248
-254
-268
-286
-306
-323
-335
-339
-335
-323
-305
-283
-260
-239
-223
-214
-213
-219
-233
-252
-275
-298
-320
-338
-349
-352
-346
-332
-310
-284
-257
-236
-224
-226
-245
-281
-332
-392
-456
-513
-556
-576
-570
-533
-468
-377
-266
-139
-1
148
306
478
670
886
1131
1409
1716
2047
2393
2738
3066
3361
3605
3785
3889
3913
3854
3716
3508
3241
2930
2592
2245
1905
1587
1302
1058
858
699
577
482
404
333
262
184
99
9
-81
-165
-236
-288
-318
-324
-311
-281
-244
-205
-171
-148
-139
-144
-164
-194
-231
-270
-307
-340
-365
-381
-390
-390
-384
-373
-360
-347
-334
-323
-315
-309
-307
-307
-310
-315
-323
-332
-341
-350
-357
-362
-362
-359
-353
-345
-337
-332
-331
-336
-347
-364
-383
-403
-420
-430
-432
-424
-407
-381
-351
-319
-288
-262
-243
-232
-229
-235
-247
-263
-282
-302
-319
-332
-339
-339
-332
-318
-300
-280
-260
-244
-234
-232
-237
-249
-265
-281
-294
-301
-300
-289
-270
-245
-217
-190
-166
-150
-143
-145
-157
-177
-203
-231
-259
-283
-300
-309
-308
-296
-275
-246
-214
-181
-152
-132
-123
-126
-141
-166
-197
-227
-253
-269
-273
-263
-241
-210
-175
-141
-114
-96
-89
-94
-108
-128
-148
-163
-171
-169
-156
-135
-107
-76
-46
-22
-5
3
2
-7
-21
-38
-55
-67
-73
-71
-60
-39
-12
21
56
88
116
136
146
146
138
122
103
85
71
65
68
83
107
138
174
210
244
271
291
301
304
300
293
285
280
280
287
303
326
356
389
424
456
484
505
518
521
517
507
494
482
473
470
476
492
517
550
587
625
661
690
710
718
715
701
678
651
624
601
587
584
594
615
646
683
721
755
781
796
798
789
770
747
723
704
693
693
703
723
749
776
799
816
821
814
796
768
735
701
669
644
627
619
620
626
637
647
655
657
653
641
621
595
564
529
494
459
426
397
374
355
340
330
322
315
309
301
291
278
262
242
220
196
170
145
119
96
74
56
42
32
26
23
20
18
13
4
-9
-28
-51
-77
-104
-128
-148
-162
-166
-162
-150
-133
-112
-91
-73
-62
-59
-65
-80
-102
-129
-158
-186
-210
-226
-235
-235
-229
-217
-202
-189
-178
-173
-173
-179
-189
-202
-213
-221
-225
-223
-215
-204
-190
-175
-163
-154
-149
-150
-156
-166
-180
-196
-213
-230
-245
-258
-267
-270
-267
-259
-245
-226
-206
-186
-170
-161
-160
-169
-185
-207
-232
-255
-272
-280
-278
-264
-241
-213
-182
-154
-133
-123
-124
-138
-162
-192
-225
-255
-277
-290
-290
-278
-256
-228
-198
-171
-151
-142
-145
-161
-185
-215
-246
-272
-291
-298
-294
-279
-256
-228
-201
-177
-160
-152
-153
-163
-179
-199
-220
-239
-253
-262
-265
-262
-253
-241
-227
-212
-198
-189
-184
-185
-191
-203
-218
-234
-248
-259
-264
-262
-253
-237
-218
-198
-180
-166
-157
-155
-158
-165
-173
-181
-187
-188
-186
-181
-173
-163
-154
-146
-139
-134
-130
-129
-129
-131
-135
-142
-153
-166
-180
-195
-208
-217
-219
-213
-200
-179
-155
-129
-106
-89
-80
-81
-91
-108
-131
-154
-176
-191
-198
-198
-189
-174
-156
-138
-124
-115
-114
-122
-138
-161
-187
-213
-236
-251
-258
-253
-237
-212
-181
-149
-118
-95
-83
-83
-96
-121
-153
-189
-223
-250
-268
-273
-267
-250
-227
-200
-174
-151
-136
-128
-129
-137
-151
-168
-186
-203
-216
-225
-228
-225
-218
-206
-193
-179
-168
-161
-159
-162
-169
-179
-189
-198
-203
-203
-197
-187
-174
-160
-148
-140
-138
-140
-148
-160
-174
-188
-201
-211
-218
-221
-221
-219
-215
-210
-205
-200
-197
-195
-195
-197
-200
-205
-210
-215
-219
-221
-221
-219
-215
-210
-204
-199
-195
-193
-194
-199
-206
-216
-228
-241
-253
-264
-272
-275
-275
-269
-259
-245
-230
-213
-198
-186
-179
-176
-178
-185
-194
-205
-215
-223
-226
-225
-218
-206
-191
-173
-156
-141
-129
-123
-123
-128
-138
-149
-160
-167
-167
-161
-145
-122
-92
-60
-27
3
25
39
41
34
17
-5
-30
-53
-71
-81
-80
-67
-45
-15
21
57
92
121
142
157
164
166
166
168
175
189
212
244
283
326
369
407
437
454
458
446
422
386
345
302
264
233
215
211
221
245
277
313
348
375
389
387
365
325
269
201
128
55
-11
-66
-106
-131
-140
-138
-129
-118
-109
-106
-112
-126
-149
-178
-209
-239
-264
-281
-289
-288
-279
-264
-246
-230
-217
-211
-214
-224
-242
-266
-292
-317
-339
-355
-365
-366
-361
-351
-336
-320
-304
-289
-277
-269
-265
-266
-271
-282
-298
-317
-340
-364
-387
-407
-420
-424
-420
-408
-389
-367
-346
-331
-324
-328
-342
-364
-390
-416
-435
-443
-438
-419
-390
-353
-315
-282
-260
-253
-262
-285
-319
-359
-399
-432
-453
-460
-452
-431
-400
-364
-330
-302
-286
-285
-302
-337
-386
-446
-511
-574
-628
-666
-683
-674
-640
-583
-506
-416
-318
-219
-119
-19
85
202
341
513
728
989
1298
1648
2027
2416
2794
3139
3430
3651
3788
3838
3799
3680
3491
3246
2960
2649
2328
2010
1708
1430
1182
967
786
637
512
407
312
221
127
29
-73
-175
-272
-355
-417
-455
-464
-448
-410
-359
-305
-257
-222
-206
-211
-236
-275
-322
-370
-411
-441
-456
-454
-439
-412
-380
-347
-320
-302
-297
-307
-329
-362
-401
-443
-481
-511
-530
-537
-531
-513
-489
-461
-433
-411
-396
-389
-391
-401
-415
-431
-446
-458
-464
-465
-459
-448
-434
-417
-400
-384
-371
-362
-356
-355
-358
-365
-374
-384
-394
-403
-409
-412
-411
-408
-401
-393
-384
-377
-372
-369
-371
-376
-384
-393
-402
-407
-407
-401
-387
-365
-336
-303
-270
-240
-217
-204
-204
-217
-242
-276
-314
-350
-379
-398
-403
-394
-372
-341
-306
-271
-243
-224
-218
-222
-236
-254
-274
-291
-300
-299
-288
-268
-241
-211
-181
-155
-136
-125
-124
-132
-147
-166
-186
-205
-218
-224
-221
-209
-188
-161
-131
-101
-75
-55
-45
-45
-55
-74
-99
-126
-151
-171
-183
-184
-174
-152
-122
-85
-45
-7
28
56
75
85
87
83
74
63
52
44
42
45
54
70
90
114
139
162
183
198
207
209
205
198
189
184
184
192
211
240
278
320
362
399
425
439
439
427
405
380
356
340
335
343
365
396
435
475
513
543
565
576
579
574
566
558
552
551
555
567
584
608
634
662
689
713
730
739
738
727
707
680
650
622
598
585
584
596
620
653
689
723
750
765
765
749
720
682
639
597
563
540
529
531
544
564
588
610
627
636
636
625
605
576
540
500
459
417
379
347
321
303
293
290
292
296
298
296
287
272
251
224
195
168
144
126
114
107
103
100
93
81
61
33
-1
-39
-80
-118
-152
-178
-196
-205
-205
-198
-185
-169
-153
-137
-125
-119
-119
-128
-143
-166
-194
-225
-256
-284
-305
-317
-319
-311
-294
-272
-248
-226
-210
-201
-202
-211
-226
-245
-265
-281
-290
-292
-286
-272
-253
-233
-214
-199
-191
-191
-198
-213
-233
-256
-279
-299
-316
-326
-331
-328
-320
-307
-291
-273
-253
-235
-220
-209
-203
-204
-211
-226
-246
-270
-295
-319
-337
-349
-351
-345
-331
-312
-291
-273
-262
-258
-263
-276
-294
-312
-327
-334
-332
-318
-296
-266
-235
-206
-185
-174
-175
-189
-214
-247
-283
-319
-349
-373
-386
-388
-380
-365
-342
-317
-291
-267
-249
-238
-235
-239
-250
-266
-285
-302
-317
-326
-328
-322
-310
-291
-270
-249
-231
-218
-213
-216
-226
-241
-258
-274
-286
-291
-288
-278
-261
-241
-220
-202
-190
-185
-187
-197
-213
-232
-250
-267
-279
-286
-287
-282
-273
-261
-247
-232
-217
-204
-193
-186
-183
-185
-192
-204
-220
-238
-256
-272
-284
-289
-286
-275
-257
-235
-211
-189
-173
-166
-168
-179
-198
-222
-246
-266
-278
-280
-269
-247
-217
-183
-149
-121
-104
-101
-112
-137
-173
-215
-257
-294
-320
-332
-329
-311
-281
-243
-203
-167
-140
-126
-128
-144
-173
-210
-251
-288
-317
-334
-337
-326
-302
-271
-237
-205
-181
-167
-166
-177
-197
-223
-251
-277
-296
-307
-308
-300
-283
-262
-237
-213
-191
-174
-165
-163
-170
-185
-206
-232
-260
-287
-310
-325
-331
-327
-313
-292
-266
-240
-218
-204
-200
-207
-224
-249
-277
-305
-327
-341
-343
-334
-315
-289
-261
-235
-214
-202
-200
-208
-224
-247
-271
-295
-315
-328
-333
-330
-319
-302
-282
-261
-241
-227
-220
-220
-229
-245
-266
-290
-311
-328
-336
-335
-324
-305
-279
-250
-222
-198
-181
-172
-171
-178
-190
-204
-218
-227
-231
-228
-218
-200
-176
-149
-121
-95
-73
-57
-50
-52
-63
-81
-104
-128
-150
-166
-174
-171
-157
-132
-98
-61
-22
13
42
62
72
73
66
56
46
42
47
65
97
141
196
256
315
366
404
424
423
402
363
313
258
205
162
133
122
129
152
185
222
257
282
293
287
263
222
169
108
46
-13
-64
-104
-130
-143
-146
-141
-132
-125
-123
-130
-147
-174
-209
-250
-292
-330
-360
-379
-384
-377
-358
-332
-302
-275
-255
-246
-249
-265
-291
-325
-361
-396
-423
-442
-448
-442
-427
-404
-378
-353
-332
-318
-314
-318
-329
-347
-368
-389
-408
-422
-432
-436
-434
-428
-419
-409
-399
-391
-385
-383
-384
-388
-395
-403
-413
-422
-430
-436
-439
-439
-436
-431
-425
-418
-412
-409
-408
-411
-418
-428
-439
-451
-462
-470
-473
-469
-459
-441
-418
-392
-365
-342
-326
-320
-328
-350
-387
-435
-491
-549
-604
-649
-679
-690
-680
-649
-600
-536
-463
-386
-308
-231
-155
-74
19
135
283
474
715
1006
1344
1718
2110
2497
2856
3162
3394
3537
3583
3532
3392
3177
2906
2600
2279
1960
1658
1382
1135
919
730
563
413
275
144
17
-107
-228
-343
-450
-543
-619
-675
-708
-718
-708
-680
-640
-595
-550
-511
-481
-462
-453
-452
-455
-459
-461
-457
-448
-433
-415
-396
-378
-364
-355
-354
-359
-370
-385
-402
-418
-432
-441
-445
-441
-430
-414
-395
-374
-356
-343
-336
-338
-347
-362
-380
-397
-410
-416
-412
-400
-381
-357
-332
-311
-297
-292
-296
-309
-328
-350
-371
-388
-399
-401
-396
-383
-366
-346
-326
-308
-293
-282
-275
-273
-276
-282
-291
-302
-314
-325
-332
-334
-331
-320
-302
-279
-252
-225
-200
-182
-173
-173
-183
-201
-223
-246
-266
-280
-285
-281
-269
-250
-228
-205
-185
-171
-163
-161
-166
-174
-186
-198
-209
-216
-219
-215
-206
-190
-169
-144
-117
-91
-68
-50
-40
-39
-47
-63
-84
-107
-129
-145
-154
-152
-140
-119
-92
-61
-31
-5
13
22
22
14
2
-13
-26
-33
-34
-25
-8
16
44
73
100
121
134
138
134
122
104
85
67
54
48
53
70
97
133
175
218
259
292
315
325
322
309
288
265
245
231
228
237
258
290
328
370
410
446
475
495
506
510
507
499
490
481
475
473
478
490
511
539
573
609
643
672
693
701
698
683
662
638
616
603
600
610
632
663
698
732
760
778
783
776
758
732
703
675
651
633
624
624
631
646
665
687
709
730
747
760
766
765
757
743
725
705
685
666
652
642
636
635
636
638
638
635
627
614
596
572
545
516
486
458
434
414
399
389
384
382
381
378
372
359
340
313
280
243
204
167
135
111
95
87
87
90
95
98
95
86
69
45
16
-15
-46
-75
-98
-115
-125
-129
-126
-119
-109
-97
-85
-75
-68
-67
-71
-81
-96
-116
-137
-159
-178
-191
-198
-198
-191
-179
-166
-153
-146
-145
-154
-171
-196
-225
-256
-283
-303
-313
-312
-300
-278
-249
-218
-188
-163
-147
-140
-143
-155
-172
-193
-214
-232
-245
-253
-253
-249
-240
-229
-217
-206
-198
-194
-194
-199
-207
-218
-231
-243
-252
-259
-260
-256
-247
-233
-216
-197
-180
-167
-158
-156
-160
-170
-184
-200
-215
-226
-231
-229
-220
-203
-182
-157
-133
-114
-101
-97
-103
-118
-140
-167
-193
-215
-230
-234
-227
-210
-184
-155
-126
-103
-88
-85
-94
-113
-141
-171
-202
-227
-244
-251
-248
-234
-214
-189
-163
-139
-121
-110
-106
-110
-121
-136
-152
-167
-177
-180
-174
-161
-140
-113
-84
-56
-32
-17
-12
-18
-35
-59
-89
-121
-149
-172
-187
-192
-187
-174
-156
-135
-116
-100
-90
-88
-93
-103
-118
-134
-148
-159
-163
-159
-149
-132
-112
-89
-67
-49
-35
-28
-27
-32
-42
-56
-71
-86
-99
-108
-113
-112
-105
-93
-76
-56
-36
-16
-1
8
9
1
-15
-37
-64
-90
-113
-128
-135
-131
-118
-98
-75
-51
-30
-16
-10
-14
-27
-45
-68
-89
-107
-119
-121
-113
-97
-74
-47
-20
3
19
24
18
1
-24
-55
-87
-115
-135
-144
-141
-124
-98
-64
-28
6
32
48
52
45
27
3
-24
-49
-68
-79
-81
-73
-58
-39
-21
-6
1
-2
-13
-33
-58
-84
-107
-123
-130
-126
-113
-92
-67
-42
-20
-4
3
1
-9
-26
-47
-70
-91
-110
-122
-128
-126
-116
-100
-79
-54
-28
-3
17
30
34
27
11
-13
-42
-72
-100
-121
-131
-131
-119
-98
-70
-41
-13
8
20
21
12
-6
-28
-52
-73
-86
-91
-84
-66
-38
-3
36
75
111
140
161
171
170
161
144
124
104
87
75
71
76
87
103
123
142
158
171
180
186
191
198
208
222
241
264
288
310
329
343
352
355
357
358
362
370
383
400
420
439
456
469
476
477
476
473
470
471
474
481
490
499
505
507
502
490
473
451
427
403
381
362
347
336
326
318
307
293
273
248
218
182
142
99
57
18
-17
-45
-65
-77
-81
-78
-71
-61
-52
-45
-43
-46
-54
-66
-81
-96
-110
-119
-123
-121
-112
-99
-83
-66
-51
-41
-37
-41
-52
-71
-95
-122
-148
-171
-187
-193
-190
-176
-152
-122
-89
-55
-27
-8
1
-4
-21
-48
-84
-123
-161
-193
-216
-227
-225
-213
-191
-165
-140
-118
-105
-102
-109
-125
-147
-171
-193
-209
-216
-213
-200
-178
-152
-123
-98
-77
-65
-62
-69
-84
-105
-131
-157
-183
-207
-228
-245
-258
-269
-278
-285
-290
-292
-290
-283
-269
-247
-215
-173
-117
-46
44
157
299
474
687
939
1229
1553
1902
2263
2620
2957
3256
3502
3684
3795
3832
3797
3696
3537
3331
3088
2820
2535
2243
1953
1672
1406
1160
939
743
574
431
309
207
119
44
-21
-78
-125
-163
-192
-211
-221
-225
-225
-224
-225
-229
-236
-245
-254
-259
-260
-254
-241
-224
-205
-189
-179
-177
-183
-198
-218
-241
-262
-278
-287
-287
-279
-265
-249
-232
-218
-208
-204
-206
-212
-222
-234
-246
-257
-265
-270
-270
-266
-258
-247
-233
-220
-208
-199
-196
-199
-208
-222
-239
-257
-271
-280
-281
-272
-254
-229
-200
-169
-142
-121
-111
-111
-122
-141
-167
-195
-221
-242
-254
-257
-250
-233
-211
-184
-157
-133
-115
-104
-102
-107
-118
-132
-146
-159
-167
-170
-168
-160
-147
-132
-115
-100
-86
-76
-70
-68
-71
-77
-85
-94
-100
-103
-100
-90
-73
-50
-24
3
26
40
44
35
14
-17
-53
-89
-119
-138
-142
-131
-107
-72
-32
7
39
62
72
71
60
44
26
11
2
2
11
29
52
78
104
127
145
157
162
161
154
144
132
121
111
106
107
114
128
149
176
207
240
272
301
324
339
345
341
330
314
296
279
267
264
270
286
313
347
385
424
459
488
507
515
513
502
487
471
458
453
458
476
507
547
593
640
683
717
740
748
742
725
701
676
655
643
644
658
686
725
769
814
854
884
901
903
892
870
840
807
776
751
734
729
735
751
775
803
832
860
882
897
903
900
889
871
850
827
806
790
781
779
786
800
818
838
856
869
874
870
855
831
800
765
730
698
672
654
646
645
651
660
667
670
665
649
623
586
542
494
446
404
371
350
341
342
351
364
374
378
372
354
325
286
241
196
155
121
97
84
80
82
88
94
97
93
83
68
47
24
1
-19
-36
-47
-53
-53
-50
-44
-37
-30
-25
-21
-22
-26
-34
-47
-65
-85
-108
-130
-151
-167
-176
-178
-171
-156
-135
-111
-86
-64
-48
-38
-37
-44
-58
-75
-94
-112
-126
-134
-137
-135
-128
-117
-106
-95
-86
-80
-79
-83
-92
-106
-123
-142
-161
-176
-187
-191
-187
-175
-157
-134
-109
-87
-71
-62
-63
-74
-93
-118
-146
-174
-196
-212
-218
-215
-203
-184
-161
-137
-116
-101
-93
-94
-104
-120
-141
-163
-183
-198
-206
-205
-195
-179
-158
-137
-116
-101
-92
-90
-96
-108
-125
-143
-162
-178
-191
-199
-202
-201
-196
-189
-181
-173
-167
-164
-165
-169
-177
-188
-199
-208
-213
-213
-205
-191
-170
-144
-117
-93
-73
-61
-59
-66
-82
-104
-129
-152
-170
-181
-184
-178
-165
-148
-128
-109
-93
-83
-79
-81
-89
-101
-115
-129
-142
-151
-156
-156
-152
-143
-131
-117
-103
-91
-82
-77
-77
-81
-89
-99
-110
-121
-130
-135
-137
-135
-129
-121
-112
-103
-96
-92
-91
-94
-102
-113
-127
-141
-153
-162
-166
-164
-156
-143
-126
-108
-90
-75
-66
-62
-64
-71
-82
-94
-106
-115
-119
-120
-115
-108
-98
-88
-80
-76
-76
-80
-89
-102
-117
-133
-147
-158
-163
-163
-157
-145
-128
-110
-91
-75
-63
-58
-59
-67
-81
-98
-118
-136
-152
-163
-167
-166
-158
-145
-130
-113
-98
-86
-78
-76
-81
-90
-104
-120
-137
-152
-162
-167
-166
-159
-148
-134
-120
-109
-101
-99
-102
-110
-121
-133
-144
-152
-156
-155
-150
-142
-132
-121
-112
-104
-100
-99
-102
-108
-118
-130
-144
-159
-173
-186
-194
-196
-190
-177
-157
-131
-102
-74
-51
-37
-35
-47
-71
-105
-144
-183
-217
-239
-248
-242
-222
-192
-157
-122
-94
-75
-67
-71
-84
-102
-119
-132
-136
-129
-111
-83
-49
-12
22
51
70
80
79
69
53
33
15
0
-8
-9
-3
9
25
44
61
76
86
91
91
88
82
77
74
75
81
93
112
137
167
202
240
279
319
357
392
423
447
464
473
474
468
457
440
422
404
388
377
371
371
378
389
403
417
429
437
437
428
410
382
346
304
259
213
168
126
89
56
27
1
-23
-47
-71
-96
-120
-144
-166
-183
-195
-201
-200
-194
-184
-173
-164
-159
-161
-171
-188
-212
-239
-267
-292
-311
-320
-319
-308
-289
-264
-236
-211
-191
-178
-175
-182
-197
-219
-244
-269
-292
-309
-320
-323
-320
-311
-298
-283
-270
-259
-253
-253
-258
-269
-283
-300
-318
-333
-343
-348
-346
-338
-324
-308
-290
-275
-264
-260
-262
-272
-287
-307
-327
-346
-361
-369
-369
-362
-348
-329
-305
-280
-257
-237
-223
-216
-219
-231
-253
-283
-320
-362
-404
-445
-480
-508
-524
-529
-522
-503
-474
-437
-393
-343
-285
-217
-135
-33
95
255
451
687
963
1275
1614
1972
2334
2684
3007
3289
3515
3676
3765
3781
3724
3601
3419
3192
2930
2646
2353
2063
1783
1521
1281
1065
872
702
551
417
297
189
93
8
-65
-124
-170
-201
-220
-226
-225
-218
-210
-205
-205
-212
-224
-241
-259
-277
-290
-298
-299
-295
-287
-278
-272
-272
-279
-295
-318
-347
-377
-406
-428
-440
-441
-430
-408
-380
-348
-317
-293
-279
-277
-288
-311
-342
-378
-414
-444
-465
-474
-471
-456
-431
-401
-370
-341
-319
-306
-303
-308
-321
-339
-359
-377
-391
-397
-396
-386
-368
-345
-319
-294
-272
-257
-252
-256
-269
-290
-316
-341
-363
-378
-382
-376
-359
-335
-306
-277
-254
-238
-233
-239
-255
-278
-305
-330
-350
-362
-363
-353
-333
-305
-273
-241
-213
-192
-179
-177
-185
-201
-224
-249
-275
-298
-315
-323
-322
-311
-292
-265
-235
-203
-173
-149
-134
-127
-131
-143
-161
-182
-203
-218
-227
-226
-215
-196
-171
-144
-118
-98
-87
-84
-91
-106
-125
-146
-165
-178
-184
-181
-170
-151
-127
-101
-74
-48
-26
-9
2
7
6
0
-9
-21
-33
-42
-46
-43
-33
-14
12
42
73
103
128
145
153
152
144
131
117
106
102
107
122
149
183
223
265
304
336
359
371
373
365
352
336
323
315
316
326
346
373
403
434
460
480
493
497
494
486
477
470
466
469
478
493
514
538
565
590
614
634
649
657
660
656
647
636
623
611
603
602
607
619
636
656
677
694
705
709
703
690
670
647
625
607
594
589
591
599
612
626
639
649
653
651
641
626
606
582
557
531
507
486
469
455
444
435
427
419
409
397
382
362
338
310
279
247
214
183
155
131
111
98
89
85
83
83
82
77
69
55
35
11
-18
-50
-82
-112
-138
-158
-171
-177
-176
-169
-160
-150
-143
-141
-147
-160
-182
-210
-241
-272
-300
-320
-330
-330
-319
-299
-275
-249
-227
-211
-206
-211
-227
-251
-280
-309
-334
-352
-360
-357
-344
-323
-298
-272
-250
-234
-227
-231
-244
-264
-290
-316
-340
-358
-368
-370
-363
-348
-328
-306
-284
-266
-254
-249
-252
-262
-278
-298
-318
-338
-353
-363
-366
-363
-354
-340
-324
-309
-297
-289
-287
-293
-304
-320
-340
-359
-375
-387
-391
-387
-375
-356
-335
-313
-294
-282
-277
-281
-293
-310
-329
-347
-361
-366
-364
-353
-337
-316
-296
-280
-270
-268
-274
-288
-308
-330
-352
-372
-386
-394
-396
-391
-380
-366
-350
-333
-317
-303
-294
-290
-292
-299
-312
-329
-348
-367
-384
-396
-401
-399
-390
-375
-357
-337
-320
-307
-300
-300
-307
-320
-336
-352
-365
-372
-373
-366
-352
-333
-312
-291
-274
-263
-260
-265
-279
-298
-319
-340
-356
-366
-368
-362
-348
-329
-308
-289
-273
-263
-260
-264
-275
-291
-309
-327
-344
-357
-365
-366
-362
-351
-335
-316
-294
-273
-254
-241
-234
-235
-243
-258
-278
-299
-319
-335
-345
-349
-345
-335
-320
-303
-286
-270
-258
-250
-246
-246
-249
-254
-260
-268
-276
-285
-294
-302
-310
-315
-319
-321
-321
-318
-315
-312
-310
-310
-313
-318
-325
-333
-341
-346
-347
-344
-336
-326
-313
-301
-290
-284
-283
-287
-295
-307
-319
-331
-338
-340
-336
-326
-312
-295
-277
-262
-252
-248
-252
-263
-280
-302
-325
-347
-365
-377
-381
-377
-366
-349
-328
-305
-285
-268
-258
-256
-262
-276
-295
-317
-338
-356
-368
-371
-367
-355
-339
-321
-304
-293
-289
-293
-305
-323
-344
-364
-378
-385
-381
-368
-347
-321
-292
-266
-245
-231
-227
-232
-246
-265
-289
-313
-336
-355
-368
-374
-374
-366
-353
-335
-316
-297
-282
-273
-271
-277
-291
-310
-333
-355
-374
-386
-390
-385
-372
-352
-328
-302
-278
-258
-244
-234
-229
-227
-227
-224
-220
-211
-198
-182
-163
-143
-124
-107
-93
-83
-79
-81
-87
-99
-114
-130
-146
-159
-166
-165
-153
-131
-98
-57
-10
37
81
118
146
163
170
169
163
157
155
160
173
195
224
257
291
322
346
361
366
359
342
318
290
261
236
217
207
206
213
226
243
258
266
264
249
219
175
119
54
-12
-76
-131
-174
-201
-214
-212
-201
-185
-170
-161
-162
-174
-200
-236
-279
-324
-367
-402
-425
-435
-432
-418
-395
-370
-345
-326
-315
-314
-321
-337
-358
-381
-403
-422
-435
-442
-443
-437
-427
-413
-398
-382
-368
-356
-349
-345
-346
-352
-362
-375
-391
-406
-420
-431
-436
-436
-430
-420
-406
-392
-380
-372
-372
-379
-393
-413
-435
-455
-469
-474
-468
-450
-422
-389
-355
-326
-306
-300
-308
-329
-360
-396
-432
-463
-483
-491
-486
-472
-451
-428
-409
-399
-401
-417
-447
-489
-540
-593
-644
-684
-709
-714
-696
-655
-592
-510
-412
-304
-187
-62
74
223
393
590
819
1083
1384
1715
2067
2426
2776
3098
3373
3586
3723
3777
3745
3630
3440
3187
2887
2557
2215
1878
1560
1273
1025
819
652
520
416
330
253
176
96
10
-81
-173
-260
-336
-395
-433
-449
-444
-421
-387
-348
-310
-279
-258
-250
-256
-272
-296
-325
-356
-385
-409
-429
-442
-449
-449
-445
-437
-427
-415
-403
-393
-388
-387
-392
-404
-421
-441
-462
-481
-493
-496
-488
-471
-445
-415
-385
-359
-341
-334
-340
-355
-377
-402
-424
-441
-448
-445
-433
-415
-394
-375
-362
-355
-357
-366
-381
-398
-414
-427
-434
-434
-428
-417
-402
-385
-368
-352
-339
-329
-323
-320
-321
-325
-332
-342
-354
-365
-375
-380
-380
-371
-354
-327
-294
-256
-217
-184
-159
-147
-151
-169
-201
-242
-285
-326
-359
-379
-384
-373
-350
-318
-283
-249
-222
-204
-196
-199
-209
-224
-240
-253
-260
-259
-249
-231
-208
-181
-153
-129
-110
-97
-94
-98
-108
-123
-139
-154
-165
-171
-170
-164
-152
-137
-121
-105
-91
-80
-71
-64
-58
-52
-45
-37
-27
-16
-5
5
14
21
27
32
35
39
42
44
47
49
50
51
52
53
57
63
74
89
107
129
153
177
200
218
232
241
245
244
242
239
238
241
250
265
286
312
343
376
408
437
460
476
483
482
474
462
448
436
430
431
442
463
493
529
569
607
640
665
680
683
676
661
642
623
607
599
600
611
632
660
691
722
748
767
775
772
758
735
708
680
655
637
628
631
644
666
693
721
747
767
779
780
772
755
732
706
679
654
633
616
604
595
587
581
573
563
549
531
510
486
458
430
401
374
350
330
314
304
298
296
296
294
289
278
260
234
201
163
123
84
50
24
7
0
1
8
18
29
36
38
32
19
-2
-28
-58
-90
-122
-150
-172
-188
-197
-197
-189
-176
-158
-140
-125
-114
-110
-115
-127
-146
-169
-193
-214
-230
-238
-239
-232
-218
-202
-185
-171
-163
-162
-170
-185
-206
-231
-256
-277
-291
-296
-290
-273
-247
-215
-182
-153
-131
-121
-123
-139
-166
-200
-236
-269
-294
-309
-310
-300
-281
-256
-229
-205
-187
-178
-179
-190
-210
-237
-267
-299
-328
-351
-367
-373
-370
-356
-334
-306
-275
-246
-223
-208
-204
-212
-230
-255
-285
-313
-337
-351
-354
-345
-325
-298
-267
-236
-211
-195
-190
-196
-213
-238
-266
-293
-315
-329
-332
-324
-307
-283
-256
-231
-211
-200
-200
-210
-230
-255
-283
-309
-328
-338
-338
-326
-305
-277
-245
-214
-187
-166
-155
-153
-161
-176
-197
-221
-244
-264
-279
-287
-288
-281
-269
-252
-235
-219
-207
-201
-202
-210
-224
-242
-261
-278
-288
-290
-282
-265
-239
-208
-176
-147
-124
-112
-113
-125
-149
-180
-215
-248
-275
-291
-296
-288
-269
-242
-212
-182
-159
-145
-143
-153
-174
-203
-235
-266
-290
-305
-308
-298
-278
-248
-215
-181
-151
-129
-118
-117
-127
-147
-173
-202
-231
-256
-275
-287
-289
-283
-268
-248
-224
-200
-178
-162
-153
-154
-164
-181
-205
-231
-256
-277
-290
-294
-288
-274
-253
-229
-205
-185
-171
-167
-172
-185
-204
-227
-250
-269
-282
-287
-283
-271
-254
-232
-211
-192
-178
-170
-171
-178
-192
-210
-230
-250
-268
-281
-289
-291
-287
-278
-265
-249
-234
-220
-210
-206
-210
-220
-235
-255
-276
-294
-307
-311
-305
-290
-266
-236
-206
-180
-162
-155
-161
-181
-210
-247
-286
-321
-348
-364
-366
-355
-333
-303
-271
-241
-218
-205
-204
-214
-233
-259
-286
-311
-328
-336
-331
-315
-289
-256
-222
-191
-167
-154
-152
-162
-181
-204
-228
-248
-258
-256
-242
-216
-182
-143
-104
-70
-45
-31
-28
-35
-50
-69
-88
-104
-115
-120
-119
-113
-103
-91
-78
-67
-56
-47
-39
-32
-26
-20
-15
-10
-4
2
10
21
36
57
82
113
147
184
220
252
280
300
312
317
315
308
299
291
284
281
282
287
295
306
317
328
336
341
340
335
323
305
281
253
223
191
160
131
106
85
67
52
38
22
2
-24
-56
-94
-136
-180
-221
-256
-281
-295
-296
-286
-268
-245
-223
-206
-198
-202
-219
-246
-280
-317
-350
-377
-392
-393
-381
-357
-326
-290
-257
-230
-213
-209
-218
-239
-270
-308
-346
-382
-410
-427
-433
-426
-408
-382
-353
-325
-304
-292
-293
-306
-332
-365
-402
-438
-467
-485
-489
-480
-460
-431
-398
-367
-342
-325
-319
-323
-335
-353
-373
-392
-407
-416
-419
-416
-408
-396
-383
-370
-358
-349
-343
-342
-345
-352
-363
-378
-396
-416
-437
-457
-475
-490
-502
-509
-512
-510
-503
-491
-476
-456
-432
-402
-365
-317
-255
-174
-68
71
246
464
725
1029
1369
1737
2116
2491
2842
3149
3396
3570
3661
3668
3592
3443
3230
2970
2677
2366
2050
1741
1448
1177
932
714
524
359
218
96
-10
-105
-189
-267
-337
-400
-454
-497
-528
-545
-550
-543
-526
-504
-481
-458
-438
-423
-411
-403
-396
-389
-381
-371
-361
-352
-347
-347
-354
-368
-388
-413
-439
-463
-481
-490
-490
-479
-459
-432
-404
-377
-355
-342
-339
-347
-364
-387
-412
-436
-454
-463
-461
-450
-429
-404
-376
-351
-332
-321
-319
-326
-340
-359
-381
-401
-417
-428
-433
-432
-424
-411
-395
-376
-358
-341
-327
-318
-314
-315
-320
-329
-340
-350
-357
-361
-359
-353
-341
-327
-311
-297
-285
-277
-273
-272
-274
-276
-278
-278
-275
-269
-260
-250
-239
-230
-223
-219
-219
-222
-228
-236
-245
-254
-261
-266
-268
-265
-258
-246
-230
-212
-193
-175
-160
-150
-146
-148
-155
-166
-178
-188
-194
-194
-186
-171
-150
-126
-102
-80
-63
-53
-52
-58
-71
-89
-108
-127
-142
-152
-154
-148
-133
-110
-80
-44
-7
28
59
81
92
93
83
64
40
16
-5
-18
-22
-15
2
27
57
87
116
141
159
172
179
182
183
183
184
187
193
201
212
226
242
260
279
299
317
332
344
351
355
354
353
351
353
360
373
393
419
449
480
510
537
558
572
580
581
577
571
565
561
560
564
573
587
604
624
645
665
682
696
705
711
713
712
711
710
710
711
715
720
726
733
739
745
749
753
755
756
754
749
740
727
710
690
671
652
639
631
631
638
651
666
680
689
690
681
662
635
604
571
542
519
505
500
503
509
516
519
515
500
474
437
393
344
296
250
213
185
168
161
164
173
185
195
201
198
187
165
133
96
54
13
-24
-54
-74
-83
-82
-72
-57
-40
-26
-17
-17
-28
-50
-80
-115
-153
-189
-218
-238
-248
-246
-235
-218
-196
-176
-160
-151
-150
-158
-174
-195
-218
-241
-260
-273
-279
-278
-269
-254
-235
-213
-190
-169
-152
-139
-132
-132
-138
-152
-170
-193
-216
-239
-257
-268
-273
-269
-257
-240
-221
-203
-188
-181
-182
-192
-208
-229
-250
-267
-277
-278
-268
-250
-226
-199
-175
-156
-146
-147
-158
-176
-200
-224
-246
-261
-268
-267
-259
-245
-229
-214
-203
-197
-198
-205
-217
-232
-248
-262
-272
-277
-275
-269
-256
-240
-221
-201
-182
-165
-153
-146
-145
-151
-163
-180
-201
-222
-240
-254
-260
-258
-247
-228
-204
-178
-154
-135
-124
-123
-132
-149
-172
-198
-222
-241
-253
-255
-247
-231
-209
-183
-158
-136
-120
-113
-114
-123
-140
-160
-182
-203
-219
-228
-228
-220
-203
-179
-151
-123
-97
-76
-64
-61
-67
-81
-101
-123
-144
-160
-169
-170
-162
-147
-126
-104
-82
-64
-52
-47
-50
-58
-71
-87
-103
-118
-128
-135
-135
-130
-121
-107
-91
-75
-60
-51
-47
-51
-63
-81
-103
-126
-148
-163
-170
-167
-154
-133
-109
-84
-64
-52
-52
-63
-86
-116
-150
-181
-207
-221
-222
-209
-183
-149
-110
-73
-41
-19
-10
-14
-30
-56
-87
-118
-146
-167
-177
-177
-165
-145
-120
-92
-66
-44
-30
-25
-30
-42
-61
-83
-106
-125
-139
-145
-142
-130
-112
-90
-67
-46
-32
-26
-30
-45
-69
-98
-130
-159
-181
-193
-192
-180
-156
-126
-93
-61
-37
-22
-20
-30
-51
-79
-109
-138
-161
-174
-177
-169
-151
-128
-101
-75
-54
-39
-33
-34
-43
-57
-74
-92
-108
-121
-130
-134
-134
-129
-122
-112
-100
-88
-76
-65
-56
-49
-44
-41
-38
-36
-31
-24
-14
1
20
41
65
87
106
120
128
127
120
105
86
65
45
28
18
15
21
36
57
83
111
139
164
184
197
203
203
199
193
188
189
196
212
238
273
314
359
402
442
474
496
506
505
493
474
449
423
398
377
364
358
361
372
389
409
430
447
458
460
451
430
399
360
316
270
228
191
163
143
131
125
121
117
107
91
65
31
-9
-52
-95
-131
-158
-173
-174
-162
-140
-112
-84
-60
-45
-43
-55
-81
-117
-158
-201
-239
-267
-283
-285
-273
-250
-220
-187
-156
-132
-117
-114
-123
-141
-166
-193
-220
-242
-257
-263
-261
-251
-236
-217
-198
-182
-170
-164
-164
-169
-179
-191
-203
-215
-224
-229
-229
-226
-219
-209
-199
-189
-182
-179
-180
-187
-199
-214
-231
-248
-263
-273
-277
-273
-262
-244
-221
-195
-170
-149
-134
-130
-138
-159
-193
-237
-289
-345
-401
-450
-490
-515
-523
-513
-485
-441
-386
-321
-252
-181
-107
-30
56
158
285
448
656
913
1221
1575
1962
2367
2767
3137
3456
3703
3864
3930
3903
3790
3604
3363
3083
2783
2477
2177
1890
1622
1373
1144
933
741
567
408
265
137
23
-77
-164
-238
-299
-345
-377
-394
-397
-387
-366
-339
-309
-281
-258
-243
-236
-235
-240
-245
-248
-248
-242
-231
-217
-202
-191
-184
-185
-193
-209
-229
-253
-275
-294
-306
-311
-308
-298
-282
-261
-240
-220
-203
-192
-187
-189
-197
-210
-225
-241
-253
-261
-262
-257
-246
-230
-213
-197
-185
-179
-180
-187
-201
-220
-239
-258
-273
-281
-282
-275
-260
-238
-212
-184
-157
-134
-117
-109
-109
-117
-131
-148
-166
-182
-191
-194
-189
-176
-158
-137
-116
-98
-85
-79
-79
-85
-97
-112
-127
-141
-152
-159
-159
-154
-143
-127
-108
-88
-69
-55
-47
-47
-54
-67
-84
-102
-117
-126
-126
-115
-95
-66
-32
3
34
59
72
75
65
45
19
-11
-40
-64
-80
-86
-82
-68
-45
-18
12
40
63
80
89
91
86
78
68
59
53
53
59
70
87
107
128
150
169
185
197
204
207
206
202
197
192
187
186
189
198
212
231
255
281
307
329
345
353
352
343
329
311
295
285
284
296
319
355
398
445
491
531
561
579
584
578
564
546
527
514
507
509
520
540
566
596
627
657
683
704
719
727
730
727
721
713
705
700
701
708
722
743
770
799
829
854
872
880
875
860
835
804
772
745
726
720
728
750
783
823
866
905
934
951
952
937
910
872
831
791
757
735
726
731
747
771
798
822
839
845
837
816
784
744
701
660
624
597
580
574
575
581
588
590
586
572
547
513
471
424
376
331
292
260
238
225
220
222
228
234
239
239
233
219
197
169
135
100
67
38
18
8
9
18
34
51
66
73
71
57
33
2
-33
-65
-92
-109
-115
-111
-98
-80
-62
-48
-40
-39
-46
-59
-76
-95
-113
-129
-144
-155
-163
-169
-171
-171
-166
-158
-145
-129
-112
-96
-83
-75
-75
-83
-99
-120
-142
-164
-181
-190
-191
-182
-165
-144
-121
-99
-81
-71
-69
-75
-89
-107
-128
-148
-166
-179
-186
-186
-179
-168
-153
-137
-122
-110
-104
-103
-109
-120
-134
-149
-163
-173
-178
-177
-171
-160
-148
-135
-126
-121
-122
-129
-139
-153
-166
-179
-188
-193
-194
-191
-184
-176
-167
-158
-149
-141
-134
-129
-125
-124
-126
-131
-140
-150
-162
-171
-176
-176
-169
-155
-135
-113
-92
-76
-68
-71
-85
-107
-134
-160
-182
-194
-194
-180
-155
-123
-88
-57
-34
-23
-26
-40
-65
-95
-126
-154
-174
-186
-188
-182
-170
-154
-137
-120
-107
-97
-92
-91
-95
-101
-109
-118
-127
-134
-138
-138
-133
-124
-111
-96
-79
-64
-52
-45
-46
-53
-67
-87
-109
-133
-155
-172
-183
-186
-180
-166
-146
-122
-96
-73
-54
-43
-41
-48
-64
-86
-112
-138
-160
-175
-180
-175
-160
-136
-107
-77
-50
-31
-21
-24
-39
-64
-95
-128
-158
-180
-192
-193
-182
-163
-138
-114
-95
-82
-79
-85
-97
-113
-129
-140
-145
-142
-132
-117
-101
-86
-76
-73
-76
-86
-100
-115
-128
-139
-145
-146
-143
-139
-133
-129
-127
-127
-128
-131
-133
-135
-137
-138
-140
-143
-149
-157
-169
-182
-195
-206
-212
-213
-207
-194
-177
-156
-136
-119
-107
-103
-107
-117
-133
-150
-166
-178
-184
-182
-173
-159
-141
-123
-108
-97
-94
-99
-110
-126
-145
-163
-177
-185
-185
-175
-156
-129
-96
-60
-26
5
28
41
43
34
18
-5
-29
-50
-64
-69
-63
-46
-21
8
37
63
80
87
85
73
55
35
18
7
5
14
33
61
94
130
166
198
225
246
263
275
284
291
299
308
318
331
345
361
378
395
411
425
437
444
447
445
440
431
420
409
399
393
390
392
396
401
405
403
394
375
344
301
249
190
128
67
11
-36
-72
-97
-112
-117
-116
-112
-106
-101
-98
-99
-103
-111
-122
-135
-151
-170
-189
-209
-228
-245
-256
-260
-258
-248
-231
-210
-188
-169
-157
-154
-162
-179
-204
-232
-259
-281
-294
-296
-287
-269
-246
-222
-202
-190
-187
-195
-212
-235
-260
-284
-301
-311
-311
-302
-285
-265
-243
-223
-208
-199
-199
-206
-220
-238
-260
-283
-303
-320
-332
-336
-333
-323
-307
-286
-262
-239
-219
-204
-196
-195
-203
-216
-233
-251
-268
-281
-290
-293
-293
-291
-292
-299
-313
-336
-369
-408
-448
-485
-513
-526
-520
-493
-442
-371
-280
-170
-45
97
257
439
646
883
1152
1451
1778
2123
2475
2817
3134
3408
3624
3769
3836
3820
3725
3555
3322
3039
2721
2384
2046
1719
1417
1148
919
731
582
467
377
303
237
170
97
16
-72
-162
-250
-327
-389
-429
-447
-443
-419
-383
-339
-295
-256
-226
-208
-202
-208
-224
-247
-275
-304
-333
-359
-379
-393
-400
-399
-391
-378
-361
-343
-327
-316
-311
-313
-323
-338
-356
-374
-390
-401
-405
-402
-393
-378
-361
-344
-328
-317
-310
-310
-315
-326
-340
-356
-374
-390
-402
-410
-412
-406
-394
-376
-353
-327
-303
-282
-266
-259
-260
-268
-283
-300
-318
-332
-341
-341
-334
-320
-301
-281
-262
-249
-244
-247
-259
-276
-298
-319
-338
-349
-353
-346
-329
-305
-274
-241
-209
-181
-159
-146
-143
-149
-164
-185
-210
-235
-257
-272
-280
-278
-266
-246
-221
-193
-166
-144
-128
-122
-124
-135
-151
-170
-189
-203
-211
-210
-200
-182
-158
-131
-106
-84
-71
-67
-72
-87
-107
-129
-148
-161
-163
-154
-132
-100
-61
-22
14
40
53
51
35
6
-30
-68
-102
-127
-138
-134
-116
-84
-44
0
42
80
108
125
130
126
114
98
82
70
64
66
77
98
127
163
202
242
279
311
334
347
350
342
326
303
279
258
243
238
246
267
299
340
384
427
463
489
503
504
495
481
466
456
456
469
494
531
574
620
661
694
714
719
711
692
667
640
617
601
596
603
620
646
676
707
735
758
772
778
776
767
753
737
721
707
696
690
689
693
702
714
729
746
763
777
788
794
793
784
766
742
712
680
646
616
591
573
563
560
562
567
571
571
564
549
525
492
455
415
377
344
318
302
294
294
299
304
307
304
292
272
242
206
166
125
87
55
32
18
14
17
26
36
45
50
47
35
15
-14
-48
-85
-120
-151
-173
-186
-187
-179
-163
-143
-121
-103
-90
-84
-87
-96
-111
-128
-146
-162
-175
-184
-188
-188
-185
-179
-171
-163
-155
-149
-146
-147
-151
-161
-173
-188
-204
-217
-226
-229
-225
-214
-199
-182
-166
-153
-146
-146
-152
-163
-177
-190
-201
-207
-207
-202
-193
-181
-168
-156
-147
-142
-143
-150
-163
-180
-202
-226
-252
-275
-294
-305
-308
-300
-283
-257
-226
-193
-163
-140
-126
-125
-135
-155
-182
-212
-240
-262
-276
-278
-269
-251
-225
-195
-166
-141
-123
-114
-115
-126
-145
-169
-196
-220
-241
-254
-259
-256
-244
-228
-208
-189
-174
-164
-162
-167
-180
-197
-217
-237
-252
-260
-260
-249
-230
-203
-172
-140
-111
-88
-75
-73
-82
-102
-129
-160
-191
-216
-234
-241
-236
-219
-195
-165
-135
-109
-90
-81
-83
-94
-113
-136
-158
-175
-185
-186
-177
-160
-138
-115
-93
-77
-69
-70
-79
-94
-114
-135
-154
-168
-176
-177
-172
-161
-146
-130
-115
-103
-96
-95
-99
-110
-124
-141
-157
-172
-182
-187
-185
-177
-164
-148
-129
-110
-93
-78
-66
-59
-54
-53
-54
-58
-63
-70
-77
-84
-90
-94
-96
-95
-92
-89
-86
-85
-88
-94
-105
-117
-130
-140
-145
-142
-132
-115
-93
-69
-48
-34
-28
-32
-47
-69
-97
-126
-152
-172
-183
-186
-180
-167
-150
-132
-115
-101
-92
-89
-91
-97
-107
-118
-130
-140
-149
-154
-155
-152
-145
-136
-124
-112
-100
-89
-81
-76
-75
-77
-82
-89
-99
-108
-117
-124
-128
-131
-130
-127
-123
-119
-115
-114
-115
-120
-127
-138
-150
-161
-172
-178
-181
-177
-168
-154
-137
-118
-99
-82
-70
-64
-65
-73
-88
-108
-130
-152
-171
-184
-189
-185
-171
-148
-118
-86
-54
-28
-10
-2
-5
-16
-34
-55
-72
-83
-84
-74
-53
-22
14
52
87
114
131
136
129
112
88
60
33
12
0
0
15
42
81
128
177
223
261
285
293
285
263
231
196
164
143
138
152
185
235
297
364
429
485
526
549
552
537
507
467
423
382
348
326
317
323
342
371
406
441
472
492
497
485
455
407
345
274
199
128
66
18
-13
-27
-26
-15
2
18
27
24
7
-23
-64
-112
-162
-206
-241
-263
-271
-265
-248
-224
-199
-176
-160
-153
-157
-171
-193
-221
-251
-279
-304
-320
-328
-325
-312
-292
-268
-242
-219
-203
-197
-202
-218
-243
-273
-304
-332
-353
-363
-361
-346
-322
-291
-257
-225
-199
-182
-176
-181
-197
-221
-251
-283
-313
-338
-355
-362
-358
-345
-323
-297
-270
-246
-229
-223
-227
-241
-264
-292
-319
-342
-357
-360
-351
-332
-306
-277
-250
-232
-225
-234
-258
-298
-349
-407
-468
-524
-570
-602
-614
-606
-578
-530
-467
-393
-311
-224
-135
-41
61
178
318
491
704
963
1269
1616
1994
2388
2777
3140
3454
3700
3865
3940
3922
3818
3637
3393
3105
2790
2465
2146
1844
1568
1323
1112
932
780
650
534
428
326
226
126
28
-65
-146
-212
-259
-286
-294
-286
-268
-247
-229
-220
-222
-235
-258
-286
-313
-335
-349
-351
-342
-325
-304
-284
-268
-260
-261
-273
-294
-320
-350
-378
-404
-424
-437
-442
-440
-431
-417
-399
-380
-361
-344
-331
-325
-325
-332
-346
-364
-385
-405
-421
-430
-432
-425
-410
-389
-365
-341
-319
-303
-295
-294
-302
-315
-332
-350
-365
-376
-379
-374
-361
-342
-317
-291
-267
-247
-235
-231
-236
-249
-267
-287
-305
-318
-324
-321
-309
-292
-270
-248
-229
-216
-211
-213
-223
-238
-256
-273
-287
-295
-296
-289
-274
-253
-229
-204
-181
-162
-149
-144
-146
-157
-173
-194
-216
-236
-251
-260
-260
-250
-232
-206
-177
-146
-118
-96
-82
-78
-84
-98
-118
-141
-163
-182
-194
-198
-193
-179
-159
-134
-107
-80
-57
-38
-25
-19
-17
-21
-28
-38
-47
-56
-62
-65
-63
-56
-45
-29
-11
8
26
42
54
60
62
60
54
49
45
44
48
59
74
94
116
137
156
171
180
184
185
183
181
181
185
194
209
228
252
278
304
328
350
368
380
388
391
390
388
386
387
391
401
418
441
470
503
537
569
596
616
628
631
626
616
604
593
586
584
588
598
612
629
646
661
672
680
683
683
680
675
671
667
665
665
668
673
680
689
699
708
716
723
728
730
728
725
719
711
702
693
684
676
669
663
657
651
644
635
625
612
597
579
559
537
514
490
468
447
430
416
405
398
392
387
381
372
359
340
316
287
253
217
180
145
115
90
72
61
56
56
58
59
56
48
32
10
-18
-48
-78
-104
-122
-130
-128
-117
-100
-82
-67
-59
-63
-80
-109
-147
-191
-235
-272
-300
-314
-314
-301
-277
-249
-220
-195
-177
-170
-174
-188
-208
-233
-257
-277
-291
-297
-294
-285
-271
-254
-238
-225
-217
-214
-218
-226
-239
-254
-269
-285
-298
-309
-316
-318
-316
-310
-298
-281
-261
-239
-218
-202
-192
-192
-202
-222
-250
-283
-316
-345
-365
-373
-368
-352
-328
-299
-270
-247
-232
-229
-236
-252
-273
-298
-320
-337
-347
-348
-342
-330
-314
-297
-282
-270
-264
-262
-267
-275
-287
-299
-311
-319
-324
-324
-319
-310
-298
-284
-270
-258
-249
-243
-241
-241
-243
-245
-247
-248
-247
-245
-243
-242
-241
-242
-245
-249
-254
-259
-264
-269
-275
-281
-287
-295
-304
-313
-320
-325
-324
-317
-304
-284
-259
-232
-206
-184
-168
-162
-165
-177
-195
-218
-240
-260
-274
-280
-277
-267
-250
-230
-209
-191
-179
-174
-178
-190
-209
-232
-257
-279
-295
-304
-302
-291
-272
-249
-224
-203
-188
-182
-187
-201
-221
-244
-266
-282
-288
-283
-268
-243
-213
-182
-153
-132
-120
-120
-130
-149
-174
-202
-229
-252
-268
-277
-277
-270
-256
-238
-217
-196
-177
-164
-157
-158
-167
-184
-206
-230
-254
-273
-285
-288
-280
-262
-237
-208
-181
-158
-145
-142
-152
-173
-202
-234
-264
-290
-306
-311
-304
-288
-266
-242
-219
-201
-191
-189
-195
-207
-224
-241
-256
-267
-274
-275
-270
-261
-249
-234
-221
-208
-199
-195
-196
-203
-215
-231
-249
-267
-282
-291
-295
-290
-279
-263
-243
-224
-207
-194
-188
-188
-193
-203
-215
-228
-240
-251
-260
-267
-273
-276
-279
-280
-281
-280
-280
-279
-278
-279
-281
-285
-290
-297
-302
-306
-307
-303
-295
-282
-266
-248
-233
-221
-215
-217
-227
-244
-266
-290
-311
-328
-336
-335
-324
-304
-279
-250
-222
-197
-180
-170
-168
-173
-183
-194
-204
-209
-206
-195
-175
-147
-114
-78
-44
-15
6
17
17
7
-12
-37
-63
-88
-107
-118
-120
-111
-94
-68
-39
-7
24
51
72
86
94
97
96
96
99
108
126
154
191
236
284
331
372
403
420
422
409
382
345
304
263
227
201
188
187
200
223
253
287
319
345
361
364
352
326
286
236
180
122
67
19
-19
-47
-65
-74
-78
-81
-86
-96
-112
-135
-164
-196
-230
-261
-287
-304
-313
-313
-304
-290
-273
-257
-245
-240
-242
-253
-271
-293
-317
-340
-357
-367
-369
-362
-350
-334
-318
-306
-300
-302
-312
-328
-348
-369
-386
-397
-400
-394
-381
-361
-340
-320
-304
-296
-297
-308
-327
-352
-381
-411
-440
-464
-483
-494
-499
-495
-485
-467
-444
-417
-389
-362
-339
-324
-318
-324
-341
-367
-399
-431
-459
-478
-484
-476
-455
-424
-387
-352
-324
-308
-308
-325
-359
-406
-462
-522
-579
-629
-667
-689
-693
-680
-649
-603
-545
-477
-403
-324
-240
-149
-47
72
216
392
608
867
1170
1513
1885
2273
2656
3016
3330
3578
3747
3825
3808
3701
3510
3253
2945
2608
2261
1923
1607
1325
1081
876
707
567
448
341
238
135
28
-81
-189
-291
-378
-446
-489
-505
-494
-462
-414
-359
-306
-263
-236
-228
-241
-270
-311
-358
-402
-439
-463
-473
-468
-452
-427
-398
-371
-349
-336
-333
-339
-354
-374
-397
-419
-437
-450
-455
-452
-442
-428
-412
-397
-385
-379
-380
-387
-399
-412
-425
-433
-434
-427
-410
-388
-361
-334
-311
-295
-287
-289
-300
-318
-340
-364
-385
-403
-415
-421
-419
-410
-395
-375
-352
-326
-301
-279
-262
-252
-250
-257
-271
-291
-313
-335
-353
-363
-364
-355
-338
-314
-288
-261
-239
-222
-213
-212
-219
-230
-245
-260
-273
-282
-286
-285
-280
-271
-261
-250
-242
-237
-236
-239
-245
-253
-262
-269
-273
-273
-267
-256
-241
-223
-204
-187
-175
-167
-166
-170
-179
-192
-205
-216
-222
-223
-216
-202
-182
-158
-133
-109
-88
-73
-66
-66
-73
-86
-102
-119
-134
-146
-151
-150
-142
-128
-108
-85
-60
-36
-13
5
20
29
33
35
34
32
32
35
42
54
71
92
115
138
159
175
186
190
187
178
166
153
143
137
139
149
167
193
225
259
293
325
351
370
380
383
379
371
361
352
346
347
356
373
399
433
471
511
549
582
606
620
624
618
605
589
573
561
557
562
578
603
635
671
705
734
754
763
761
748
728
703
679
658
646
643
651
667
689
713
734
750
756
752
739
719
695
671
651
639
635
641
653
671
690
708
720
726
724
714
697
672
643
610
575
540
506
475
449
428
414
407
405
406
407
406
399
385
361
328
288
244
198
156
121
93
76
66
64
65
67
66
61
50
32
10
-16
-43
-70
-95
-116
-134
-146
-155
-160
-162
-162
-160
-158
-156
-156
-159
-166
-177
-193
-212
-234
-255
-273
-287
-293
-292
-284
-269
-252
-235
-222
-214
-213
-220
-233
-250
-268
-283
-293
-296
-291
-280
-263
-245
-228
-215
-209
-211
-220
-237
-260
-285
-311
-333
-349
-358
-357
-347
-328
-304
-278
-253
-232
-221
-219
-229
-249
-277
-309
-341
-368
-386
-393
-389
-373
-348
-319
-289
-262
-243
-233
-235
-247
-267
-293
-322
-349
-371
-387
-393
-391
-382
-365
-346
-325
-305
-290
-280
-276
-279
-288
-302
-319
-338
-356
-371
-382
-387
-385
-376
-360
-339
-317
-297
-282
-274
-277
-289
-310
-336
-363
-387
-403
-408
-402
-384
-359
-329
-301
-279
-266
-264
-274
-293
-318
-345
-369
-387
-396
-396
-386
-368
-344
-317
-290
-265
-243
-227
-217
-215
-219
-230
-245
-265
-285
-304
-319
-330
-334
-331
-322
-309
-294
-279
-267
-260
-257
-261
-268
-278
-289
-297
-302
-302
-297
-288
-276
-263
-251
-242
-237
-239
-246
-258
-274
-292
-309
-324
-333
-334
-327
-311
-288
-260
-231
-204
-183
-171
-170
-180
-199
-224
-251
-277
-297
-308
-309
-300
-283
-260
-237
-216
-200
-192
-192
-201
-216
-236
-256
-275
-289
-296
-294
-284
-266
-241
-215
-189
-169
-156
-155
-166
-189
-220
-257
-293
-324
-345
-353
-347
-328
-299
-265
-230
-201
-181
-173
-178
-195
-221
-251
-283
-312
-334
-348
-352
-347
-334
-315
-293
-269
-246
-226
-211
-202
-200
-203
-213
-226
-242
-258
-271
-280
-283
-279
-268
-252
-234
-215
-200
-191
-190
-199
-216
-240
-268
-296
-319
-335
-341
-337
-322
-300
-274
-247
-225
-210
-205
-210
-224
-245
-268
-291
-309
-320
-322
-315
-300
-279
-254
-228
-205
-187
-175
-170
-173
-181
-193
-206
-219
-227
-228
-220
-202
-174
-137
-94
-50
-9
24
46
55
48
28
-2
-38
-75
-107
-131
-145
-146
-136
-117
-92
-64
-36
-12
8
23
33
39
43
47
51
58
69
84
104
128
155
186
217
248
276
301
321
334
341
342
337
329
319
310
303
300
301
307
316
328
339
349
355
355
347
332
309
280
247
213
179
147
119
95
76
60
46
31
15
-3
-26
-53
-84
-116
-148
-177
-202
-221
-231
-233
-229
-220
-207
-196
-186
-182
-184
-192
-205
-220
-236
-249
-257
-260
-257
-249
-237
-225
-213
-205
-201
-203
-210
-221
-236
-252
-268
-283
-295
-304
-309
-309
-304
-294
-280
-264
-246
-230
-218
-212
-213
-223
-241
-265
-293
-321
-344
-361
-368
-364
-350
-329
-303
-278
-257
-243
-238
-244
-258
-279
-303
-326
-345
-357
-361
-356
-344
-326
-305
-285
-267
-254
-247
-246
-252
-263
-277
-295
-315
-338
-362
-387
-413
-440
-467
-492
-512
-524
-527
-518
-496
-462
-416
-359
-291
-213
-122
-16
112
268
459
690
962
1276
1623
1991
2365
2723
3047
3316
3515
3632
3665
3614
3488
3298
3061
2792
2507
2217
1935
1666
1415
1183
971
778
601
439
291
156
34
-75
-171
-253
-321
-373
-411
-436
-449
-453
-450
-444
-436
-428
-421
-413
-405
-395
-381
-364
-343
-320
-297
-275
-259
-250
-248
-253
-265
-280
-296
-310
-320
-325
-324
-317
-307
-296
-286
-280
-279
-284
-295
-310
-328
-346
-362
-373
-378
-376
-367
-353
-333
-312
-291
-271
-255
-243
-237
-236
-239
-247
-259
-272
-286
-300
-311
-318
-321
-317
-308
-293
-275
-256
-239
-225
-219
-220
-229
-245
-265
-286
-303
-315
-317
-308
-290
-263
-232
-199
-170
-147
-134
-131
-138
-153
-173
-194
-213
-226
-231
-227
-214
-194
-168
-141
-115
-93
-79
-74
-79
-93
-114
-140
-165
-187
-202
-206
-198
-179
-150
-115
-78
-44
-18
-1
4
-1
-15
-33
-51
-65
-73
-71
-61
-44
-22
-1
18
32
37
35
25
9
-10
-30
-48
-62
-69
-69
-60
-44
-20
10
44
78
109
136
154
163
162
152
136
116
95
79
69
68
77
93
116
143
170
195
215
229
236
236
232
223
213
205
199
199
205
219
241
268
301
334
366
393
413
423
425
418
405
391
379
373
377
392
418
453
495
539
581
617
644
659
663
658
645
628
611
599
594
599
614
640
674
713
753
790
819
839
846
842
829
809
787
766
752
746
750
763
782
805
828
846
857
860
853
839
820
798
776
758
744
736
734
737
745
757
772
788
804
819
831
838
838
829
811
783
749
710
670
633
602
580
567
563
564
567
568
562
549
525
492
452
408
365
326
294
271
257
253
254
260
265
269
267
258
240
215
183
147
109
73
42
19
5
1
4
14
26
38
44
44
35
17
-8
-37
-68
-96
-118
-132
-136
-131
-119
-102
-82
-63
-48
-39
-38
-45
-59
-79
-103
-127
-149
-165
-174
-174
-165
-147
-124
-98
-73
-53
-41
-40
-50
-69
-97
-127
-157
-181
-197
-201
-193
-176
-152
-126
-102
-84
-75
-76
-87
-104
-125
-146
-163
-174
-179
-176
-169
-158
-148
-139
-133
-131
-133
-139
-147
-158
-170
-182
-196
-208
-220
-229
-234
-234
-229
-216
-198
-176
-152
-130
-111
-100
-97
-104
-119
-140
-164
-186
-204
-216
-219
-214
-201
-184
-165
-147
-134
-127
-126
-133
-145
-160
-176
-190
-200
-205
-203
-195
-182
-165
-148
-133
-122
-116
-116
-122
-133
-147
-161
-174
-182
-185
-180
-168
-151
-130
-109
-90
-76
-68
-69
-78
-93
-112
-132
-150
-165
-173
-173
-168
-157
-142
-126
-111
-98
-90
-87
-88
-94
-103
-115
-127
-138
-148
-154
-156
-154
-147
-136
-123
-107
-92
-79
-68
-61
-58
-58
-61
-66
-72
-77
-82
-85
-87
-88
-87
-85
-82
-79
-75
-73
-72
-75
-80
-89
-101
-115
-128
-139
-145
-144
-135
-118
-94
-68
-41
-18
-3
2
-5
-24
-51
-85
-121
-154
-179
-194
-197
-189
-170
-144
-115
-88
-67
-54
-52
-60
-78
-102
-128
-154
-174
-187
-190
-183
-167
-144
-117
-90
-66
-48
-39
-38
-48
-67
-92
-120
-149
-173
-190
-198
-195
-182
-160
-132
-103
-77
-58
-49
-53
-69
-96
-130
-167
-202
-229
-246
-248
-236
-212
-177
-138
-99
-66
-44
-35
-40
-57
-85
-117
-150
-178
-198
-207
-204
-191
-171
-148
-126
-108
-98
-97
-106
-124
-147
-173
-198
-218
-230
-232
-223
-203
-174
-140
-106
-75
-53
-42
-44
-60
-87
-121
-156
-188
-211
-221
-217
-198
-167
-127
-84
-43
-8
17
31
35
29
17
2
-13
-25
-32
-32
-26
-15
0
18
35
50
63
70
73
72
67
59
51
44
40
41
48
63
83
111
143
177
212
246
276
300
318
331
338
342
346
350
358
370
388
411
437
464
488
506
515
512
498
473
440
403
366
333
309
295
292
299
311
324
334
335
325
301
264
216
162
105
51
5
-32
-58
-73
-78
-76
-69
-61
-54
-51
-52
-58
-70
-86
-107
-131
-157
-183
-206
-226
-239
-245
-244
-236
-223
-209
-195
-186
-184
-189
-201
-219
-239
-257
-270
-275
-270
-256
-235
-209
-183
-160
-145
-139
-142
-155
-176
-202
-231
-259
-284
-305
-319
-327
-328
-323
-312
-297
-281
-265
-251
-243
-241
-247
-260
-278
-300
-323
-343
-357
-363
-359
-346
-325
-297
-267
-237
-211
-191
-180
-180
-189
-206
-230
-256
-284
-309
-331
-349
-364
-376
-389
-404
-421
-442
-463
-482
-497
-501
-493
-469
-427
-367
-288
-190
-74
63
223
409
625
873
1155
1469
1807
2161
2518
2862
3178
3450
3664
3812
3887
3887
3814
3673
3473
3224
2939
2629
2308
1988
1683
1400
1148
931
751
604
487
393
313
241
171
99
24
-53
-127
-195
-251
-293
-319
-329
-324
-307
-284
-258
-232
-209
-192
-182
-178
-180
-188
-202
-220
-242
-268
-295
-322
-348
-370
-386
-396
-397
-391
-378
-360
-341
-323
-310
-304
-305
-315
-330
-349
-368
-383
-391
-389
-378
-359
-335
-309
-287
-272
-268
-276
-294
-321
-352
-383
-408
-425
-431
-426
-411
-388
-360
-332
-307
-286
-272
-265
-265
-271
-281
-294
-308
-320
-329
-332
-330
-320
-303
-280
-253
-225
-199
-180
-170
-171
-183
-204
-233
-264
-291
-312
-321
-316
-298
-270
-234
-197
-163
-139
-126
-127
-141
-164
-193
-222
-247
-262
-266
-258
-239
-212
-181
-151
-124
-105
-95
-95
-103
-117
-135
-155
-173
-188
-199
-204
-203
-196
-185
-170
-153
-134
-116
-99
-85
-74
-68
-66
-67
-72
-78
-83
-85
-85
-79
-69
-54
-37
-18
0
15
25
30
30
24
14
3
-8
-15
-18
-14
-3
14
38
64
92
117
139
154
162
162
157
147
136
126
119
119
127
143
166
194
225
257
285
308
324
332
333
328
320
312
307
307
316
335
362
395
433
470
503
529
544
549
543
529
509
489
472
461
459
467
485
510
541
573
603
629
648
660
664
662
655
647
638
632
630
632
639
650
666
683
702
720
736
748
755
757
754
745
732
716
701
688
681
680
687
702
722
745
768
786
795
793
778
752
716
675
632
593
561
538
525
521
523
528
533
534
530
518
499
473
441
406
370
335
303
276
255
242
236
238
245
255
265
271
269
256
231
195
149
97
44
-4
-42
-68
-79
-78
-65
-48
-29
-16
-11
-17
-35
-64
-100
-140
-179
-212
-236
-248
-248
-236
-215
-189
-161
-137
-120
-113
-117
-133
-158
-190
-222
-252
-275
-288
-289
-278
-259
-235
-210
-189
-176
-172
-179
-195
-218
-244
-268
-287
-299
-303
-297
-284
-267
-248
-230
-217
-210
-210
-216
-227
-241
-255
-267
-275
-279
-279
-276
-271
-264
-259
-255
-253
-254
-257
-261
-267
-274
-282
-291
-301
-311
-320
-328
-334
-336
-333
-326
-315
-300
-285
-271
-262
-258
-260
-269
-283
-299
-316
-330
-338
-340
-335
-322
-303
-280
-256
-234
-217
-207
-205
-214
-231
-256
-286
-317
-346
-369
-382
-384
-375
-354
-325
-292
-259
-232
-214
-207
-214
-233
-260
-293
-325
-352
-369
-374
-366
-345
-316
-282
-249
-221
-203
-198
-206
-225
-253
-285
-317
-342
-358
-362
-355
-336
-310
-281
-252
-227
-210
-202
-203
-212
-226
-243
-260
-275
-285
-291
-290
-284
-273
-258
-241
-222
-204
-188
-175
-168
-168
-174
-186
-203
-222
-240
-255
-264
-265
-257
-243
-225
-205
-187
-174
-169
-173
-185
-203
-225
-247
-266
-279
-285
-282
-273
-258
-241
-224
-210
-201
-198
-201
-209
-221
-234
-246
-254
-258
-256
-248
-236
-220
-204
-189
-177
-171
-172
-180
-195
-216
-240
-264
-285
-301
-307
-303
-289
-265
-234
-201
-171
-147
-133
-132
-144
-165
-193
-222
-247
-263
-268
-261
-244
-222
-198
-177
-164
-161
-167
-182
-201
-221
-238
-249
-255
-254
-249
-242
-236
-232
-232
-235
-240
-245
-249
-252
-251
-249
-247
-245
-245
-248
-252
-257
-261
-263
-260
-253
-242
-227
-212
-198
-188
-184
-187
-197
-213
-233
-254
-272
-286
-293
-293
-284
-268
-247
-224
-201
-181
-166
-156
-153
-155
-160
-166
-172
-175
-173
-165
-152
-133
-110
-84
-58
-34
-14
1
8
7
-2
-18
-41
-66
-92
-114
-130
-136
-132
-116
-90
-57
-20
18
52
79
97
106
106
100
93
87
89
101
125
163
212
269
329
384
430
461
474
467
443
404
358
310
267
234
216
214
226
250
280
312
338
355
358
346
319
278
228
172
114
59
11
-28
-55
-72
-79
-79
-77
-76
-78
-87
-103
-127
-156
-188
-220
-248
-271
-285
-291
-288
-278
-264
-247
-232
-219
-211
-209
-214
-226
-243
-264
-287
-309
-328
-342
-349
-348
-341
-327
-310
-293
-277
-267
-262
-266
-276
-292
-311
-331
-349
-362
-368
-367
-357
-340
-317
-291
-266
-244
-228
-222
-227
-242
-267
-298
-333
-368
-397
-417
-427
-425
-413
-394
-370
-345
-323
-307
-298
-297
-302
-312
-324
-335
-345
-350
-352
-349
-344
-337
-332
-330
-334
-345
-367
-397
-437
-483
-532
-578
-616
-640
-644
-625
-583
-517
-432
-331
-220
-104
16
139
270
415
582
780
1014
1289
1604
1951
2318
2689
3044
3362
3623
3812
3917
3933
3860
3705
3480
3201
2885
2550
2214
1892
1596
1335
1114
931
783
663
561
469
378
281
175
62
-55
-168
-269
-349
-401
-422
-413
-378
-325
-264
-207
-162
-138
-137
-160
-203
-259
-321
-378
-426
-457
-471
-466
-447
-418
-384
-353
-329
-315
-314
-325
-346
-373
-402
-428
-447
-456
-454
-441
-421
-395
-369
-346
-330
-323
-326
-337
-355
-377
-399
-420
-435
-444
-446
-441
-430
-414
-396
-377
-358
-341
-328
-320
-317
-321
-331
-346
-363
-381
-398
-408
-412
-405
-389
-364
-333
-300
-269
-245
-231
-230
-242
-266
-298
-333
-367
-394
-410
-413
-402
-380
-348
-313
-279
-250
-231
-223
-228
-243
-266
-293
-318
-337
-347
-345
-331
-306
-274
-239
-205
-176
-157
-150
-154
-169
-190
-216
-240
-259
-271
-273
-267
-253
-235
-215
-196
-181
-172
-169
-172
-180
-191
-203
-213
-220
-222
-218
-208
-193
-172
-149
-124
-100
-79
-63
-54
-51
-54
-63
-76
-88
-98
-103
-101
-90
-71
-47
-19
9
33
51
61
62
55
42
26
11
-1
-6
-3
9
29
56
88
122
156
187
213
234
247
252
250
241
229
214
201
193
193
203
224
256
294
336
375
407
428
434
427
407
380
353
332
324
332
360
405
464
530
596
655
701
728
736
726
701
667
629
595
568
552
548
557
577
604
635
666
693
714
728
734
732
724
713
701
691
685
686
694
709
729
753
776
796
812
820
820
814
801
784
765
745
728
714
704
698
694
692
692
691
689
683
673
657
636
610
579
545
511
480
453
432
420
414
415
418
420
417
408
389
361
324
282
238
195
157
127
106
95
91
92
97
102
104
101
91
75
51
21
-13
-50
-87
-120
-146
-163
-168
-162
-144
-119
-89
-61
-39
-28
-31
-50
-83
-128
-178
-228
-273
-307
-326
-330
-321
-300
-272
-244
-218
-199
-190
-191
-201
-217
-237
-258
-275
-286
-291
-287
-277
-263
-246
-229
-214
-204
-199
-200
-206
-217
-230
-243
-256
-266
-273
-276
-275
-271
-264
-256
-248
-241
-235
-233
-235
-240
-251
-264
-280
-297
-312
-323
-329
-329
-322
-310
-293
-275
-257
-242
-233
-229
-231
-239
-250
-263
-276
-288
-298
-303
-305
-302
-295
-284
-271
-256
-241
-227
-216
-211
-211
-218
-232
-252
-274
-297
-318
-331
-337
-332
-319
-298
-273
-248
-228
-215
-213
-223
-242
-269
-299
-330
-355
-373
-381
-380
-369
-353
-333
-312
-295
-282
-274
-273
-277
-284
-295
-306
-315
-323
-326
-324
-317
-306
-291
-273
-254
-237
-225
-218
-217
-225
-238
-256
-275
-293
-306
-311
-308
-296
-278
-255
-232
-212
-197
-191
-193
-203
-219
-238
-256
-269
-276
-275
-265
-247
-226
-202
-181
-164
-155
-153
-161
-175
-193
-213
-231
-245
-252
-252
-245
-232
-214
-194
-175
-159
-148
-142
-143
-150
-161
-175
-191
-206
-218
-226
-228
-224
-214
-199
-181
-161
-142
-127
-117
-113
-117
-128
-145
-165
-185
-204
-218
-225
-224
-216
-203
-186
-169
-154
-144
-141
-146
-159
-178
-202
-226
-247
-264
-272
-272
-261
-242
-216
-187
-157
-131
-112
-102
-102
-111
-129
-152
-178
-201
-220
-231
-233
-228
-215
-199
-183
-169
-160
-158
-163
-174
-190
-208
-224
-237
-244
-244
-236
-223
-204
-184
-163
-146
-134
-128
-130
-138
-153
-171
-190
-207
-220
-226
-224
-215
-200
-181
-161
-143
-130
-123
-125
-133
-147
-165
-182
-197
-207
-209
-204
-192
-174
-153
-132
-114
-101
-96
-99
-111
-130
-154
-180
-205
-226
-239
-241
-233
-215
-187
-153
-115
-78
-44
-16
4
15
18
13
3
-10
-24
-37
-46
-50
-49
-42
-30
-15
1
16
27
34
35
32
26
20
17
20
31
51
78
112
147
182
211
234
247
253
252
248
244
244
249
261
280
304
333
363
392
419
441
459
471
476
474
466
450
429
404
378
351
329
311
301
298
300
304
308
306
296
274
239
193
136
74
11
-49
-100
-139
-164
-173
-169
-153
-130
-104
-80
-64
-59
-67
-88
-121
-161
-205
-245
-276
-293
-295
-280
-253
-216
-178
-144
-120
-112
-120
-144
-181
-226
-272
-314
-347
-367
-374
-366
-347
-321
-292
-263
-239
-222
-214
-216
-226
-244
-267
-292
-316
-338
-353
-362
-363
-356
-343
-325
-305
-285
-268
-256
-251
-253
-262
-276
-293
-311
-327
-337
-341
-336
-322
-302
-276
-249
-223
-204
-192
-191
-200
-218
-242
-270
-297
-320
-338
-349
-355
-358
-362
-369
-382
-401
-426
-454
-478
-495
-497
-482
-445
-387
-307
-209
-94
37
184
350
539
757
1009
1298
1623
1978
2352
2730
3092
3417
3687
3883
3995
4017
3950
3803
3588
3319
3015
2691
2364
2045
1744
1468
1219
1000
809
645
504
383
278
186
104
30
-38
-101
-157
-206
-247
-279
-302
-316
-323
-322
-317
-308
-297
-284
-271
-259
-248
-239
-234
-232
-236
-245
-260
-281
-305
-330
-354
-374
-389
-395
-394
-385
-369
-350
-331
-314
-302
-298
-301
-312
-328
-348
-368
-385
-396
-398
-392
-378
-359
-337
-315
-297
-286
-282
-285
-296
-311
-328
-345
-358
-367
-370
-368
-359
-346
-330
-312
-294
-277
-262
-250
-243
-241
-244
-252
-264
-278
-292
-305
-312
-314
-309
-297
-280
-259
-239
-222
-211
-208
-213
-226
-244
-265
-284
-299
-307
-306
-296
-279
-257
-232
-209
-188
-174
-166
-166
-172
-182
-195
-209
-221
-229
-232
-229
-219
-202
-180
-154
-128
-104
-86
-76
-76
-85
-102
-124
-147
-165
-176
-176
-164
-142
-114
-83
-55
-34
-23
-23
-33
-52
-75
-98
-117
-128
-130
-122
-105
-80
-52
-22
6
30
47
57
60
57
49
37
25
14
8
6
11
22
39
61
86
111
135
155
170
180
184
182
178
172
168
169
175
189
210
237
269
301
331
353
366
368
358
340
316
291
271
260
261
277
307
349
398
451
501
543
575
594
600
593
579
559
538
521
510
509
516
533
559
589
622
656
686
711
729
740
744
741
734
725
716
710
709
714
728
748
774
802
830
853
868
871
862
841
811
776
741
710
690
683
691
711
741
776
809
834
848
848
833
805
767
724
681
643
612
590
577
573
575
581
588
593
593
588
575
556
529
496
459
421
382
347
317
293
275
263
255
249
242
232
219
200
177
150
122
95
70
49
33
22
15
11
9
6
2
-5
-15
-30
-48
-69
-93
-117
-140
-159
-172
-179
-179
-171
-159
-143
-127
-113
-105
-105
-112
-127
-149
-175
-202
-226
-246
-258
-261
-257
-244
-225
-203
-181
-162
-148
-142
-144
-154
-171
-192
-215
-237
-256
-268
-272
-268
-257
-241
-221
-201
-182
-168
-160
-159
-164
-175
-189
-205
-221
-235
-244
-248
-247
-241
-231
-220
-209
-200
-196
-196
-202
-212
-225
-241
-256
-270
-279
-284
-284
-279
-271
-260
-248
-237
-230
-226
-229
-237
-251
-268
-288
-308
-324
-333
-334
-324
-305
-278
-247
-216
-190
-174
-172
-184
-209
-246
-287
-328
-361
-383
-389
-379
-355
-322
-285
-250
-223
-208
-207
-218
-240
-269
-300
-328
-350
-364
-368
-363
-350
-332
-310
-289
-269
-252
-241
-235
-235
-241
-252
-267
-285
-303
-318
-330
-335
-334
-326
-311
-291
-269
-248
-231
-220
-218
-224
-238
-258
-280
-301
-318
-326
-324
-311
-289
-259
-227
-196
-171
-156
-153
-161
-180
-206
-234
-259
-279
-290
-291
-282
-265
-242
-217
-194
-175
-163
-158
-162
-173
-190
-211
-234
-255
-273
-283
-285
-277
-259
-232
-199
-163
-129
-102
-85
-81
-92
-115
-148
-187
-226
-261
-287
-301
-303
-292
-271
-245
-217
-193
-175
-167
-169
-181
-201
-225
-250
-272
-287
-293
-289
-275
-253
-227
-198
-171
-150
-137
-133
-140
-156
-179
-207
-236
-262
-280
-290
-288
-275
-252
-222
-188
-156
-130
-113
-109
-118
-140
-171
-209
-247
-280
-303
-315
-313
-299
-275
-246
-217
-193
-177
-172
-178
-194
-215
-238
-258
-271
-275
-269
-254
-234
-210
-189
-172
-164
-165
-175
-192
-214
-238
-260
-278
-290
-295
-294
-285
-271
-253
-230
-205
-178
-151
-126
-103
-85
-73
-68
-70
-78
-90
-103
-113
-118
-115
-103
-84
-59
-33
-10
6
12
5
-13
-42
-75
-110
-139
-157
-161
-149
-121
-81
-32
19
68
109
138
154
158
153
143
133
128
132
147
173
210
252
296
337
370
392
399
392
372
343
307
271
237
212
196
193
201
219
243
270
294
310
315
304
277
235
179
114
46
-21
-80
-127
-160
-177
-179
-169
-151
-129
-108
-93
-87
-92
-110
-140
-180
-226
-274
-319
-357
-383
-396
-396
-383
-361
-333
-306
-282
-267
-261
-266
-280
-300
-322
-343
-360
-371
-375
-373
-367
-359
-351
-345
-343
-344
-351
-362
-376
-393
-411
-429
-446
-461
-471
-477
-476
-469
-457
-440
-421
-402
-387
-377
-374
-378
-389
-405
-422
-436
-446
-447
-439
-423
-401
-375
-350
-330
-319
-317
-326
-345
-372
-401
-430
-455
-472
-480
-478
-468
-452
-434
-418
-408
-407
-418
-441
-476
-517
-561
-600
-628
-640
-629
-595
-536
-453
-350
-231
-98
49
208
384
581
804
1058
1344
1660
2001
2355
2709
3044
3342
3587
3762
3858
3868
3794
3640
3415
3135
2814
2470
2119
1778
1459
1172
924
717
549
416
309
221
143
68
-10
-92
-178
-263
-344
-414
-467
-501
-514
-506
-482
-447
-406
-367
-334
-311
-301
-304
-319
-341
-369
-398
-425
-447
-461
-467
-464
-455
-439
-421
-401
-384
-371
-365
-366
-375
-389
-409
-430
-451
-469
-480
-484
-480
-468
-450
-427
-403
-380
-361
-347
-340
-341
-349
-364
-384
-406
-428
-447
-461
-468
-465
-453
-432
-406
-376
-346
-322
-306
-302
-309
-328
-355
-387
-419
-445
-462
-466
-457
-435
-405
-370
-336
-307
-288
-280
-284
-297
-318
-341
-362
-378
-387
-386
-378
-363
-344
-323
-305
-290
-280
-275
-274
-276
-280
-284
-287
-288
-287
-284
-280
-275
-269
-262
-256
-250
-245
-241
-240
-241
-246
-254
-264
-276
-286
-292
-291
-282
-263
-236
-203
-168
-134
-107
-90
-85
-92
-110
-134
-161
-185
-201
-206
-199
-181
-154
-121
-88
-57
-33
-19
-15
-21
-34
-53
-74
-93
-107
-115
-114
-104
-85
-58
-26
9
43
74
98
113
119
116
106
90
74
60
51
51
61
80
108
141
177
212
242
266
280
287
286
279
270
260
253
251
254
263
279
299
323
348
373
397
418
435
448
458
465
472
479
487
499
513
531
552
574
595
615
631
642
647
645
639
628
615
602
593
591
597
612
638
673
715
758
799
832
853
857
845
816
775
727
678
637
608
596
602
625
661
703
745
780
802
808
798
774
739
700
660
626
602
589
588
597
613
632
650
661
664
655
633
599
556
507
455
405
361
327
305
295
295
302
313
323
328
323
307
278
239
192
140
88
40
-1
-32
-54
-66
-70
-69
-65
-61
-58
-60
-66
-76
-91
-110
-131
-153
-174
-193
-208
-216
-217
-211
-197
-178
-156
-134
-116
-105
-103
-113
-133
-161
-194
-227
-256
-278
-288
-288
-277
-260
-239
-218
-202
-192
-191
-198
-210
-226
-243
-258
-268
-273
-273
-267
-258
-245
-232
-219
-208
-201
-198
-200
-206
-217
-231
-246
-259
-270
-276
-276
-268
-254
-236
-216
-197
-183
-177
-180
-192
-213
-239
-268
-295
-317
-331
-334
-327
-311
-289
-263
-237
-215
-200
-192
-193
-202
-217
-234
-251
-265
-274
-276
-269
-256
-238
-217
-197
-180
-170
-169
-177
-193
-217
-246
-277
-307
-332
-349
-358
-356
-346
-326
-301
-273
-244
-219
-199
-187
-184
-191
-205
-226
-250
-273
-292
-304
-307
-299
-283
-261
-236
-212
-194
-185
-186
-197
-217
-243
-271
-297
-317
-327
-328
-318
-300
-275
-247
-218
-193
-174
-163
-161
-168
-184
-206
-233
-259
-282
-297
-301
-292
-270
-236
-194
-150
-109
-79
-62
-63
-81
-113
-155
-201
-242
-273
-290
-290
-273
-243
-204
-163
-124
-94
-75
-69
-76
-94
-119
-149
-177
-202
-218
-224
-219
-204
-182
-154
-126
-101
-84
-77
-81
-97
-122
-152
-184
-212
-232
-242
-241
-229
-209
-183
-156
-131
-111
-99
-95
-99
-110
-127
-148
-170
-191
-208
-221
-227
-226
-217
-202
-183
-163
-143
-129
-121
-121
-130
-146
-166
-189
-209
-224
-232
-231
-223
-208
-189
-169
-151
-138
-132
-132
-139
-152
-168
-184
-199
-209
-215
-215
-209
-199
-185
-170
-155
-144
-137
-135
-141
-152
-169
-188
-209
-229
-244
-252
-252
-242
-223
-196
-165
-132
-103
-80
-66
-63
-70
-85
-105
-125
-142
-150
-148
-134
-109
-77
-42
-7
22
41
49
44
28
3
-27
-58
-86
-106
-115
-113
-99
-73
-38
3
46
89
126
157
177
189
191
188
180
174
171
175
188
209
238
271
305
335
358
371
373
363
345
321
295
270
251
239
236
241
253
270
289
305
318
322
317
301
273
235
189
137
83
32
-12
-46
-67
-75
-72
-59
-43
-29
-21
-24
-41
-72
-115
-166
-219
-269
-309
-335
-345
-338
-318
-288
-253
-219
-192
-175
-171
-180
-201
-231
-266
-301
-332
-355
-367
-368
-358
-339
-315
-288
-263
-242
-230
-227
-234
-250
-273
-300
-327
-352
-371
-383
-384
-376
-361
-339
-315
-292
-273
-262
-259
-267
-282
-304
-330
-356
-379
-397
-406
-407
-399
-384
-364
-341
-319
-299
-286
-279
-280
-289
-303
-321
-339
-353
-360
-358
-347
-327
-303
-278
-259
-250
-257
-281
-322
-376
-437
-496
-543
-570
-572
-544
-487
-407
-308
-199
-87
23
130
236
350
481
639
834
1073
1358
1684
2040
2410
2773
3109
3396
3615
3754
3803
3762
3636
3433
3167
2855
2515
2165
1820
1497
1207
956
750
585
459
361
282
210
137
53
-43
-150
-264
-377
-479
-561
-616
-641
-636
-604
-553
-492
-430
-375
-333
-308
-299
-305
-321
-344
-367
-387
-401
-408
-407
-400
-388
-373
-358
-345
-337
-335
-340
-351
-369
-391
-414
-436
-454
-466
-469
-464
-451
-433
-411
-389
-370
-356
-348
-348
-354
-365
-379
-393
-406
-414
-417
-414
-405
-391
-372
-351
-329
-309
-293
-283
-280
-284
-296
-314
-335
-355
-373
-384
-386
-379
-363
-341
-315
-290
-270
-258
-256
-263
-279
-300
-323
-344
-360
-369
-370
-364
-351
-333
-311
-288
-265
-244
-226
-212
-203
-199
-203
-212
-227
-245
-264
-280
-291
-292
-285
-267
-242
-213
-184
-161
-146
-143
-152
-172
-199
-230
-258
-279
-289
-286
-270
-242
-208
-171
-137
-110
-94
-90
-97
-114
-136
-158
-178
-190
-192
-184
-167
-142
-114
-85
-59
-40
-27
-23
-26
-34
-46
-58
-70
-78
-82
-80
-72
-58
-40
-18
6
30
51
69
80
85
83
77
67
57
49
48
56
72
96
127
161
195
223
245
256
257
250
236
221
207
199
200
212
235
268
307
350
390
426
454
473
481
481
475
465
455
449
449
456
470
492
519
548
578
606
630
647
658
662
662
658
653
649
648
652
662
677
697
721
747
772
794
810
820
821
815
803
784
764
744
727
717
715
723
739
762
788
813
833
845
846
834
811
780
743
705
670
643
624
616
618
628
642
658
672
681
683
676
661
637
606
570
532
495
460
431
409
393
385
382
383
383
381
373
358
335
304
267
226
184
145
112
86
69
60
58
60
64
66
65
56
40
17
-13
-46
-80
-111
-135
-150
-156
-151
-138
-120
-100
-82
-70
-66
-70
-82
-101
-123
-146
-165
-179
-187
-187
-181
-170
-157
-143
-131
-122
-118
-119
-125
-136
-150
-166
-183
-197
-209
-216
-217
-211
-201
-186
-168
-151
-137
-129
-127
-133
-146
-165
-187
-208
-225
-235
-237
-229
-213
-190
-163
-138
-116
-101
-96
-101
-115
-135
-160
-185
-206
-220
-226
-222
-209
-188
-163
-137
-113
-95
-83
-81
-87
-100
-119
-139
-159
-175
-186
-191
-190
-183
-173
-161
-150
-140
-132
-129
-129
-132
-139
-148
-157
-168
-178
-186
-192
-195
-193
-188
-179
-167
-154
-143
-136
-135
-140
-152
-169
-190
-209
-224
-231
-227
-213
-190
-159
-126
-96
-71
-56
-51
-58
-75
-98
-123
-147
-166
-177
-180
-173
-158
-138
-114
-91
-71
-56
-50
-54
-66
-87
-113
-143
-172
-196
-214
-222
-219
-208
-188
-164
-138
-115
-96
-84
-79
-81
-89
-103
-119
-137
-155
-170
-182
-188
-188
-180
-163
-139
-110
-78
-48
-23
-7
-4
-15
-37
-67
-102
-136
-162
-177
-179
-168
-147
-119
-90
-66
-50
-45
-50
-65
-84
-105
-122
-134
-136
-129
-114
-92
-67
-43
-22
-8
-3
-8
-23
-46
-74
-105
-134
-158
-174
-179
-172
-156
-132
-103
-75
-50
-34
-27
-32
-46
-69
-96
-125
-151
-171
-184
-187
-181
-166
-145
-120
-95
-72
-53
-41
-37
-42
-54
-71
-93
-115
-135
-150
-159
-161
-155
-142
-124
-102
-80
-59
-41
-26
-17
-12
-11
-13
-16
-17
-17
-12
-4
8
24
40
56
69
78
80
75
64
48
29
9
-8
-21
-26
-24
-13
5
29
56
84
109
130
145
152
154
150
144
139
137
141
154
176
207
244
284
324
359
386
402
406
400
386
366
345
326
312
305
306
314
329
349
370
391
408
421
426
422
410
388
357
318
273
225
177
131
92
59
36
20
10
5
0
-6
-17
-34
-57
-83
-112
-139
-162
-178
-185
-183
-173
-157
-140
-123
-111
-106
-110
-122
-142
-167
-195
-221
-242
-256
-262
-258
-247
-230
-212
-196
-186
-184
-190
-205
-226
-250
-272
-289
-297
-296
-284
-264
-240
-215
-194
-180
-176
-183
-200
-225
-254
-284
-311
-331
-343
-345
-338
-324
-304
-280
-256
-234
-217
-205
-201
-203
-211
-224
-241
-257
-273
-285
-293
-295
-293
-287
-278
-267
-257
-249
-243
-241
-243
-250
-262
-281
-305
-335
-370
-407
-442
-471
-488
-490
-472
-433
-374
-298
-208
-108
-2
110
228
357
506
681
891
1142
1435
1765
2124
2496
2862
3202
3495
3723
3875
3942
3925
3828
3662
3440
3178
2892
2596
2305
2027
1771
1539
1333
1151
989
841
703
570
438
307
178
56
-55
-149
-221
-268
-289
-286
-266
-236
-203
-176
-161
-161
-176
-204
-240
-278
-311
-337
-350
-353
-345
-330
-312
-296
-284
-280
-283
-294
-312
-333
-355
-376
-393
-406
-412
-413
-408
-399
-388
-375
-363
-353
-346
-343
-345
-350
-359
-370
-381
-391
-398
-400
-398
-390
-376
-359
-339
-319
-301
-287
-280
-281
-290
-305
-325
-347
-367
-381
-387
-383
-368
-346
-317
-287
-260
-238
-226
-225
-233
-249
-271
-294
-314
-329
-337
-335
-324
-306
-283
-258
-233
-211
-194
-184
-181
-185
-196
-211
-228
-244
-258
-267
-269
-264
-253
-237
-218
-198
-181
-169
-164
-165
-173
-186
-202
-218
-231
-240
-243
-238
-226
-209
-188
-165
-143
-124
-110
-103
-103
-109
-121
-137
-154
-168
-178
-181
-176
-162
-140
-113
-84
-58
-37
-26
-24
-32
-48
-67
-85
-97
-101
-93
-74
-46
-13
21
50
71
80
78
66
47
24
3
-13
-21
-19
-8
12
38
68
100
130
157
179
197
209
217
219
218
215
212
209
210
215
226
242
262
287
313
337
359
375
385
389
387
382
376
372
373
380
393
414
440
469
499
528
552
570
583
589
589
587
582
579
577
579
586
597
612
631
653
675
697
716
732
742
748
747
741
730
717
704
693
687
687
695
711
733
758
783
805
820
826
822
809
788
763
737
714
697
687
686
691
700
712
722
728
728
721
706
683
654
621
585
549
515
487
467
455
452
457
468
480
488
488
475
447
404
348
282
214
149
95
55
31
24
31
46
65
81
89
87
74
50
17
-19
-55
-88
-113
-130
-137
-136
-129
-117
-105
-95
-89
-90
-99
-114
-136
-161
-187
-211
-230
-242
-247
-245
-237
-226
-213
-203
-196
-195
-201
-211
-226
-243
-260
-274
-284
-288
-285
-277
-263
-246
-227
-209
-195
-185
-181
-184
-193
-207
-224
-243
-262
-278
-290
-296
-296
-289
-278
-262
-245
-227
-211
-200
-195
-198
-208
-224
-246
-270
-295
-315
-329
-334
-330
-316
-295
-270
-244
-221
-206
-200
-206
-221
-244
-271
-298
-320
-335
-340
-333
-317
-294
-268
-242
-222
-209
-207
-215
-233
-257
-285
-313
-337
-356
-367
-370
-367
-357
-343
-327
-312
-298
-286
-278
-272
-270
-270
-273
-277
-284
-291
-299
-306
-312
-314
-314
-310
-302
-293
-283
-274
-268
-267
-270
-279
-291
-305
-318
-329
-335
-336
-331
-322
-311
-299
-288
-280
-276
-274
-276
-279
-283
-287
-290
-290
-289
-287
-283
-277
-271
-264
-257
-251
-247
-244
-246
-251
-259
-271
-283
-295
-303
-305
-298
-284
-262
-236
-207
-181
-162
-151
-152
-164
-185
-211
-240
-265
-284
-293
-292
-282
-264
-241
-217
-196
-180
-170
-167
-172
-182
-196
-211
-227
-239
-249
-254
-254
-251
-245
-236
-227
-219
-213
-210
-210
-215
-222
-231
-241
-249
-255
-258
-258
-255
-251
-246
-241
-238
-238
-239
-241
-244
-245
-245
-244
-241
-236
-232
-229
-227
-228
-230
-234
-239
-245
-250
-254
-259
-263
-267
-272
-278
-284
-290
-293
-292
-286
-276
-261
-242
-223
-205
-192
-186
-188
-198
-216
-238
-261
-280
-293
-297
-288
-269
-240
-205
-167
-131
-100
-78
-64
-61
-64
-74
-86
-98
-108
-114
-115
-110
-100
-86
-70
-52
-34
-17
-4
5
10
9
5
-1
-9
-14
-16
-12
-1
17
40
66
93
118
140
157
168
176
179
182
185
190
199
211
226
243
261
279
295
307
316
319
317
311
301
288
274
260
248
239
234
232
233
234
232
225
211
187
154
112
64
12
-40
-87
-127
-157
-177
-187
-188
-184
-177
-170
-167
-169
-178
-195
-218
-246
-277
-308
-336
-360
-376
-384
-384
-376
-361
-343
-322
-303
-287
-277
-274
-279
-290
-307
-327
-349
-369
-385
-395
-399
-395
-384
-369
-351
-334
-320
-310
-307
-311
-322
-338
-357
-377
-396
-410
-419
-421
-417
-407
-393
-378
-362
-350
-342
-339
-342
-350
-361
-373
-386
-397
-404
-407
-405
-399
-389
-376
-361
-345
-328
-311
-295
-282
-273
-270
-274
-286
-307
-337
-374
-417
-461
-505
-544
-575
-596
-606
-602
-585
-557
-517
-467
-408
-339
-258
-164
-51
84
246
441
671
939
1242
1575
1928
2291
2649
2985
3285
3534
3722
3841
3888
3864
3774
3624
3423
3182
2911
2621
2322
2023
1735
1463
1216
996
806
645
511
400
305
223
149
79
12
-52
-110
-163
-207
-241
-267
-284
-295
-301
-307
-311
-317
-322
-327
-332
-335
-336
-337
-339
-343
-352
-365
-382
-403
-425
-446
-461
-468
-465
-453
-433
-407
-380
-356
-340
-334
-340
-358
-384
-416
-449
-476
-495
-501
-495
-476
-448
-414
-380
-351
-330
-320
-321
-333
-352
-375
-398
-417
-429
-433
-429
-417
-399
-379
-359
-341
-328
-321
-321
-326
-338
-352
-368
-383
-395
-401
-399
-389
-371
-347
-320
-291
-265
-244
-231
-227
-232
-244
-261
-279
-297
-310
-317
-318
-312
-300
-285
-269
-252
-238
-228
-223
-224
-230
-242
-256
-273
-289
-302
-310
-311
-303
-287
-264
-236
-206
-179
-156
-142
-137
-142
-155
-174
-195
-215
-230
-238
-236
-226
-208
-185
-160
-135
-113
-98
-89
-88
-94
-105
-120
-136
-151
-164
-171
-171
-163
-148
-126
-97
-66
-34
-6
17
31
34
27
11
-10
-32
-51
-62
-62
-48
-22
13
54
94
128
151
160
154
135
108
77
49
30
24
32
55
89
131
176
220
257
285
303
311
309
302
291
279
269
264
266
274
291
314
343
376
411
444
473
495
508
512
508
498
484
472
463
463
474
494
525
563
604
645
681
709
727
733
729
716
698
678
659
645
637
638
646
663
686
712
739
762
781
791
792
783
765
740
711
682
657
640
632
635
648
667
691
714
733
743
742
731
708
678
642
606
572
545
525
513
510
512
518
524
527
525
514
494
464
427
383
335
288
243
204
174
153
141
136
137
140
140
136
124
104
76
42
6
-28
-56
-75
-83
-80
-67
-48
-27
-8
3
4
-7
-30
-64
-104
-148
-190
-227
-256
-274
-282
-280
-270
-255
-238
-222
-208
-199
-196
-199
-206
-217
-230
-243
-253
-259
-258
-251
-237
-219
-199
-181
-167
-161
-164
-176
-198
-226
-256
-285
-307
-321
-325
-317
-300
-276
-249
-222
-201
-187
-181
-185
-197
-215
-237
-260
-281
-297
-307
-310
-305
-294
-278
-259
-242
-227
-219
-219
-227
-242
-263
-286
-309
-328
-340
-345
-341
-329
-312
-292
-273
-257
-245
-240
-240
-246
-256
-269
-282
-294
-305
-313
-318
-319
-317
-312
-303
-292
-279
-265
-253
-243
-238
-238
-245
-259
-277
-298
-318
-335
-347
-350
-346
-335
-319
-302
-286
-276
-274
-281
-297
-320
-348
-375
-400
-419
-429
-429
-421
-405
-384
-361
-339
-321
-309
-304
-306
-314
-328
-345
-362
-377
-389
-395
-394
-386
-373
-356
-337
-319
-304
-295
-293
-298
-309
-325
-342
-357
-368
-372
-367
-355
-336
-312
-287
-263
-244
-232
-228
-231
-241
-255
-270
-284
-295
-300
-299
-292
-280
-264
-248
-233
-221
-216
-216
-224
-238
-258
-280
-302
-322
-338
-346
-348
-342
-330
-314
-295
-278
-263
-253
-250
-253
-262
-275
-291
-307
-321
-330
-334
-330
-319
-302
-280
-256
-232
-211
-196
-188
-189
-199
-215
-237
-261
-284
-305
-319
-327
-326
-319
-306
-289
-271
-255
-243
-238
-239
-247
-260
-278
-296
-312
-324
-328
-324
-311
-292
-269
-244
-222
-205
-196
-196
-202
-214
-229
-243
-253
-258
-256
-248
-233
-215
-195
-175
-157
-142
-131
-123
-120
-119
-121
-124
-126
-128
-127
-122
-114
-101
-84
-65
-45
-27
-14
-9
-11
-22
-40
-62
-84
-102
-112
-112
-100
-78
-46
-10
29
65
97
124
145
162
176
189
203
217
233
248
262
273
282
288
291
293
294
295
295
294
291
285
275
262
247
232
220
212
212
217
228
240
248
249
237
212
172
120
59
-5
-66
-119
-161
-190
-206
-211
-209
-203
-197
-193
-194
-201
-213
-230
-250
-273
-297
-322
-345
-365
-380
-390
-394
-391
-383
-371
-358
-347
-340
-340
-347
-362
-382
-405
-428
-446
-458
-460
-452
-436
-413
-387
-361
-339
-323
-315
-315
-323
-337
-355
-374
-393
-410
-423
-431
-435
-434
-429
-423
-415
-409
-404
-403
-406
-413
-423
-435
-449
-462
-473
-481
-485
-484
-478
-467
-453
-434
-412
-389
-367
-347
-332
-323
-323
-331
-348
-372
-400
-429
-457
-481
-501
-516
-527
-538
-549
-564
-581
-600
-615
-623
-618
-595
-552
-486
-397
-288
-162
-21
133
303
490
698
933
1198
1494
1817
2162
2515
2862
3187
3472
3700
3861
3945
3948
3873
3724
3512
3248
2947
2622
2289
1963
1653
1372
1125
915
742
604
493
402
323
247
170
88
1
-87
-173
-251
-315
-361
-386
-392
-380
-356
-325
-294
-267
-249
-242
-246
-262
-285
-315
-346
-378
-406
-430
-448
-459
-464
-463
-459
-452
-444
-438
-434
-434
-439
-449
-463
-479
-495
-509
-519
-522
-518
-508
-492
-473
-454
-438
-427
-424
-428
-440
-457
-478
-500
-519
-534
-542
-542
-534
-519
-499
-475
-448
-423
-399
-380
-367
-362
-364
-372
-386
-403
-420
-434
-444
-446
-441
-428
-411
-390
-371
-356
-347
-346
-353
-367
-384
-402
-418
-427
-428
-421
-405
-382
-355
-326
-299
-277
-262
-254
-254
-262
-277
-295
-314
-332
-346
-354
-354
-347
-331
-309
-284
-256
-232
-213
-202
-201
-210
-229
-253
-280
-305
-323
-331
-326
-307
-276
-237
-194
-155
-125
-109
-109
-127
-159
-200
-245
-286
-316
-330
-326
-303
-265
-217
-165
-116
-76
-50
-39
-45
-63
-91
-123
-154
-180
-197
-202
-194
-175
-147
-112
-73
-36
-4
22
38
44
42
34
23
13
8
10
21
41
68
100
134
165
191
209
218
219
213
202
189
177
168
167
173
188
212
243
279
318
355
389
415
433
441
440
431
418
405
394
389
392
405
426
455
488
523
556
585
607
621
627
626
618
606
592
578
567
562
564
573
591
616
645
677
707
733
751
760
758
747
727
704
679
657
642
636
639
651
670
693
716
737
750
754
748
732
708
679
648
620
596
581
575
577
586
598
609
616
615
604
582
549
507
460
410
362
318
281
252
233
221
215
212
211
207
198
184
162
134
99
60
20
-19
-54
-83
-103
-115
-119
-116
-108
-98
-89
-83
-84
-91
-104
-124
-148
-175
-201
-223
-240
-249
-249
-243
-230
-215
-200
-190
-188
-195
-214
-242
-277
-314
-347
-373
-388
-387
-373
-347
-312
-276
-242
-216
-202
-203
-216
-241
-272
-306
-337
-362
-376
-380
-373
-358
-337
-314
-294
-277
-266
-262
-266
-275
-287
-302
-316
-328
-335
-337
-333
-323
-309
-291
-273
-256
-242
-234
-233
-239
-251
-269
-289
-308
-325
-336
-340
-337
-328
-314
-298
-282
-269
-262
-260
-266
-279
-297
-318
-341
-362
-379
-389
-391
-385
-370
-347
-321
-294
-270
-252
-245
-248
-262
-285
-313
-343
-369
-389
-398
-396
-385
-365
-342
-318
-297
-283
-276
-276
-281
-291
-303
-315
-326
-334
-340
-342
-343
-341
-337
-330
-322
-313
-304
-296
-291
-290
-295
-306
-320
-338
-355
-369
-377
-377
-368
-351
-328
-302
-278
-258
-246
-243
-250
-265
-286
-308
-329
-345
-353
-353
-344
-328
-307
-283
-259
-238
-223
-214
-213
-218
-230
-247
-266
-285
-300
-311
-315
-312
-303
-289
-272
-255
-239
-228
-221
-220
-223
-228
-235
-240
-242
-241
-236
-228
-217
-205
-193
-184
-178
-176
-179
-186
-197
-212
-227
-243
-256
-266
-270
-269
-262
-249
-234
-216
-199
-185
-175
-170
-171
-177
-185
-195
-204
-210
-212
-209
-202
-192
-180
-169
-161
-156
-157
-163
-175
-190
-208
-227
-246
-262
-274
-280
-281
-275
-263
-246
-225
-203
-181
-161
-148
-140
-141
-150
-166
-188
-213
-238
-259
-274
-281
-278
-267
-248
-223
-197
-171
-149
-132
-122
-118
-119
-124
-130
-135
-137
-133
-124
-109
-89
-67
-43
-21
-3
10
15
13
5
-9
-25
-43
-57
-67
-71
-66
-54
-35
-12
14
38
59
75
85
89
87
84
82
84
93
113
142
181
227
275
322
361
390
404
403
388
361
326
290
256
230
216
214
224
246
275
309
343
372
393
401
395
373
336
285
223
155
86
21
-35
-78
-105
-117
-116
-104
-89
-75
-67
-70
-85
-111
-146
-187
-226
-261
-285
-298
-297
-285
-264
-239
-214
-195
-183
-181
-190
-209
-233
-262
-289
-313
-331
-342
-345
-340
-331
-318
-304
-292
-283
-279
-279
-284
-294
-307
-320
-334
-346
-354
-358
-356
-348
-335
-318
-300
-283
-270
-264
-266
-278
-299
-327
-360
-392
-420
-438
-445
-439
-420
-391
-356
-321
-292
-273
-266
-274
-293
-320
-351
-380
-400
-409
-405
-388
-362
-332
-302
-280
-269
-272
-291
-324
-369
-420
-474
-525
-567
-595
-607
-599
-569
-519
-452
-369
-276
-176
-74
28
131
239
358
499
670
881
1138
1443
1790
2171
2566
2956
3317
3627
3865
4017
4074
4035
3907
3699
3428
3113
2773
2426
2090
1777
1497
1255
1053
886
750
636
535
439
342
240
134
26
-78
-173
-251
-308
-342
-354
-346
-325
-296
-268
-246
-235
-236
-251
-276
-308
-343
-377
-405
-424
-432
-429
-415
-392
-363
-332
-304
-282
-271
-272
-285
-310
-344
-382
-419
-449
-469
-476
-469
-451
-423
-391
-361
-336
-321
-318
-326
-344
-368
-393
-415
-429
-434
-428
-412
-390
-364
-339
-318
-306
-302
-307
-319
-336
-353
-369
-380
-386
-385
-379
-368
-356
-343
-331
-321
-314
-310
-310
-311
-315
-319
-323
-326
-327
-324
-316
-303
-286
-264
-241
-219
-201
-189
-186
-192
-207
-231
-259
-289
-316
-337
-350
-354
-347
-331
-308
-280
-250
-223
-199
-183
-174
-175
-184
-201
-222
-245
-265
-278
-280
-271
-250
-218
-178
-136
-97
-66
-49
-47
-61
-88
-124
-163
-200
-228
-244
-245
-233
-210
-180
-147
-116
-91
-76
-70
-74
-85
-101
-119
-134
-145
-149
-145
-134
-117
-95
-71
-48
-27
-10
1
6
6
2
-5
-11
-16
-17
-14
-5
10
30
55
84
114
145
174
199
218
230
234
229
218
202
184
168
160
161
175
201
239
285
334
379
416
440
449
441
421
393
363
338
323
324
340
372
416
467
517
562
597
619
626
622
609
592
576
566
563
572
590
616
647
681
713
740
761
773
777
773
764
751
735
720
707
698
693
693
699
711
727
747
768
788
805
815
816
808
789
762
730
695
663
638
621
616
622
636
654
671
683
685
675
652
617
573
525
478
436
401
377
362
355
353
352
349
340
325
301
270
234
196
157
122
93
72
60
55
58
65
73
79
80
74
59
36
6
-29
-65
-100
-130
-153
-169
-176
-176
-169
-159
-147
-134
-122
-113
-107
-105
-109
-119
-134
-155
-180
-206
-232
-253
-269
-276
-274
-263
-247
-228
-211
-201
-199
-208
-228
-254
-285
-313
-334
-343
-339
-322
-292
-256
-218
-183
-158
-145
-146
-160
-186
-220
-256
-291
-318
-336
-343
-337
-322
-298
-270
-242
-218
-201
-194
-198
-213
-235
-262
-290
-315
-333
-341
-338
-326
-306
-281
-256
-234
-220
-214
-218
-231
-252
-276
-300
-322
-338
-347
-348
-341
-328
-310
-289
-268
-250
-236
-228
-226
-231
-243
-260
-280
-301
-321
-338
-348
-352
-347
-336
-320
-302
-284
-271
-262
-261
-266
-277
-291
-306
-318
-324
-324
-316
-302
-284
-264
-245
-231
-223
-222
-229
-243
-263
-286
-310
-332
-349
-361
-364
-359
-346
-326
-300
-271
-243
-219
-201
-192
-193
-204
-222
-245
-269
-289
-302
-304
-296
-277
-251
-221
-191
-165
-148
-142
-146
-160
-180
-205
-230
-250
-265
-272
-270
-260
-243
-221
-195
-168
-142
-118
-100
-89
-86
-93
-110
-133
-162
-191
-219
-239
-251
-253
-244
-228
-209
-189
-174
-166
-166
-173
-186
-201
-215
-224
-227
-223
-213
-199
-183
-170
-160
-155
-154
-158
-165
-174
-184
-193
-203
-211
-219
-225
-229
-231
-230
-225
-216
-203
-188
-172
-159
-149
-146
-149
-160
-176
-195
-215
-233
-245
-249
-246
-233
-214
-191
-166
-144
-127
-117
-115
-121
-134
-151
-169
-184
-196
-201
-200
-193
-183
-172
-162
-156
-155
-160
-169
-182
-196
-208
-215
-215
-206
-188
-161
-129
-92
-56
-24
1
18
24
22
12
-2
-17
-31
-39
-43
-40
-33
-22
-11
0
9
15
20
23
26
30
36
44
54
65
77
90
104
119
137
157
180
207
234
262
286
307
321
328
329
326
321
317
317
322
332
347
364
380
393
399
397
386
368
345
319
292
268
247
231
219
210
202
193
181
166
146
121
90
56
18
-21
-59
-94
-124
-146
-160
-164
-160
-148
-130
-111
-93
-81
-76
-82
-97
-121
-151
-184
-215
-242
-261
-270
-271
-262
-248
-230
-212
-196
-185
-180
-181
-189
-203
-222
-242
-263
-282
-296
-304
-303
-295
-280
-258
-233
-207
-184
-169
-162
-166
-181
-206
-236
-270
-302
-328
-344
-348
-341
-323
-297
-268
-240
-218
-204
-200
-207
-222
-243
-267
-291
-310
-323
-328
-326
-316
-302
-284
-267
-252
-241
-235
-235
-241
-253
-268
-286
-305
-324
-341
-355
-368
-377
-384
-389
-390
-386
-377
-361
-337
-304
-261
-206
-140
-60
35
151
291
461
665
905
1183
1494
1832
2185
2537
2874
3176
3430
3621
3741
3786
3758
3661
3503
3296
3049
2776
2487
2192
1901
1621
1360
1120
905
717
555
415
295
191
98
13
-67
-141
-210
-271
-324
-365
-395
-411
-416
-412
-401
-385
-369
-353
-339
-328
-318
-311
-305
-298
-293
-288
-284
-283
-285
-290
-299
-310
-323
-336
-346
-353
-355
-352
-345
-335
-324
-314
-308
-306
-310
-318
-331
-345
-359
-370
-376
-377
-371
-358
-340
-320
-298
-279
-264
-255
-253
-260
-273
-291
-312
-333
-351
-362
-365
-358
-342
-318
-288
-257
-229
-206
-193
-192
-203
-224
-253
-286
-317
-341
-355
-355
-340
-313
-275
-233
-191
-155
-129
-117
-119
-133
-157
-185
-212
-233
-245
-246
-236
-216
-191
-165
-141
-123
-113
-113
-123
-139
-160
-183
-204
-221
-232
-235
-230
-216
-195
-169
-141
-113
-89
-70
-60
-58
-64
-79
-98
-118
-137
-150
-155
-150
-136
-113
-85
-55
-27
-6
8
10
3
-13
-34
-56
-76
-88
-92
-85
-68
-43
-14
17
44
64
74
75
67
53
35
18
5
0
3
16
37
63
93
123
150
173
189
200
204
203
200
194
189
185
184
187
193
204
219
237
258
282
306
328
349
366
377
384
386
386
383
383
386
394
410
433
462
496
530
563
591
612
625
631
629
624
618
614
614
620
631
649
671
695
720
744
764
780
791
797
798
796
791
784
778
774
772
775
782
793
807
822
837
847
853
852
845
831
813
792
773
756
745
741
743
752
765
780
794
805
811
811
805
792
773
750
725
699
674
652
634
621
613
610
609
610
608
602
590
570
541
505
464
420
378
340
310
290
279
277
281
289
296
301
298
287
268
240
205
167
128
93
63
42
30
26
30
40
52
64
72
73
67
51
27
-3
-36
-70
-100
-122
-134
-133
-120
-96
-64
-29
4
30
46
48
36
11
-24
-65
-107
-143
-171
-187
-189
-179
-160
-133
-105
-79
-59
-47
-46
-54
-71
-94
-118
-141
-159
-169
-170
-160
-142
-117
-90
-65
-46
-36
-39
-55
-82
-117
-156
-194
-226
-247
-255
-249
-230
-202
-167
-131
-99
-74
-60
-58
-66
-83
-106
-130
-152
-168
-176
-175
-166
-150
-130
-109
-91
-78
-73
-77
-90
-110
-134
-160
-182
-199
-206
-203
-189
-166
-137
-106
-77
-55
-43
-42
-53
-73
-100
-130
-158
-179
-193
-197
-191
-178
-159
-138
-118
-101
-88
-81
-79
-81
-87
-94
-103
-111
-119
-124
-128
-128
-125
-119
-110
-100
-88
-77
-68
-63
-62
-64
-71
-80
-89
-98
-105
-108
-108
-103
-95
-86
-76
-67
-59
-54
-51
-50
-51
-52
-54
-57
-58
-60
-60
-58
-55
-51
-44
-36
-27
-19
-13
-10
-11
-18
-29
-44
-61
-76
-87
-91
-87
-75
-55
-32
-8
12
25
28
21
3
-21
-49
-75
-95
-106
-106
-94
-72
-43
-12
17
40
56
62
59
48
31
10
-10
-29
-44
-54
-58
-56
-48
-36
-20
-1
18
35
49
58
60
55
43
26
7
-12
-28
-39
-42
-37
-25
-8
11
29
44
52
53
48
36
20
3
-13
-27
-35
-38
-34
-26
-14
0
13
24
30
30
24
11
-6
-25
-44
-58
-67
-67
-58
-40
-15
15
46
75
99
116
124
124
116
102
85
68
54
43
39
42
51
67
87
110
134
155
173
184
189
187
179
167
152
139
129
125
128
139
157
182
210
239
265
287
302
309
309
304
296
288
285
289
303
327
360
401
446
491
531
563
582
588
581
563
536
505
475
449
433
427
433
450
474
503
532
557
573
577
569
548
515
475
430
384
341
304
273
249
231
217
205
192
178
161
141
120
96
72
49
28
9
-6
-18
-24
-25
-20
-12
-1
11
20
24
20
8
-13
-40
-70
-98
-119
-130
-127
-111
-84
-49
-13
18
39
45
35
10
-26
-69
-113
-152
-182
-198
-202
-192
-172
-145
-116
-88
-66
-52
-48
-53
-67
-87
-111
-135
-155
-167
-169
-161
-143
-117
-86
-56
-31
-14
-9
-17
-38
-68
-104
-141
-174
-198
-210
-210
-197
-175
-147
-118
-90
-69
-56
-53
-61
-77
-101
-131
-164
-199
-232
-261
-284
-298
-301
-289
-262
-220
-164
-97
-22
56
136
216
299
391
499
634
806
1022
1286
1598
1948
2325
2709
3079
3414
3694
3904
4033
4078
4043
3935
3767
3551
3303
3036
2762
2490
2228
1979
1748
1535
1341
1164
1004
858
726
604
494
392
299
216
142
79
26
-16
-48
-71
-86
-97
-104
-110
-116
-124
-133
-144
-154
-162
-169
-172
-171
-167
-161
-154
-149
-147
-148
-154
-163
-174
-186
-197
-206
-211
-212
-209
-205
-199
-194
-192
-195
-201
-213
-229
-248
-268
-288
-304
-314
-318
-313
-299
-279
-253
-224
-196
-171
-153
-142
-141
-148
-161
-179
-198
-215
-228
-237
-239
-236
-229
-218
-205
-191
-178
-165
-155
-147
-141
-139
-139
-141
-145
-150
-155
-157
-155
-148
-136
-119
-100
-80
-62
-49
-43
-45
-56
-74
-96
-118
-137
-149
-150
-141
-121
-93
-62
-31
-6
10
13
4
-17
-47
-80
-112
-139
-156
-161
-153
-132
-102
-65
-28
6
32
48
51
41
19
-11
-45
-80
-109
-129
-136
-129
-108
-75
-36
6
46
77
97
103
97
81
59
34
13
0
-4
3
20
42
67
91
110
122
126
122
114
103
93
86
83
86
94
106
120
136
151
165
177
188
197
205
211
216
220
223
225
229
234
244
258
279
304
333
364
394
419
436
443
440
427
408
385
364
348
342
349
368
400
443
491
542
591
633
665
687
696
695
685
669
651
632
618
609
607
614
628
650
677
706
737
765
789
806
815
816
808
792
772
749
727
710
699
697
704
720
741
766
791
811
824
829
824
811
792
771
752
738
731
734
744
759
777
791
799
796
781
754
717
673
628
586
551
526
513
510
515
523
530
532
526
509
481
444
400
354
307
266
231
205
189
182
183
190
200
209
215
215
206
187
158
122
80
36
-6
-43
-70
-86
-90
-84
-70
-54
-39
-31
-32
-45
-70
-103
-141
-179
-212
-234
-244
-240
-223
-197
-167
-137
-112
-96
-92
-99
-116
-140
-168
-197
-222
-241
-253
-257
-253
-242
-226
-206
-185
-166
-150
-139
-135
-140
-152
-170
-192
-215
-235
-250
-257
-255
-244
-226
-204
-181
-161
-148
-143
-148
-162
-183
-208
-234
-257
-276
-287
-291
-286
-274
-256
-233
-208
-184
-164
-149
-143
-146
-160
-183
-213
-247
-279
-306
-323
-328
-319
-299
-270
-237
-207
-183
-171
-172
-188
-215
-249
-286
-319
-344
-358
-359
-347
-324
-294
-261
-230
-204
-187
-181
-186
-202
-226
-255
-285
-311
-328
-334
-326
-305
-273
-234
-194
-159
-135
-127
-139
-168
-212
-265
-320
-367
-400
-414
-406
-378
-334
-281
-227
-179
-144
-125
-125
-140
-168
-202
-238
-269
-292
-305
-308
-303
-291
-275
-259
-245
-236
-230
-230
-234
-240
-249
-257
-265
-270
-271
-268
-260
-248
-232
-213
-193
-174
-158
-146
-139
-137
-142
-153
-167
-185
-205
-223
-240
-253
-261
-264
-260
-251
-237
-220
-200
-180
-162
-147
-136
-131
-131
-136
-145
-155
-167
-177
-185
-192
-196
-199
-201
-203
-206
-211
-217
-225
-234
-242
-248
-252
-251
-245
-233
-217
-198
-178
-159
-145
-137
-138
-147
-165
-188
-214
-239
-260
-274
-279
-274
-259
-238
-214
-189
-168
-153
-146
-148
-157
-173
-193
-214
-231
-244
-250
-248
-239
-224
-205
-187
-170
-160
-156
-160
-172
-189
-208
-226
-239
-245
-242
-228
-205
-176
-141
-106
-74
-47
-27
-16
-14
-19
-30
-45
-61
-76
-87
-93
-93
-86
-73
-55
-33
-11
9
26
37
41
39
32
21
9
-2
-8
-8
0
17
42
74
110
148
186
220
249
270
284
291
291
287
281
275
271
271
274
281
291
300
309
314
314
310
300
288
273
258
245
233
224
215
206
194
179
158
132
99
61
19
-26
-73
-119
-162
-201
-234
-260
-279
-290
-293
-291
-284
-276
-267
-260
-256
-256
-261
-268
-277
-288
-297
-306
-312
-317
-321
-325
-327
-330
-333
-335
-339
-343
-348
-356
-367
-380
-395
-412
-428
-442
-450
-451
-444
-430
-410
-387
-365
-347
-337
-336
-345
-362
-385
-411
-435
-454
-465
-466
-457
-441
-419
-396
-374
-358
-349
-349
-357
-371
-390
-409
-426
-438
-444
-442
-433
-418
-401
-383
-367
-355
-349
-348
-353
-362
-373
-386
-398
-410
-422
-434
-447
-463
-482
-503
-527
-549
-567
-578
-577
-562
-532
-487
-427
-356
-273
-182
-80
35
168
325
512
735
997
1298
1633
1991
2360
2722
3061
3358
3600
3775
3876
3901
3852
3735
3557
3329
3063
2769
2461
2150
1848
1563
1304
1076
881
719
585
475
381
296
215
135
55
-25
-99
-167
-222
-265
-295
-313
-323
-330
-335
-343
-354
-366
-379
-390
-395
-394
-387
-375
-361
-349
-342
-342
-351
-368
-391
-417
-443
-466
-483
-493
-497
-495
-490
-483
-476
-472
-471
-474
-481
-491
-503
-516
-527
-535
-537
-532
-520
-501
-476
-449
-423
-402
-388
-385
-393
-410
-433
-458
-480
-492
-493
-481
-455
-421
-382
-344
-313
-293
-288
-298
-321
-354
-391
-428
-460
-482
-494
-494
-482
-462
-436
-408
-381
-358
-341
-332
-331
-338
-351
-367
-384
-398
-407
-407
-398
-379
-353
-322
-290
-262
-240
-228
-227
-237
-257
-284
-314
-345
-372
-394
-407
-413
-410
-400
-385
-366
-345
-325
-308
-295
-288
-286
-289
-296
-306
-314
-321
-322
-317
-305
-287
-264
-238
-213
-192
-177
-169
-170
-179
-194
-213
-234
-252
-265
-272
-271
-263
-250
-232
-212
-193
-176
-164
-156
-153
-154
-157
-160
-162
-161
-156
-147
-133
-116
-96
-74
-52
-32
-13
1
11
16
15
9
0
-11
-21
-29
-30
-23
-7
17
47
81
115
144
166
178
180
172
158
141
126
117
118
132
157
194
239
288
335
378
410
432
441
438
427
411
394
381
376
381
399
427
465
508
553
594
628
650
659
655
637
610
577
542
511
486
473
472
483
505
535
568
600
626
643
649
644
628
606
580
556
537
528
529
541
561
587
613
636
652
657
650
632
605
572
538
507
482
466
459
459
465
473
478
478
469
452
425
391
352
311
271
233
200
173
151
133
119
107
96
86
76
64
49
32
10
-15
-45
-76
-109
-140
-166
-185
-195
-197
-190
-178
-163
-150
-143
-143
-154
-173
-201
-233
-265
-295
-318
-332
-336
-331
-319
-302
-284
-267
-255
-250
-253
-263
-279
-298
-317
-334
-346
-351
-348
-338
-323
-304
-284
-266
-252
-244
-243
-250
-263
-281
-304
-327
-350
-370
-386
-396
-399
-396
-386
-371
-353
-336
-320
-310
-306
-310
-322
-339
-361
-383
-402
-416
-422
-420
-409
-392
-371
-349
-329
-313
-303
-300
-304
-312
-324
-336
-348
-358
-363
-365
-363
-359
-352
-345
-340
-337
-338
-344
-356
-373
-393
-416
-439
-458
-472
-476
-470
-453
-427
-394
-358
-323
-295
-277
-272
-281
-302
-334
-370
-408
-441
-465
-478
-479
-468
-447
-420
-389
-360
-334
-314
-303
-299
-304
-315
-331
-350
-368
-385
-396
-402
-400
-391
-375
-356
-337
-319
-307
-301
-304
-314
-328
-345
-360
-370
-373
-367
-353
-334
-311
-289
-271
-260
-259
-267
-283
-305
-330
-353
-371
-381
-382
-372
-354
-329
-299
-269
-242
-221
-209
-207
-215
-231
-254
-281
-307
-330
-346
-353
-351
-340
-320
-295
-268
-243
-221
-208
-203
-208
-222
-243
-268
-293
-314
-329
-336
-332
-320
-300
-275
-250
-227
-210
-202
-203
-213
-230
-252
-276
-298
-314
-322
-321
-309
-288
-261
-231
-202
-178
-162
-157
-162
-177
-199
-223
-247
-265
-275
-277
-272
-261
-248
-237
-230
-229
-235
-247
-263
-279
-293
-303
-308
-308
-304
-297
-288
-280
-273
-267
-262
-258
-253
-248
-243
-239
-236
-235
-237
-240
-243
-247
-248
-246
-239
-227
-210
-191
-171
-152
-136
-126
-121
-121
-127
-137
-147
-156
-162
-163
-160
-151
-139
-126
-114
-104
-98
-97
-100
-104
-109
-111
-109
-102
-89
-70
-48
-24
0
24
46
65
83
99
113
127
141
153
166
178
189
200
211
222
233
244
255
264
271
275
276
273
268
260
252
244
237
231
226
221
215
207
194
175
150
119
82
39
-7
-54
-101
-146
-186
-221
-248
-269
-281
-287
-286
-280
-272
-263
-256
-253
-255
-263
-278
-298
-323
-350
-375
-396
-409
-414
-409
-394
-371
-345
-320
-299
-286
-287
-300
-326
-363
-405
-448
-486
-515
-531
-533
-521
-498
-468
-438
-410
-390
-381
-383
-395
-415
-440
-465
-488
-505
-513
-514
-507
-494
-477
-459
-442
-429
-420
-417
-419
-427
-438
-452
-465
-478
-488
-494
-497
-496
-491
-484
-475
-465
-455
-447
-442
-439
-439
-442
-448
-456
-464
-472
-479
-486
-492
-500
-510
-525
-546
-571
-601
-630
-654
-668
-666
-643
-597
-527
-435
-326
-202
-67
76
228
393
576
784
1023
1296
1602
1936
2287
2639
2977
3280
3532
3720
3833
3868
3825
3709
3529
3295
3021
2719
2402
2081
1770
1477
1211
980
785
628
505
411
338
276
218
156
87
9
-74
-159
-238
-305
-356
-386
-396
-388
-366
-336
-304
-278
-260
-255
-263
-283
-312
-346
-383
-419
-451
-477
-495
-505
-508
-504
-494
-479
-462
-444
-427
-415
-409
-410
-420
-438
-462
-490
-518
-541
-557
-563
-556
-539
-512
-480
-447
-418
-397
-388
-392
-408
-434
-466
-499
-529
-550
-560
-558
-543
-519
-489
-457
-427
-404
-390
-386
-394
-410
-432
-457
-481
-499
-508
-508
-498
-480
-456
-429
-404
-383
-369
-364
-369
-382
-401
-424
-448
-469
-484
-493
-493
-485
-468
-445
-417
-387
-359
-336
-320
-313
-315
-327
-346
-370
-393
-414
-428
-433
-428
-413
-391
-365
-338
-315
-298
-290
-291
-299
-314
-332
-349
-363
-372
-374
-370
-361
-347
-332
-318
-305
-296
-291
-289
-291
-295
-300
-305
-309
-310
-307
-300
-290
-275
-257
-236
-215
-195
-178
-166
-161
-164
-173
-187
-203
-218
-228
-232
-226
-211
-187
-158
-126
-96
-71
-53
-44
-45
-54
-68
-85
-101
-113
-119
-118
-107
-88
-61
-28
8
45
79
108
129
141
143
137
126
114
103
98
102
116
138
168
202
236
265
288
302
307
305
299
291
285
283
288
299
317
340
367
395
423
449
471
489
501
509
511
508
503
496
489
485
485
493
507
528
554
583
611
635
652
659
655
641
620
593
564
539
519
507
506
514
529
549
571
590
603
609
606
595
575
551
525
500
478
462
452
449
451
456
462
465
464
457
442
419
389
353
313
272
232
196
165
141
125
116
112
112
113
113
107
95
75
48
14
-24
-63
-100
-131
-155
-169
-174
-169
-158
-144
-130
-118
-113
-116
-128
-148
-176
-209
-244
-277
-305
-325
-335
-335
-324
-305
-280
-252
-225
-203
-190
-188
-198
-218
-246
-280
-314
-345
-367
-379
-378
-365
-341
-312
-280
-253
-233
-225
-230
-249
-278
-313
-350
-382
-405
-415
-413
-398
-373
-345
-316
-292
-278
-274
-281
-298
-320
-344
-366
-382
-389
-387
-377
-360
-339
-317
-296
-280
-269
-267
-272
-285
-304
-327
-353
-380
-403
-422
-432
-432
-421
-399
-368
-332
-293
-258
-231
-216
-216
-232
-261
-300
-345
-388
-425
-451
-462
-459
-442
-416
-385
-355
-332
-317
-315
-323
-340
-363
-387
-406
-418
-421
-413
-396
-372
-345
-319
-297
-282
-276
-278
-288
-303
-322
-341
-359
-372
-380
-382
-378
-367
-350
-330
-307
-284
-263
-246
-236
-232
-237
-250
-270
-293
-317
-338
-352
-358
-354
-342
-322
-298
-275
-256
-243
-238
-242
-252
-266
-281
-293
-299
-298
-290
-276
-259
-241
-225
-215
-211
-215
-225
-241
-261
-281
-299
-313
-320
-321
-314
-301
-284
-263
-241
-221
-205
-194
-190
-193
-205
-223
-247
-273
-298
-320
-333
-337
-328
-308
-276
-237
-195
-156
-126
-108
-107
-124
-155
-198
-246
-294
-333
-361
-372
-368
-349
-321
-287
-254
-227
-210
-203
-208
-222
-242
-264
-286
-304
-316
-320
-316
-305
-288
-268
-247
-227
-211
-202
-201
-208
-222
-243
-268
-292
-314
-328
-333
-328
-312
-288
-259
-230
-204
-186
-177
-180
-194
-218
-247
-277
-305
-327
-340
-344
-337
-322
-301
-278
-254
-234
-218
-207
-202
-201
-203
-207
-210
-210
-207
-199
-186
-169
-148
-125
-102
-80
-63
-52
-47
-50
-60
-74
-90
-106
-118
-123
-121
-112
-96
-77
-56
-36
-21
-11
-7
-8
-12
-17
-20
-18
-10
7
33
67
108
155
204
252
295
332
358
372
373
362
340
311
278
246
219
201
194
199
214
236
263
289
311
324
326
316
294
261
222
178
133
91
53
21
-4
-23
-37
-48
-58
-69
-83
-102
-125
-153
-185
-218
-250
-278
-300
-313
-318
-314
-303
-286
-269
-253
-242
-238
-242
-253
-269
-288
-306
-320
-329
-329
-323
-311
-296
-282
-270
-264
-265
-273
-289
-309
-331
-352
-370
-383
-388
-387
-379
-367
-352
-336
-321
-309
-301
-298
-299
-304
-311
-319
-328
-335
-341
-344
-345
-344
-341
-339
-336
-335
-335
-337
-342
-348
-357
-367
-377
-387
-395
-401
-402
-399
-390
-377
-361
-341
-321
-301
-285
-272
-265
-266
-275
-292
-318
-352
-391
-434
-477
-515
-544
-560
-559
-539
-501
-446
-377
-297
-210
-116
-17
92
217
365
545
764
1027
1333
1678
2051
2435
2813
3164
3469
3712
3880
3967
3972
3899
3755
3553
3304
3024
2726
2423
2127
1848
1591
1363
1165
995
850
724
609
500
391
279
166
54
-51
-143
-216
-264
-288
-287
-268
-236
-201
-171
-153
-151
-167
-198
-240
-287
-331
-368
-393
-404
-401
-388
-369
-349
-332
-323
-325
-337
-357
-384
-412
-438
-457
-466
-465
-455
-436
-412
-387
-365
-347
-337
-335
-341
-354
-372
-391
-410
-425
-436
-441
-439
-431
-419
-403
-387
-372
-361
-355
-355
-362
-373
-386
-400
-410
-415
-414
-405
-391
-373
-354
-336
-323
-316
-317
-324
-336
-353
-371
-388
-402
-412
-417
-416
-409
-398
-384
-367
-351
-335
-323
-314
-311
-312
-317
-324
-332
-339
-342
-341
-334
-322
-306
-288
-270
-256
-247
-245
-250
-261
-275
-290
-303
-312
-314
-309
-297
-280
-258
-235
-214
-196
-183
-177
-177
-183
-193
-207
-221
-234
-243
-246
-243
-232
-213
-189
-163
-136
-114
-100
-96
-104
-123
-150
-180
-210
-233
-246
-246
-231
-204
-168
-127
-88
-55
-31
-18
-17
-26
-41
-60
-78
-93
-102
-104
-99
-86
-67
-43
-15
17
50
81
109
132
147
154
152
141
124
103
83
68
60
62
76
100
133
171
211
247
278
300
313
317
314
308
301
297
298
307
323
347
375
405
435
460
478
488
489
482
468
452
436
426
423
432
452
482
520
561
599
631
651
657
650
632
607
580
557
543
542
554
577
609
645
679
705
721
723
713
691
662
629
597
570
550
539
539
548
565
588
613
639
661
677
685
682
669
644
610
569
524
479
439
405
381
368
365
370
380
391
399
401
393
374
343
303
256
207
159
116
83
60
50
50
57
69
80
86
84
72
48
14
-27
-71
-114
-150
-176
-189
-188
-175
-152
-124
-96
-72
-58
-57
-69
-94
-130
-173
-218
-260
-295
-321
-334
-337
-331
-319
-304
-288
-276
-270
-268
-273
-282
-293
-306
-317
-326
-330
-330
-324
-313
-298
-280
-261
-244
-230
-221
-219
-224
-237
-254
-275
-296
-315
-330
-338
-340
-335
-327
-316
-307
-301
-300
-305
-315
-329
-344
-358
-369
-374
-373
-365
-351
-334
-316
-300
-288
-282
-283
-292
-307
-326
-349
-371
-391
-407
-418
-423
-421
-414
-403
-388
-372
-355
-340
-327
-316
-311
-309
-313
-321
-333
-348
-363
-378
-390
-396
-397
-391
-381
-366
-349
-335
-324
-319
-321
-329
-343
-360
-377
-391
-400
-402
-397
-385
-370
-353
-337
-325
-318
-318
-325
-337
-352
-368
-381
-390
-394
-391
-382
-369
-353
-337
-324
-314
-308
-308
-312
-318
-325
-331
-334
-334
-331
-325
-317
-308
-300
-294
-289
-288
-289
-292
-296
-301
-307
-314
-321
-328
-335
-341
-345
-345
-342
-334
-321
-303
-283
-261
-240
-222
-210
-205
-209
-220
-238
-261
-287
-312
-332
-346
-351
-348
-336
-319
-298
-278
-262
-252
-250
-256
-267
-282
-297
-309
-315
-313
-303
-288
-269
-249
-232
-220
-216
-219
-229
-244
-261
-279
-294
-304
-309
-308
-301
-291
-280
-268
-258
-253
-252
-258
-270
-286
-305
-324
-341
-353
-359
-357
-346
-329
-306
-281
-257
-237
-223
-216
-216
-224
-237
-253
-270
-285
-299
-307
-312
-311
-306
-297
-286
-274
-262
-251
-245
-243
-247
-256
-270
-286
-303
-316
-325
-326
-319
-302
-279
-250
-219
-190
-164
-146
-136
-132
-135
-142
-150
-156
-158
-153
-142
-125
-103
-78
-55
-35
-21
-16
-19
-32
-51
-75
-100
-123
-140
-146
-141
-123
-91
-48
4
59
113
160
197
219
227
219
199
171
140
112
91
83
88
108
140
179
221
261
292
311
317
309
290
264
235
209
188
178
179
189
208
232
256
276
288
290
280
257
223
179
128
73
17
-37
-85
-127
-159
-183
-198
-206
-210
-211
-213
-217
-225
-239
-257
-277
-298
-316
-330
-336
-334
-324
-308
-288
-268
-251
-241
-239
-246
-261
-282
-305
-328
-346
-356
-356
-347
-331
-309
-286
-265
-250
-242
-244
-255
-274
-297
-324
-349
-371
-387
-397
-400
-396
-386
-373
-359
-344
-332
-323
-320
-322
-328
-337
-348
-358
-365
-367
-364
-355
-341
-325
-310
-298
-291
-291
-298
-311
-328
-347
-366
-381
-392
-397
-398
-394
-387
-378
-368
-359
-353
-349
-349
-356
-369
-391
-421
-458
-501
-544
-583
-612
-625
-617
-585
-529
-452
-356
-247
-129
-7
120
253
399
565
759
990
1261
1573
1919
2289
2665
3028
3357
3631
3833
3951
3980
3918
3773
3556
3283
2972
2640
2304
1981
1682
1417
1188
997
841
713
605
509
415
317
213
101
-14
-126
-228
-312
-370
-398
-397
-368
-321
-264
-208
-163
-137
-133
-152
-192
-246
-306
-365
-415
-452
-472
-475
-463
-440
-409
-374
-342
-314
-294
-284
-284
-295
-316
-344
-376
-410
-440
-463
-477
-479
-470
-451
-425
-397
-372
-353
-344
-344
-354
-370
-390
-410
-425
-433
-433
-426
-414
-399
-384
-371
-363
-359
-360
-365
-373
-380
-387
-392
-393
-391
-386
-377
-367
-355
-342
-331
-321
-315
-311
-311
-314
-319
-325
-329
-331
-330
-324
-314
-300
-285
-270
-258
-249
-245
-246
-251
-260
-270
-280
-287
-290
-290
-284
-275
-262
-248
-232
-216
-202
-190
-181
-175
-172
-173
-176
-183
-190
-198
-205
-208
-207
-200
-187
-170
-149
-127
-106
-89
-79
-76
-80
-92
-108
-126
-144
-157
-165
-165
-157
-142
-121
-95
-68
-42
-20
-2
8
12
8
-1
-14
-28
-41
-49
-49
-40
-22
4
36
71
102
127
142
144
133
110
80
48
18
-4
-14
-10
9
41
82
129
175
217
250
273
285
287
281
270
258
247
241
241
248
261
281
304
329
355
378
399
416
428
435
439
439
439
439
441
447
457
471
491
513
537
559
579
594
603
606
604
598
590
583
580
582
591
605
625
648
672
694
713
727
735
737
734
728
721
715
711
712
716
724
735
747
759
767
772
771
765
753
738
719
700
682
665
653
645
641
642
646
652
658
662
662
655
642
621
593
561
526
491
460
433
414
402
397
396
397
398
396
389
375
354
326
293
255
216
176
140
108
83
65
56
54
57
64
70
73
69
58
39
13
-17
-48
-75
-96
-108
-110
-104
-92
-76
-62
-52
-51
-59
-76
-102
-134
-169
-203
-232
-253
-263
-261
-248
-225
-195
-164
-135
-114
-104
-106
-121
-146
-178
-212
-243
-266
-279
-279
-269
-249
-225
-199
-177
-162
-156
-159
-172
-191
-215
-242
-267
-288
-303
-311
-311
-302
-286
-265
-242
-219
-202
-192
-192
-202
-221
-246
-273
-298
-317
-326
-324
-311
-290
-265
-238
-215
-198
-190
-191
-200
-215
-234
-253
-271
-287
-299
-307
-312
-312
-308
-302
-293
-283
-272
-263
-256
-253
-256
-263
-276
-291
-307
-320
-330
-333
-329
-318
-301
-280
-260
-241
-229
-223
-225
-235
-251
-271
-291
-310
-324
-332
-332
-326
-313
-297
-279
-260
-244
-232
-225
-224
-228
-236
-247
-259
-270
-278
-280
-278
-269
-254
-236
-215
-196
-180
-172
-171
-180
-199
-224
-253
-282
-306
-323
-328
-322
-304
-277
-244
-209
-178
-155
-142
-140
-149
-167
-191
-216
-238
-256
-265
-266
-258
-243
-223
-200
-178
-159
-143
-133
-129
-131
-137
-148
-161
-175
-189
-200
-207
-210
-208
-201
-192
-182
-172
-167
-167
-173
-187
-205
-227
-249
-268
-280
-284
-279
-264
-243
-218
-193
-172
-156
-149
-150
-160
-175
-194
-214
-231
-245
-253
-256
-252
-245
-234
-221
-208
-196
-187
-181
-179
-181
-188
-198
-211
-226
-241
-255
-267
-274
-277
-275
-269
-259
-247
-236
-228
-224
-227
-236
-251
-269
-288
-303
-313
-313
-302
-282
-254
-222
-191
-166
-153
-154
-169
-196
-233
-272
-308
-334
-346
-342
-322
-288
-245
-198
-153
-114
-86
-69
-64
-67
-76
-87
-98
-105
-108
-105
-98
-88
-77
-67
-59
-55
-55
-59
-66
-74
-82
-88
-89
-85
-74
-55
-29
3
39
77
115
151
182
207
225
235
239
237
231
222
214
206
202
201
204
210
219
229
240
249
255
258
256
250
240
227
212
194
176
157
137
117
97
77
56
34
10
-16
-44
-75
-107
-141
-174
-205
-232
-254
-269
-276
-277
-272
-263
-253
-245
-240
-241
-249
-263
-283
-307
-333
-357
-377
-392
-400
-400
-392
-378
-360
-340
-321
-306
-297
-296
-304
-319
-340
-365
-390
-412
-428
-436
-435
-425
-409
-388
-366
-346
-332
-325
-327
-337
-355
-377
-401
-423
-439
-448
-447
-437
-418
-393
-365
-340
-321
-311
-313
-327
-351
-382
-414
-442
-462
-471
-465
-447
-418
-383
-347
-316
-293
-282
-283
-296
-319
-348
-379
-408
-433
-451
-463
-469
-471
-469
-468
-468
-470
-476
-484
-492
-498
-498
-491
-472
-439
-389
-323
-237
-131
-3
148
325
531
766
1033
1330
1653
1995
2344
2688
3011
3299
3535
3707
3805
3826
3769
3640
3446
3201
2917
2609
2290
1974
1671
1389
1133
907
711
546
407
293
198
118
48
-15
-73
-129
-183
-235
-283
-326
-361
-386
-399
-402
-394
-377
-356
-333
-312
-297
-290
-292
-303
-321
-345
-371
-398
-422
-441
-455
-463
-465
-462
-455
-444
-432
-418
-405
-393
-384
-378
-378
-382
-392
-405
-419
-434
-446
-453
-453
-446
-432
-412
-389
-367
-349
-338
-335
-341
-355
-375
-397
-417
-431
-436
-431
-414
-388
-356
-323
-292
-270
-258
-260
-274
-299
-331
-366
-399
-425
-440
-444
-434
-414
-385
-351
-317
-286
-263
-248
-243
-248
-260
-277
-297
-315
-328
-335
-334
-325
-309
-287
-264
-240
-219
-203
-193
-190
-193
-201
-212
-224
-236
-245
-251
-254
-252
-248
-239
-229
-217
-204
-192
-182
-175
-173
-176
-185
-198
-213
-229
-240
-244
-238
-220
-190
-150
-104
-58
-19
9
21
14
-9
-47
-91
-137
-177
-204
-216
-210
-188
-155
-115
-75
-40
-15
0
4
-2
-13
-26
-38
-44
-43
-35
-19
3
29
56
81
104
122
135
141
142
139
132
124
117
113
114
121
136
158
186
219
254
288
319
344
360
367
364
353
336
318
300
287
283
288
303
326
356
390
423
452
475
491
498
499
495
490
485
484
489
500
519
544
575
608
