-108
-168
-151
-163
-123
-104
-192
-195
-152
-109
-189
-192
-158
-170
-164
-165
-148
-255
-258
-117
-178
-374
-237
-63
-141
-104
-251
-347
-105
-28
-206
-197
-57
-199
-282
-180
-66
-129
-262
-141
-35
51
67
42
53
6
147
204
-24
66
213
79
110
172
94
-22
-44
-245
-436
-191
-39
-146
-356
-247
-69
-187
-233
-178
-222
-266
-75
221
875
2051
2945
2956
2098
774
83
-41
-123
-92
25
83
-49
-79
-134
-219
-204
-304
-270
-106
-124
-222
-188
-125
-254
-234
-46
-30
-177
-305
-205
-19
-72
-151
-26
-68
-161
66
139
79
136
53
72
142
105
169
213
257
233
242
427
515
591
433
360
448
366
333
212
114
155
226
172
-24
5
-42
-226
-59
-41
-84
-107
-184
-137
-161
-221
-226
-214
-279
-278
-159
-134
-204
-208
-154
-133
-240
-261
-113
-95
-185
-124
-183
-294
-110
-8
-103
-170
-203
-155
-53
-162
-175
-104
-109
-162
-302
-242
-189
-148
-89
-213
-170
-179
-322
-135
-94
-320
-249
-147
-226
-206
-193
-240
-235
-105
-67
-287
-218
-13
-138
-172
-144
-184
-310
-295
-111
-133
-109
-145
-168
-149
-259
-197
-187
-184
-36
-71
-143
-98
-40
-61
-45
179
265
44
20
123
55
39
151
99
-119
-109
-83
-218
-225
-225
-244
-275
-437
-335
-232
-237
-164
-292
-270
-129
-264
-65
1056
2409
3252
3032
1956
782
3
-63
126
48
-81
-87
-208
-318
-437
-378
-256
-239
-215
-405
-409
-221
-285
-347
-261
-244
-124
-157
-277
-196
-264
-186
-55
-114
-260
-286
-114
-51
-6
55
-16
11
111
74
170
166
76
258
342
406
499
538
486
374
439
456
309
271
352
260
219
227
70
-9
-76
-57
-111
-266
-204
-193
-220
-159
-220
-249
-161
-168
-225
-269
-247
-336
-354
-277
-208
-112
-242
-217
-163
-224
-139
-212
-266
-153
-123
-256
-322
-128
-37
-129
-286
-408
-212
-91
-222
-238
-276
-220
-172
-286
-243
-299
-284
-126
-264
-225
-247
-445
-245
-179
-240
-137
-190
-279
-283
-362
-308
-235
-261
-267
-288
-181
-123
-256
-266
-151
-345
-496
-235
-205
-313
-174
-129
-189
-145
-113
-91
-142
-246
-14
48
49
113
-21
1
-26
-48
26
2
-55
48
-99
-234
-141
-301
-367
-336
-301
-231
-274
-303
-311
-332
-317
-364
-260
-234
70
1038
2116
3166
3255
2249
902
36
22
56
123
155
-222
-401
-281
-332
-363
-347
-302
-183
-207
-300
-296
-276
-267
-245
-244
-249
-214
-290
-274
-172
-168
-118
-234
-261
-98
-60
-92
-157
-133
-23
68
101
-7
27
201
232
301
334
289
356
438
528
441
274
415
490
329
287
240
169
190
98
-17
-173
-280
-110
-17
-164
-174
-143
-226
-331
-307
-176
-172
-106
-165
-288
-180
-206
-303
-249
-216
-359
-331
-84
-120
-151
-184
-271
-226
-132
-86
-202
-181
-218
-316
-187
-154
-183
-163
-248
-267
-124
-224
-246
-157
-225
-79
-119
-225
-148
-250
-289
-235
-234
-180
-175
-247
-199
-128
-227
-271
-217
-190
-190
-230
-148
-153
-250
-250
-159
-53
-203
-214
-148
-206
-155
-131
-162
-222
-266
-121
-45
-110
-28
1
17
117
62
42
147
169
67
-26
16
31
107
185
67
-102
-178
-193
-161
-201
-231
-294
-229
-89
-232
-229
-180
-172
-105
-34
-260
1
1402
2664
3339
3222
2187
934
167
91
244
47
-103
-44
-98
-138
-174
-178
-182
-242
-273
-188
-197
-216
-137
-159
-158
-141
-166
-173
-136
-233
-245
-179
-139
-12
-27
-51
-4
-26
-37
-6
70
129
103
326
348
142
265
389
267
272
363
441
617
520
428
429
438
491
384
281
165
191
135
-3
93
12
-57
-23
-95
-83
-249
-285
-35
-108
-127
-65
-223
-260
-199
-186
-166
-151
-160
-112
-116
-152
-162
-119
-48
-147
-143
-149
-237
-106
4
-101
-286
-188
-56
-132
-144
-177
-162
-115
-227
-157
-39
-155
-193
-247
-260
-140
-158
-288
-315
-192
-197
-248
-159
-101
-116
-158
-209
-294
-313
-222
-108
-140
-240
-127
-124
-243
-165
-144
-172
-155
-167
-166
-220
-154
-103
-225
-220
-64
-33
-116
-9
-56
-48
143
179
241
263
175
-10
-83
71
110
-93
-30
28
-102
-110
-252
-248
-181
-323
-290
-200
-104
-125
-203
-133
-168
-157
165
1025
2221
3173
3257
2380
1048
78
12
112
114
147
-201
-309
-124
-152
-94
-129
-189
-161
-146
-140
-199
-121
-89
-180
-197
-130
-28
-38
-103
-150
-210
-91
-20
-36
-24
-182
-23
217
68
-33
200
367
158
152
269
238
323
409
435
439
471
466
366
396
486
514
286
110
312
334
205
173
136
65
-83
-58
17
-82
-111
-213
-187
-81
-175
-117
-68
-172
-212
-180
-176
-233
-64
-126
-443
-153
15
-50
-99
-230
-161
-104
-45
-102
-110
-21
-42
-92
-104
-70
-234
-291
-7
-11
-147
-126
-94
-36
-89
-111
-144
-204
-166
-116
-69
-55
-83
-194
-241
-194
-245
-158
-167
-259
-178
-261
-299
-104
-69
-234
-158
-66
-262
-168
-52
-205
-202
-200
-154
-100
-64
-7
36
131
-64
-83
107
97
181
174
74
-11
13
122
10
-75
-30
-238
-278
-197
-246
-154
-195
-266
-230
-197
-218
-253
-280
-228
-138
-92
453
1666
2767
3140
2673
1368
205
-69
42
92
-46
-169
-184
-183
-174
-140
-170
-181
-212
-363
-352
-194
-91
-92
-288
-273
-53
-117
-187
-133
-148
-220
-213
-190
-207
-111
-6
-65
-149
22
200
143
96
92
136
235
307
328
290
260
325
378
311
364
442
393
307
209
301
285
226
139
2
108
-35
-156
-5
-63
-149
-167
-221
-166
-147
-239
-244
-230
-456
-374
-44
-194
-205
-188
-284
-138
-133
-224
-147
-129
-208
-200
-130
-138
-220
-155
-85
-224
-258
-153
-191
-201
-96
-64
-243
-208
-63
-275
-217
-37
-148
-208
-238
-262
-249
-163
-210
-295
-123
-192
-344
-230
-228
-255
-185
-130
-189
-285
-175
-210
-290
-150
-186
-196
-109
-183
-288
-278
-181
-154
-124
-255
-284
-54
-106
-57
-28
-58
80
-104
-93
195
180
145
144
65
58
30
-5
35
-49
-228
-150
17
-126
-240
-144
-246
-354
-221
-190
-293
-274
-168
-164
-183
-32
529
1532
2747
3359
2854
1763
642
63
116
192
32
-112
-182
-142
-153
-319
-204
-86
-193
-230
-330
-361
-218
-49
-37
-201
-192
-99
-235
-326
-199
-99
-92
-107
-185
-222
-84
-10
-42
43
27
13
115
124
249
292
247
286
362
485
442
332
424
461
406
504
520
371
339
434
234
162
184
-23
17
31
-45
-10
-24
-145
-244
-224
-98
-144
-239
-126
-166
-153
-76
-232
-252
-248
-212
-45
-131
-159
-74
-140
-164
-82
-104
-178
-182
-134
-75
-86
-133
-177
-167
-142
-100
-147
-199
-146
-176
-262
-115
-83
-228
-62
-72
-190
-117
-209
-197
-169
-244
-149
-182
-261
-199
-260
-369
-192
-111
-189
-211
-199
-120
-132
-176
-193
-103
-156
-266
-154
-149
-171
-208
-186
-173
-162
-34
-130
-118
9
3
7
-41
79
303
245
110
147
146
34
42
66
-41
-119
-201
-211
-168
-261
-281
-263
-259
-160
-266
-376
-120
-52
-176
-154
-77
656
2012
3105
3406
2731
1502
370
-1
145
68
-20
29
-75
-307
-295
-152
-145
-114
-219
-227
-181
-275
-161
-143
-247
-248
-142
-207
-269
-149
-245
-200
-84
-171
-159
-59
-92
-103
-51
-14
34
37
1
39
228
192
166
370
428
326
273
391
377
400
473
417
454
410
301
198
257
269
50
-4
-47
-139
-72
27
-61
-240
-257
-151
-197
-262
-163
-67
-140
-300
-218
-167
-224
-188
-184
-206
-185
-195
-255
-235
-229
-131
-95
-185
-137
-219
-249
-71
-100
-144
-196
-256
-169
-147
-85
-115
-179
-173
-244
-175
-78
-162
-157
-123
-185
-210
-190
-233
-265
-161
-127
-180
-133
-129
-232
-144
-134
-201
-128
-136
-217
-179
-80
-240
-153
12
-168
-211
-168
-129
-78
-183
-376
-200
24
16
31
48
68
73
64
60
148
167
145
143
83
197
244
26
-28
57
-2
-102
-139
-120
-165
-168
-269
-393
-149
-29
-262
-239
-98
-6
2
151
1081
2266
3223
3441
2470
949
109
169
311
286
74
-174
-129
-46
-118
-184
-209
-135
-121
-110
-83
-153
-129
-146
-270
-147
-25
-62
-141
-136
-61
44
30
-141
-89
-21
-90
-9
149
112
107
126
200
152
78
287
392
369
386
526
489
405
453
467
442
368
472
547
440
333
268
227
131
66
5
-46
78
-29
-361
-60
151
-76
-14
-81
-128
-108
-214
-165
-158
-106
-42
-97
-132
-137
-91
-53
-71
-90
-93
-118
-30
-56
-232
-227
7
37
-141
-60
32
-68
-205
-179
6
-40
-183
-80
9
-105
-203
-173
-194
-111
8
-80
-133
-119
-167
-175
-131
-176
-131
-114
-202
-118
-164
-260
-163
-96
-126
-162
-122
-175
-223
-67
-246
-297
-31
-123
-189
-81
-57
-62
112
122
33
140
181
196
154
150
169
-1
34
152
43
-51
-133
-96
-38
-114
-242
-312
-163
-195
-212
-91
-185
-154
-112
-208
-152
38
670
1831
2913
3267
2532
1140
142
-53
-68
-36
99
-97
-267
-127
-119
-138
-134
-201
-219
-192
-173
-175
-171
-171
-272
-268
-223
-257
-210
-166
-130
-146
-222
-108
54
-106
-155
-31
-76
-24
78
0
109
207
133
220
330
343
312
326
289
284
331
419
454
316
321
305
278
236
201
180
16
-19
-66
-87
-106
-171
-174
-199
-235
-249
-284
-387
-285
-98
-134
-184
-204
-255
-227
-201
-213
-211
-185
-163
-217
-201
-184
-211
-203
-222
-117
-120
-405
-361
-90
-65
-191
-278
-223
-131
-171
-258
-195
-232
-220
-86
-239
-201
-178
-432
-305
-236
-260
-194
-317
-360
-290
-188
-98
-241
-321
-147
-165
-187
-151
-256
-288
-242
-251
-252
-205
-216
-222
-224
-183
-215
-324
-179
-68
-114
-160
-202
-54
-5
-7
31
29
164
97
-49
8
21
119
178
-57
-277
-183
-120
-274
-340
-336
-254
-228
-272
-287
-313
-249
-279
-436
-227
-1
124
960
2247
3213
3200
2248
928
103
28
58
8
-103
-145
-136
-258
-292
-247
-292
-260
-203
-267
-299
-211
-193
-276
-323
-298
-249
-198
-159
-167
-189
-186
-155
-92
-160
-157
-69
-162
-241
-123
63
104
134
149
127
232
216
149
284
409
252
217
477
501
415
442
366
244
242
286
201
74
30
-57
-92
15
22
-118
-152
-132
-301
-359
-244
-216
-217
-191
-175
-276
-313
-160
-204
-233
-140
-204
-269
-293
-144
-119
-254
-144
-231
-305
-100
-85
-127
-143
-212
-242
-277
-203
-40
-126
-196
-126
-151
-165
-95
-148
-264
-268
-234
-220
-171
-121
-191
-238
-202
-280
-376
-167
-76
-259
-218
-125
-162
-219
-208
-237
-223
-223
-328
-188
-239
-371
-127
-132
-221
-174
-238
-233
-100
30
-78
-308
-198
67
34
44
179
129
19
5
34
12
-17
45
82
-41
-103
-108
-220
-290
-318
-283
-262
-463
-374
-121
-256
-266
-254
-304
-163
96
867
2096
3211
3369
2463
1130
217
98
155
65
-122
-143
-138
-169
-208
-296
-292
-393
-391
-171
-197
-336
-300
-182
-184
-232
-183
-229
-165
-123
-235
-225
-124
-91
-52
-102
-182
-25
-81
-76
42
-54
162
297
137
165
243
238
302
334
345
475
429
351
383
352
380
368
254
252
287
142
48
50
-7
-109
-178
-131
-121
-183
-219
-242
-192
-166
-234
-235
-160
-355
-409
-84
-32
-201
-312
-219
-156
-218
-223
-217
-126
-228
-354
-247
-127
-105
-170
-234
-249
-129
-161
-191
-157
-389
-321
-121
-150
-110
-187
-282
-338
-230
-192
-320
-240
-130
-250
-388
-177
-126
-261
-182
-182
-277
-235
-163
-227
-247
-130
-170
-230
-180
-181
-145
-210
-376
-223
9
-106
-293
-322
-213
-90
-7
-37
-93
22
53
-13
67
163
189
125
95
160
-16
-56
142
52
-92
-104
-132
-206
-245
-265
-354
-400
-265
-223
-261
-193
-146
-200
-276
-231
-53
747
2066
3002
3195
2655
1415
236
-36
171
164
-15
-119
-329
-277
-34
-204
-298
-209
-196
-152
-218
-305
-251
-256
-277
-233
-246
-193
-134
-262
-298
-146
-159
-176
3
5
-28
-50
-106
0
29
40
102
114
196
238
252
346
434
408
349
334
290
411
485
409
470
373
138
242
331
198
132
55
34
27
-93
-87
-65
-126
-94
-173
-198
-80
-45
-101
-172
-150
-156
-149
-169
-341
-224
-32
-52
-49
-84
-107
-180
-186
-46
-54
-168
-147
-57
-75
11
-74
-268
-105
-31
-33
-67
-177
-144
-129
-214
-187
-61
-126
-154
-126
-156
-148
-195
-191
-142
-131
-69
-105
-228
-244
-142
-73
-73
-157
-262
-144
-150
-236
-80
-149
-328
-119
-56
-117
-108
-217
-95
-3
42
187
11
-18
288
340
127
61
123
-76
-47
210
66
-107
-102
-156
-145
-157
-239
-225
-238
-166
-162
-255
-120
-116
-213
-116
-111
222
1304
2604
3245
2871
1863
625
-14
10
101
57
-30
-59
-130
-198
-181
-144
-195
-241
-237
-111
-68
-145
-158
-157
-141
-242
-173
-52
-139
-27
-78
-168
22
-39
-5
98
-129
-99
149
154
89
77
174
342
311
193
236
370
465
444
383
376
436
476
378
338
432
429
325
227
167
151
69
-27
31
67
-44
-216
-279
-255
-186
-72
-62
-163
-208
-105
-175
-217
-132
-148
-159
-137
-64
-75
-149
-245
-205
-87
-91
-120
-138
-59
-54
-69
-25
-109
-227
-73
-40
-294
-135
-24
-192
-143
-93
-60
-41
-230
-247
-172
-296
-148
-8
-218
-236
-282
-202
-73
-235
-158
-196
-235
-163
-248
-223
-165
-183
-309
-332
-228
-194
-153
-172
-194
-144
-129
-169
-50
-25
-151
-131
-74
1
52
100
157
94
-82
-10
129
59
-20
-94
-59
-67
-134
-195
-357
-221
-140
-296
-279
-280
-251
-208
-268
-321
-247
-150
305
1438
2550
3095
2946
1967
715
9
-51
149
53
-36
-34
-284
-314
-195
-266
-284
-207
-354
-419
-196
-57
-172
-305
-205
-237
-215
-38
-145
-201
-83
-130
-207
-152
-122
-46
-73
-253
13
247
-24
-59
225
217
215
306
268
334
273
271
401
496
487
488
425
366
526
313
283
313
92
170
154
53
-1
50
-21
-305
-285
-57
-140
-267
-197
-219
-171
-72
-129
-200
-53
-51
-419
-305
-76
-220
-178
-76
-68
-133
-275
-249
-106
-124
-72
2
-196
-217
-89
-176
-199
-22
-41
-205
-111
-93
-195
-217
-236
-183
-210
-337
-143
-62
-194
-162
-199
-197
-104
-156
-311
-162
-81
-221
-180
-171
-190
-221
-236
-133
-122
-281
-324
-148
-173
-282
-117
-66
-217
-208
-68
68
133
34
-36
46
106
300
236
-66
42
148
149
53
-51
-92
-185
-142
-109
-229
-286
-160
-156
-159
-258
-376
-214
-199
-286
-163
-41
215
1174
2410
3149
3145
2149
882
301
180
217
185
-42
-218
-224
-273
-277
-143
-174
-235
-240
-279
-167
-108
-209
-226
-174
-214
-321
-173
-13
-75
-103
-156
-64
22
-106
-141
-27
12
9
14
-14
51
3
107
406
353
252
356
322
357
517
465
454
512
358
338
441
473
427
224
232
235
80
-66
-69
-2
-149
-102
29
-93
-198
-174
-161
-163
-189
-220
-155
-91
-86
-218
-254
-196
-162
-120
-186
-125
-64
-128
-122
-191
-267
-111
-123
-258
-107
-64
-110
-95
-152
-117
-82
-137
-151
-209
-164
-113
-301
-181
39
-140
-182
-95
-246
-249
-119
-368
-342
-52
-97
-137
-134
-124
-157
-247
-152
-149
-209
-145
-252
-283
-179
-93
-175
-257
-109
-112
-216
-107
-124
-182
-50
-2
-44
6
52
30
160
191
137
184
108
-5
-16
54
86
20
-79
-170
-174
-134
-106
-286
-332
-129
-26
-37
-257
-289
-149
-185
-128
-50
361
1459
2583
3226
3073
2000
679
168
196
127
63
17
-63
-213
-228
-132
-206
-267
-160
-167
-222
-89
-225
-377
-151
-128
-182
-176
-210
-142
-100
-130
-11
-48
-181
-36
22
-84
-65
65
96
81
148
206
258
222
187
371
359
327
438
401
391
454
510
458
501
460
332
414
335
170
176
136
102
123
20
-169
-54
-100
-317
2
-81
-309
-74
-67
-96
-51
-110
-113
-147
-203
-152
-207
-238
-64
-58
-152
-106
-119
-199
-87
-116
-198
51
-17
-172
-58
-19
-57
-141
-106
-105
-64
8
-157
-104
-9
-218
-191
-40
-200
-313
-162
-90
-28
-38
-84
-85
-250
-248
-121
-176
-169
-120
-201
-99
-68
-162
-131
-175
-28
-3
-311
-299
-105
28
-4
-39
42
94
109
42
138
283
212
180
153
37
6
-13
78
73
-78
-123
-177
-235
-213
-113
-193
-355
-275
-205
-226
-144
-134
-144
-61
154
951
2132
2990
3095
2237
857
106
48
-34
-45
-32
-21
-15
-69
-100
-174
-194
-105
-162
-257
-202
-288
-302
-153
-99
-102
-92
-142
-201
-167
-37
10
-116
-99
-26
0
30
-32
-42
42
91
82
142
225
173
159
290
391
340
421
418
328
466
437
489
568
276
317
361
175
164
102
73
59
35
-46
-247
-310
-59
72
-167
-187
-38
-103
-222
-327
-241
-106
-122
-166
-270
-160
-53
-169
-195
-189
-126
-128
-307
-269
-25
-74
-223
-101
-72
-181
-108
-90
-203
-182
-61
-121
-236
-183
-223
-154
-44
-165
-201
-203
-295
-259
-245
-275
-213
-258
-173
-82
-258
-283
-318
-290
-206
-413
-274
-95
-193
-138
-186
-269
-215
-184
-209
-319
-331
-210
-200
-130
11
-17
-33
-39
1
57
22
113
129
-19
-54
-19
-51
-47
-156
-246
-207
-351
-283
-229
-312
-186
-297
-361
-235
-217
-278
-413
-296
41
634
1652
2720
3113
2559
1395
195
-248
42
200
-27
-90
-183
-293
-248
-345
-307
-183
-289
-374
-235
-207
-208
-223
-319
-360
-378
-240
-169
-207
-166
-107
-140
-229
-122
-61
-111
-97
-85
39
25
37
73
53
245
269
233
170
176
369
386
415
498
342
312
500
410
368
390
219
152
227
128
-100
-46
14
-187
-188
-78
-144
-319
-233
-125
-190
-131
-180
-199
-168
-125
-197
-387
-303
-120
-156
-224
-195
-242
-203
-297
-394
-54
-60
-163
-123
-223
-151
-166
-232
-122
-192
-199
-39
-128
-160
-143
-152
-150
-159
-169
-255
-317
-218
-148
-204
-153
-186
-274
-284
-220
-191
-167
-141
-232
-237
-213
-190
-153
-176
-247
-251
-157
-145
-161
-198
-202
-162
-154
-173
-180
-96
-69
-38
-56
-46
3
76
283
132
91
119
-48
103
74
-61
-72
-32
-94
-216
-209
-331
-340
-167
-137
-286
-286
-236
-288
-237
-210
-221
-186
429
1702
2879
3349
2886
1765
495
1
164
113
18
2
-159
-242
-219
-261
-270
-179
-227
-378
-295
-343
-315
-87
-234
-363
-196
-114
-164
-181
-247
-110
-67
-329
-171
22
-98
-194
-105
45
22
-64
-41
82
27
94
300
356
273
282
464
422
422
479
498
474
345
346
230
224
341
152
112
38
-127
-58
-163
-251
-120
-85
-143
-163
-116
-171
-236
-144
-198
-283
-294
-232
-114
-243
-267
-161
-193
-237
-195
-229
-277
-194
-237
-91
-49
-283
-231
-140
-151
-213
-230
-80
-42
-145
-90
-187
-293
-108
-81
-127
-151
-202
-173
-171
-215
-187
-206
-240
-226
-210
-128
-64
-113
-171
-149
-101
-122
-219
-191
-103
-195
-156
-106
-188
-134
-190
-169
-153
-210
-135
-129
-92
1
-11
-43
29
156
74
48
169
55
128
271
164
81
83
130
63
-117
-168
-135
-163
-273
-228
-144
-207
-183
-128
-190
-198
-126
-124
-224
-308
274
1432
2590
3406
3223
2169
874
150
53
112
169
-3
-99
-86
-110
-151
-177
-154
-127
-80
-132
-173
-97
-179
-213
-133
-137
-151
-124
-46
-53
-54
-46
-46
-28
-40
-26
61
94
39
3
36
154
178
153
224
323
367
421
405
294
391
554
486
466
548
525
448
365
428
300
186
304
138
42
52
-106
-127
41
91
-54
-249
-161
-151
-265
-110
-88
-84
-68
-155
-133
-35
-110
-178
-108
-136
-91
-120
-231
-124
-79
-37
0
-99
-140
-59
-13
-89
-78
-65
-125
-121
-114
-82
-137
-200
-18
-28
-139
-70
-170
-227
-50
-31
-185
-181
-139
-111
-93
-119
-90
-190
-206
-114
-144
-115
-57
-163
-205
-228
-241
-94
-38
-106
-169
-135
-61
-95
-147
9
35
33
189
99
90
228
173
83
15
-25
41
163
142
-51
-182
-147
-144
-138
-143
-282
-283
-201
-162
-219
-224
-65
-84
-123
2
498
1548
2641
3080
2637
1427
181
-148
33
144
104
-45
-173
-221
-174
-95
-123
-202
-110
-137
-198
-138
-149
-164
-134
-98
-202
-300
-96
2
-158
-159
-81
-73
-82
-63
5
13
-41
-23
-7
91
233
166
221
227
149
281
255
249
391
382
381
523
468
332
346
351
363
265
153
204
60
-64
-12
-57
-5
-115
-271
-152
-155
-206
-224
-172
-174
-298
-224
-262
-286
-186
-192
-125
-196
-184
-130
-208
-148
-63
-109
-218
-151
-138
-207
-129
-150
-244
-206
-117
-52
-15
-200
-388
-188
-83
-253
-277
-73
-55
-193
-181
-127
-140
-244
-229
-204
-256
-302
-268
-114
-186
-290
-220
-250
-261
-347
-372
-198
-181
-242
-168
-107
-207
-272
-178
-178
-323
-252
-146
-113
-6
-34
-121
-90
19
82
133
158
-22
-126
-14
-20
-99
-117
-40
-31
-280
-348
-300
-330
-268
-252
-257
-346
-452
-305
-207
-352
-294
-140
-143
566
1873
2868
3137
2505
1290
156
-252
-113
53
59
-59
-195
-193
-208
-286
-331
-261
-196
-231
-297
-418
-346
-198
-205
-328
-264
-223
-337
-212
-102
-165
-201
-123
-141
-187
-174
-158
32
48
-48
6
-2
52
78
68
104
170
359
352
300
379
392
482
483
379
346
352
346
274
194
103
-8
-47
-31
-147
-255
-136
-62
-163
-216
-271
-274
-284
-272
-155
-191
-269
-218
-200
-227
-286
-318
-321
-282
-202
-223
-202
-365
-463
-144
-19
-193
-249
-208
-161
-183
-205
-255
-298
-170
-125
-197
-233
-222
-211
-261
-232
-266
-290
-157
-183
-229
-215
-234
-271
-275
-271
-286
-296
-276
-240
-271
-231
-174
-205
-232
-236
-213
-178
-255
-332
-320
-166
-121
-285
-198
-141
-192
-151
-178
-195
-205
-179
-55
47
78
73
138
195
96
-32
27
30
-26
50
67
-76
-253
-303
-207
-177
-274
-341
-393
-372
-344
-253
-169
-341
-437
-177
-95
-33
808
2031
3051
3387
2579
1244
315
24
135
47
-139
-57
-108
-242
-266
-332
-319
-203
-218
-267
-159
-199
-254
-206
-172
-144
-279
-279
-243
-246
-137
-116
-139
-113
-130
-197
-190
-70
-28
-116
-2
108
70
147
182
221
212
323
391
196
376
415
323
623
567
345
448
456
378
308
254
163
7
38
16
-31
39
-48
-119
-110
-219
-220
-204
-279
-215
-154
-150
-122
-187
-283
-240
-222
-202
-219
-188
8
-110
-241
-189
-189
-156
-108
-171
-202
-156
-140
-145
-223
-286
-189
-143
-167
-38
-196
-457
-250
-55
-106
-129
-171
-249
-232
-133
-120
-183
-192
-168
-155
-249
-269
-178
-139
-158
-182
-117
-248
-272
-109
-249
-242
-60
-131
-203
-174
-113
-106
-232
-189
16
-32
-116
9
55
58
107
161
70
110
234
45
46
171
129
105
124
-17
-96
-14
-147
-331
-247
-56
-49
-182
-221
-141
-153
-102
-129
-184
-46
138
933
2126
3018
3212
2373
972
94
103
125
1
56
-15
84
76
-221
-81
-132
-211
-68
-184
-144
-96
-100
-39
-101
-166
-150
-43
-46
-126
-39
66
-16
-36
-18
-52
40
147
86
50
64
78
254
223
251
386
306
400
372
283
464
555
456
441
479
370
390
466
354
298
318
269
225
109
-43
2
32
-107
-122
22
3
-109
-164
-137
18
1
-175
-119
-10
-93
-44
23
-132
-209
-129
-68
-83
-129
-53
30
-43
-61
-95
-85
46
-2
-31
-34
-55
9
22
-10
-47
-33
-62
-31
-35
-160
-158
-85
6
-71
-231
-151
-105
-101
-38
-75
-15
-25
-130
-123
-32
-104
-175
19
-4
-165
-17
-36
-271
-125
-28
-117
-119
-119
-35
30
2
113
129
87
228
183
102
133
44
46
42
17
67
53
-77
-210
-142
-192
-231
-193
-279
-244
-281
-340
-194
-179
-250
-199
-118
328
1379
2528
3080
2690
1547
387
6
67
90
34
-109
-162
-176
-262
-233
-113
-123
-152
-169
-226
-200
-142
-231
-249
-119
-142
-279
-184
-131
-171
-57
-216
-277
7
-84
-124
44
3
37
57
48
68
132
177
62
147
346
332
267
333
391
388
415
339
267
344
432
397
243
202
247
153
58
-28
-134
-169
-118
-86
-246
-173
5
-235
-309
-121
-155
-284
-191
-131
-228
-211
-129
-208
-259
-135
-142
-235
-249
-174
-104
-137
-202
-149
-129
-216
-145
-101
-116
-103
-242
-260
-192
-151
-114
-223
-222
-264
-337
-168
-159
-208
-257
-258
-160
-267
-184
-134
-181
-144
-249
-219
-220
-244
-261
-321
-204
-124
-193
-226
-228
-213
-192
-279
-233
-130
-189
-185
-194
-194
-83
-35
-57
-100
-129
-49
61
109
108
102
-13
-214
-30
214
108
83
-116
-348
-91
-99
-292
-276
-295
-195
-195
-275
-225
-256
-244
-209
-215
-178
170
1072
2254
3158
3195
2268
923
176
51
137
71
-118
-76
-152
-144
-240
-249
-68
-260
-321
-203
-129
-111
-165
-150
-191
-201
-183
-210
-185
-188
-301
-251
-17
-9
-152
-193
-170
-79
35
40
-10
81
278
203
118
226
271
331
332
344
406
357
380
357
462
553
372
394
242
74
222
181
30
-74
-44
2
-55
-84
-122
-135
-144
-184
-158
-242
-300
-203
-252
-236
-183
-202
-248
-330
-212
-125
-207
-125
-95
-258
-279
-163
-183
-260
-143
-91
-135
-123
-172
-182
-182
-187
-129
-184
-330
-236
-76
-179
-154
-126
-294
-212
-118
-230
-249
-249
-215
-160
-194
-196
-228
-204
-88
-163
-318
-214
-81
-178
-221
-184
-206
-184
-165
-247
-243
-181
-157
-189
-246
-164
-74
-109
-207
-42
154
46
74
202
197
71
-18
68
54
3
79
19
-184
-149
-132
-240
-205
-191
-258
-304
-277
-241
-283
-207
-156
-221
-149
-172
142
1182
2380
3292
3258
2222
955
82
18
204
24
-122
-123
-135
-181
-226
-204
-190
-219
-192
-132
-232
-337
-254
-171
-169
-112
-48
-185
-115
-43
-250
-186
-89
-64
-107
-61
-26
-118
60
130
27
85
154
108
134
289
317
317
335
280
376
505
487
434
411
353
400
480
345
262
224
115
165
47
-79
-32
-77
16
-22
-129
-120
-93
-58
-156
-203
-128
-133
-196
-149
-134
-195
-104
-31
-82
-138
-81
-43
-145
-115
-136
-209
-57
35
-53
-100
-88
-82
5
23
-44
-18
69
39
-109
-126
-122
-90
-95
-77
34
-50
-117
-72
-104
-139
-76
-120
-207
-107
-52
-62
-42
-64
-96
-160
-64
-45
-184
-73
-114
-152
-20
-27
32
-16
-138
2
63
56
114
105
225
314
221
149
110
203
278
80
95
126
6
-117
-114
-18
-154
-219
-231
-215
-91
-61
-111
-70
-161
-231
-63
118
823
2071
2973
3119
2298
888
128
24
62
96
-1
19
-8
-111
-168
-202
-142
-74
-100
-166
-53
-41
-273
-174
-39
-81
-47
-106
-69
-83
-221
-35
96
17
30
-11
-79
10
97
74
74
48
117
257
286
270
200
284
424
348
319
452
571
428
341
404
271
314
336
156
171
124
10
8
25
93
-89
-266
-123
-93
-119
-70
-91
-153
-196
-162
-135
-189
-199
-131
-141
-185
-105
-177
-228
-55
-164
-266
-114
-47
-36
-88
-148
-103
-93
-73
-19
-102
-166
-135
-107
-105
-145
-119
-108
-152
-98
-186
-246
-137
-85
-126
-216
-175
-95
-135
-139
-132
-234
-214
-102
-176
-365
-169
65
-240
-384
-209
-151
-149
-202
-227
-189
-186
-100
-41
-30
-23
-17
21
5
117
297
3
-182
-36
-4
146
66
-67
-36
-98
-195
-310
-299
-186
-300
-425
-296
-248
-293
-171
-162
-216
-163
-71
610
1752
2765
2933
2241
1300
290
-119
2
72
-12
-77
-108
-189
-313
-289
-186
-292
-265
-283
-314
-211
-241
-198
-219
-310
-246
-201
-173
-127
-205
-193
-186
-284
-206
-72
28
-37
-86
68
57
17
106
84
115
248
172
146
256
336
360
364
441
375
316
398
439
316
111
94
114
131
165
40
-117
-142
-83
-84
-56
-155
-238
-201
-289
-265
-185
-176
-221
-258
-211
-349
-335
-302
-330
-157
-188
-177
-142
-210
-275
-199
-172
-284
-145
-138
-275
-152
-81
-138
-142
-295
-333
-151
-79
-156
-281
-255
-188
-254
-194
-143
-164
-176
-355
-293
-216
-334
-208
-210
-277
-185
-242
-285
-272
-218
-124
-145
-272
-237
-193
-223
-221
-309
-290
-266
-263
-110
-50
-218
-225
-25
42
20
-18
10
121
154
114
-15
-119
-95
-17
101
123
-39
-246
-290
-253
-299
-274
-207
-233
-266
-343
-324
-307
-248
-75
-190
-263
-115
547
1933
3110
3299
2585
1358
264
-6
132
57
-42
-93
-194
-271
-318
-260
-245
-293
-223
-178
-309
-315
-195
-211
-138
-335
-420
-31
-85
-233
-133
-127
-210
-202
-105
-95
-198
-182
10
-44
-38
146
75
15
99
140
221
402
406
311
382
417
412
466
489
394
314
357
340
217
250
191
78
141
-34
-117
-38
-95
-153
-239
-271
-134
-10
-71
-193
-171
-133
-329
-273
26
-99
-247
-126
-127
-193
-170
-111
-173
-212
-152
-232
-228
-167
-108
-102
-194
-190
-164
-57
-57
-114
-52
-152
-172
-199
-309
-132
-93
-115
-46
-166
-214
-272
-285
-147
-162
-123
-159
-197
-82
-169
-175
-92
-158
-268
-217
-86
-130
-148
-123
-167
-203
-215
-106
-78
-221
-171
-143
-150
-51
-40
13
-13
-28
128
200
135
141
107
82
76
51
-10
-165
-17
8
-194
-187
-264
-273
-181
-238
-180
-167
-310
-207
-123
-314
-215
-81
5
816
2014
3074
3403
2614
1290
226
42
139
90
77
-58
-236
-332
-188
-135
-190
-110
-130
-226
-283
-225
-237
-221
-173
-183
-104
-115
-159
-134
-18
1
-98
-39
-116
-75
83
-36
-78
43
99
179
249
241
248
240
276
374
324
254
461
502
408
350
405
571
530
412
352
336
278
178
157
113
46
34
-78
-88
-35
-165
-197
-99
-17
-109
-159
-60
-139
-180
-175
-171
-139
-117
-80
-181
-114
-21
-70
-47
-35
-28
-127
-118
-38
-57
-120
-147
-32
41
-28
-91
-185
-225
-112
-69
-17
5
-126
-130
-108
-110
-115
-148
12
-21
-161
-101
-95
-130
-130
-83
-129
-214
-157
-185
-229
-98
-87
-109
-84
-105
-139
-177
-231
-223
-44
-26
-29
38
21
93
94
90
174
189
53
76
243
40
-32
154
137
1
-79
-79
-162
-302
-297
-148
-85
-119
-153
-183
-165
-177
-144
-157
-290
231
1066
1980
3092
3129
2127
740
-132
-25
93
-28
30
108
-39
-68
-93
-210
-97
-102
-315
-275
-81
-113
-181
-57
-49
-102
-100
-130
-82
-114
-185
-70
5
40
41
-96
-38
67
61
33
36
142
153
204
269
210
245
408
399
299
425
465
357
468
523
279
262
382
290
243
210
145
101
-13
-102
-27
-7
-68
-23
-82
-167
-124
-43
-158
-371
-207
-81
-213
-275
-97
-13
-130
-196
-201
-93
-117
-173
-115
-37
-48
-156
-143
-71
-78
-138
-44
-34
-149
-120
-110
-151
-91
-141
-286
-121
-36
-126
-101
-117
-193
-126
-82
-125
-88
-221
-245
-148
-189
-98
-108
-232
-241
-231
-33
-131
-420
-188
-70
-114
-166
-261
-135
-118
-152
-93
-31
39
72
19
14
101
72
99
152
121
-25
-74
61
69
57
-103
-259
-196
-208
-250
-283
-342
-311
-289
-386
-378
-166
-259
-343
-194
-50
681
1637
2600
3192
2601
1251
120
-45
-61
-149
54
-70
-264
-237
-227
-274
-291
-343
-437
-264
-176
-283
-309
-221
-124
-211
-253
-160
-177
-296
-203
-161
-260
-19
-94
-325
-136
-145
-191
-88
-3
65
74
118
143
93
123
241
247
186
245
320
391
322
205
337
329
158
173
229
103
0
-13
-54
-25
-76
-166
-246
-272
-253
-216
-187
-372
-381
-227
-285
-322
-270
-376
-413
-270
-228
-240
-185
-233
-372
-387
-278
-123
-92
-201
-355
-305
-182
-195
-168
-221
-280
-226
-218
-241
-268
-309
-228
-206
-291
-241
-178
-237
-309
-394
-362
-200
-172
-206
-285
-295
-296
-334
-424
-355
-223
-306
-256
-157
-221
-392
-315
-192
-312
-328
-214
-310
-377
-214
-180
-198
-134
-135
-133
-142
-74
-31
-73
84
122
-7
-41
-74
-55
0
-9
-94
-212
-225
-321
-302
-153
-259
-330
-299
-347
-261
-298
-418
-297
-209
-198
-170
338
1544
2827
3292
2739
1599
511
79
-24
-18
3
-62
-161
-292
-279
-298
-373
-347
-315
-293
-262
-269
-286
-271
-232
-241
-255
-242
-214
-220
-197
-207
-267
-171
-209
-276
-254
-152
13
25
-18
-45
40
43
6
77
72
200
361
377
338
328
462
440
299
305
392
480
421
216
174
116
-32
-41
-105
-183
-140
-92
-102
-132
-165
-208
-287
-292
-203
-156
-282
-336
-190
-207
-285
-114
-92
-366
-348
-176
-259
-282
-203
-175
-216
-228
-176
-216
-171
-212
-320
-271
-207
-153
-162
-193
-224
-249
-273
-296
-183
-163
-276
-311
-159
-60
-264
-266
-165
-272
-338
-329
-254
-232
-243
-183
-152
-176
-227
-233
-153
-185
-293
-267
-220
-234
-238
-135
-86
-291
-283
-123
-166
-174
-75
-2
-77
-42
50
85
137
150
56
-33
22
14
4
-22
-86
-104
-157
-182
-336
-394
-218
-302
-347
-322
-245
-221
-438
-295
-129
-271
-141
629
1624
2722
3419
2893
1669
409
-172
63
256
121
-77
-203
-207
-137
-233
-337
-202
-138
-198
-216
-168
-159
-279
-373
-249
-105
-101
-226
-235
-49
-109
-241
-164
-106
-40
95
43
-73
-104
19
161
119
141
220
268
184
229
419
389
323
366
358
387
497
514
476
404
276
225
247
239
115
38
139
-15
-87
80
18
-140
-152
-102
-96
-144
-211
-264
-238
-126
-73
-145
-186
-147
-135
-91
-215
-186
-68
-149
-80
-76
-153
-119
-96
-126
-134
-92
-51
-26
44
-39
-146
-80
-80
-119
-106
-99
-115
-131
-147
-153
-128
-136
-231
-161
-9
-150
-194
-66
-199
-205
-36
-86
-167
-182
-148
-221
-201
-64
-137
-142
-115
-238
-151
34
-131
-113
87
20
81
37
-76
200
291
117
104
117
124
154
63
44
85
-30
-166
-181
-222
-272
-290
-230
-69
-137
-228
-133
-82
-181
-123
-24
323
1373
2462
3126
2895
1681
424
-115
-78
44
113
52
-110
-169
-138
-232
-253
-113
-198
-312
-167
-54
-118
-149
-29
-69
-181
-28
-103
-240
-68
-62
-84
-17
-40
-23
21
-13
-20
24
87
128
6
120
255
123
289
399
310
379
408
339
349
374
431
484
379
284
313
330
267
201
150
57
-3
48
-93
-102
-3
-157
-178
-182
-97
-143
-353
-143
-56
-217
-190
-141
-132
-71
-89
-104
-113
-228
-158
-39
-66
-117
-48
-81
-131
-90
-193
-125
-27
-83
-111
-111
-76
-143
-244
-143
-46
-60
-101
-209
-234
-146
-181
-222
-119
-82
-171
-184
-168
-240
-228
-159
-188
-225
-231
-220
-204
-178
-179
-239
-269
-242
-181
-117
-121
-132
-59
-29
-39
-28
-6
113
107
-15
89
44
-122
72
128
-87
-139
-194
-112
-130
-315
-270
-288
-304
-237
-249
-307
-306
-311
-361
-242
-171
-69
784
1885
2678
2873
2339
1181
7
-113
61
-28
-156
-299
-304
-302
-261
-191
-203
-316
-358
-275
-318
-346
-302
-315
-245
-184
-303
-376
-229
-213
-326
-220
-148
-148
-160
-248
-131
-155
-183
46
6
-31
60
74
79
72
169
208
237
299
286
273
271
328
325
217
139
195
207
185
188
52
-25
23
-85
-220
-200
-158
-210
-360
-271
-169
-324
-392
-334
-241
-277
-342
-341
-288
-202
-258
-283
-234
-252
-300
-294
-233
-186
-186
-228
-345
-324
-127
-121
-254
-237
-223
-227
-169
-269
-191
-105
-259
-230
-145
-182
-222
-310
-277
-118
-271
-361
-196
-166
-241
-323
-310
-265
-295
-348
-273
-205
-351
-271
-138
-260
-226
-204
-262
-230
-254
-307
-230
-124
-182
-127
-46
-24
32
-6
70
52
0
3
-19
-5
-45
-43
-70
-179
-285
-399
-330
-159
-230
-346
-235
-203
-402
-431
-250
-263
-286
-144
-95
425
1500
2658
3288
2766
1618
518
-24
31
105
-53
-66
-95
-324
-188
-310
-628
-350
-198
-267
-278
-273
-248
-265
-231
-233
-281
-258
-180
-221
-340
-237
-161
-223
-168
-178
-164
-6
18
-42
-51
5
84
71
90
73
207
359
101
106
319
381
452
413
383
405
396
377
266
184
233
215
28
-200
-126
-27
-90
-114
-85
-146
-243
-221
-236
-197
-225
-287
-233
-144
-205
-279
-181
-194
-192
-218
-296
-219
-222
-221
-188
-164
-167
-189
-173
-244
-162
-118
-235
-120
-167
-333
-154
-98
-198
-164
-148
-217
-225
-141
-116
-151
-227
-271
-182
-236
-315
-186
-189
-309
-352
-278
-173
-217
-236
-158
-277
-406
-334
-293
-272
-273
-159
-153
-317
-256
-235
-308
-197
-35
-41
-109
-48
15
-64
19
107
15
0
-15
-52
44
-40
-191
-146
-214
-321
-334
-299
-246
-245
-269
-260
-265
-292
-264
-271
-352
-277
-93
464
1485
2712
3503
2853
1514
421
-62
60
72
-74
-19
-113
-306
-205
-144
-269
-302
-282
-330
-193
-115
-221
-202
-202
-245
-257
-183
-203
-242
-94
-69
-136
-61
-41
-242
-202
74
133
90
46
54
152
222
199
103
228
346
273
399
361
211
409
506
437
466
464
383
266
259
264
117
83
110
6
-42
-4
-94
-202
-100
-53
-186
-242
-152
-63
-172
-236
-135
-103
-130
-149
-160
-112
-2
-133
-226
-44
-60
-128
-95
-110
-79
-84
-145
-177
-158
-58
-83
-149
-83
-52
-66
-147
-158
-82
-93
-152
-182
-137
-144
-186
-117
-14
-46
-147
-102
-114
-164
-104
-82
-89
-123
-135
-130
-107
-98
-219
-221
-130
-96
-35
-47
-148
-114
-25
-53
-89
-30
59
42
-11
132
335
288
110
27
96
123
105
122
-52
-121
-16
-154
-229
-205
-216
-203
-232
-170
-180
-218
-170
-160
-227
-194
-77
364
1461
2539
3062
2731
1514
327
-6
10
-14
50
-41
-149
-154
-226
-221
-213
-205
-118
-147
-204
-131
-264
-347
-83
-81
-148
-46
-111
-164
-116
-114
-94
-91
-150
-113
37
67
46
111
61
54
138
207
326
252
154
278
337
324
436
376
246
346
350
387
421
273
184
244
289
117
42
84
-14
-45
-36
-90
-125
-120
-132
-175
-142
-124
-267
-251
-73
-91
-109
-126
-199
-165
-76
-216
-310
-29
-14
-181
-93
-72
-118
-118
-82
-46
-38
-42
-166
-102
8
-130
-145
-164
-189
-144
-149
-120
-196
-283
-226
-115
-76
-158
-206
-263
-224
-122
-163
-183
-171
-182
-154
-158
-178
-145
-347
-387
-81
-152
-252
-123
-116
-297
-340
-159
-148
-118
-73
-129
-95
-35
-50
-45
26
50
120
175
46
24
-18
-89
-36
8
16
-58
-164
-231
-253
-278
-273
-247
-302
-288
-167
-256
-363
-248
-255
-218
-86
233
1148
2222
3073
3099
1943
664
47
2
113
57
-116
-175
-150
-215
-362
-426
-191
-215
-314
-139
-187
-297
-211
-139
-225
-213
-223
-267
-179
-197
-186
-112
-93
-30
-8
-43
-40
-82
-168
49
225
-106
-123
292
190
102
382
422
389
457
429
374
365
341
442
502
324
221
336
290
172
169
120
63
-92
-77
-23
-109
-92
-105
-174
-195
-114
-94
-177
-226
-240
-140
-74
-237
-287
-209
-125
-133
-187
-169
-131
-123
-146
-73
-59
-48
-62
-140
-138
-167
-111
-245
-298
29
-65
-188
-107
-91
-56
-164
-160
-93
-134
-111
-97
-133
-104
-158
-224
-111
-130
-259
-119
-50
-194
-221
-87
-23
-255
-229
-88
-144
-112
-226
-231
-122
-164
-134
-112
-136
-137
-120
-81
-125
-245
-244
-22
119
145
190
3
100
299
159
133
75
48
130
102
-30
-195
-183
-102
-129
-230
-254
-271
-267
-133
-206
-367
-297
-213
-150
-76
-125
226
1255
2472
3386
3170
2039
830
81
169
257
52
-82
-179
-200
-155
-115
-114
-261
-251
-134
-171
-131
-141
-182
-111
-193
-263
-141
-256
-232
-42
-101
-54
-68
-191
-204
-145
37
44
-4
83
155
142
20
137
319
212
147
321
483
374
343
483
410
389
383
317
375
413
357
327
250
67
68
128
27
15
-1
-44
-90
-220
-82
-45
-152
-111
-243
-254
-105
-68
-68
-115
-64
-125
-174
-130
-141
-77
-192
-216
-61
-52
-80
-86
-40
-22
-69
-113
-215
-88
30
-220
-181
-27
-111
-86
-199
-249
-7
63
-54
-112
-38
-143
-242
-144
-254
-208
-10
-29
-107
-161
-190
-174
-80
-30
-79
-178
-158
-89
-121
-92
-76
-156
-137
-62
-200
-225
-26
-74
-109
6
69
-50
-116
50
84
49
83
234
258
208
186
74
147
161
95
118
-38
-116
-59
-105
-185
-198
-116
-130
-158
-116
-322
-315
-163
-312
-60
163
284
1206
2415
3219
3164
2201
952
168
26
123
65
-110
-10
1
-126
-114
-92
-171
-300
-133
-28
-113
-127
-237
-164
39
-48
-114
-51
-105
-69
-23
-142
-143
9
-43
-115
38
84
51
33
70
112
177
279
252
246
338
364
274
331
435
434
416
359
413
498
461
377
264
222
250
174
57
75
30
-116
-90
-128
-134
103
9
-275
-153
-57
-138
-162
-142
-95
-157
-94
-90
-143
-73
-186
-144
-19
-129
-100
5
34
7
-172
-239
-33
74
-36
-67
-23
-105
-62
2
-134
-131
-97
-80
-39
-85
-138
-114
-46
-11
-55
-78
-61
-104
-79
-157
-248
-95
-27
-129
-161
-108
-121
-139
-47
-70
-140
-120
-81
-131
-122
-86
-168
-135
-173
-121
-2
-177
-101
83
65
83
92
203
282
113
83
194
69
76
205
100
-2
26
-100
-223
-178
-156
-165
-235
-171
-64
-137
-108
-79
-111
-112
-183
-21
749
1907
2822
3112
2466
1121
122
-52
42
36
71
26
-56
-72
-128
-127
-114
-84
-83
-186
-159
-85
-136
-218
-161
-79
-156
-135
-119
-187
-163
-27
-101
-173
106
83
28
54
-44
36
99
144
193
174
146
214
310
306
325
374
420
388
342
395
348
229
299
383
269
305
287
134
162
97
57
-86
-246
9
-27
-233
-119
-146
-210
-57
-26
-244
-236
-112
-246
-218
-68
-107
-108
-79
-125
-137
-139
-188
-194
-262
-220
19
0
-92
-42
-137
-209
-77
-67
-127
-112
-184
-162
-91
-192
-223
-128
-88
-167
-252
-208
-151
-124
-134
-145
-90
-106
-190
-203
-284
-255
-92
-137
-209
-150
-145
-165
-146
-217
-235
-200
-152
-257
-400
-193
-22
-75
-147
-187
-159
-61
-47
-143
-122
-66
-36
45
122
196
223
98
17
97
71
7
-19
-108
-243
-235
-134
-227
-300
-249
-195
-208
-255
-255
-246
-309
-343
-183
-122
181
1110
2251
3159
3022
1897
664
36
-2
102
132
-18
-291
-392
-206
-211
-355
-218
-53
-173
-278
-270
-220
-239
-243
-157
-332
-334
-142
-206
-147
-96
-248
-249
-92
-28
-103
-127
-37
-73
-78
84
122
138
189
98
84
273
408
364
272
318
403
366
333
340
360
337
242
259
242
199
155
56
-32
-52
-19
-105
-133
-209
-261
-119
-112
-168
-242
-272
-230
-135
-155
-316
-216
-168
-188
-127
-197
-184
-174
-194
-157
-267
-228
-148
-202
-141
-106
-148
-135
-129
-198
-212
-214
-199
-227
-288
-218
-96
-115
-147
-109
-165
-169
-184
-303
-241
-168
-254
-240
-240
-235
-240
-268
-199
-129
-160
-255
-226
-209
-326
-288
-119
-187
-289
-197
-170
-193
-182
-290
-357
-199
-122
-259
-219
-21
-33
-80
-5
-42
-80
37
168
62
-24
99
123
87
61
36
40
-16
-113
-201
-325
-292
-316
-322
-198
-295
-254
-195
-252
-123
-224
-367
-188
269
1226
2388
3363
3176
1934
861
270
98
108
87
13
-93
-209
-238
-217
-257
-261
-223
-405
-356
-145
-237
-145
-151
-347
-214
-99
-167
-170
-92
-81
-136
-120
-27
-50
-116
-9
-58
-153
-39
-42
-17
180
198
101
274
392
303
270
295
347
348
367
402
343
375
403
324
323
305
183
98
146
-54
-213
-10
-61
-140
-83
-103
-150
-194
-218
-259
-201
-201
-212
-223
-294
-221
-164
-145
-145
-145
-205
-214
-91
-117
-276
-279
-159
-163
-143
-84
-184
-223
-127
-153
-203
-90
-54
-160
-215
-205
-147
-165
-306
-225
-96
-225
-259
-208
-204
-165
-200
-234
-159
-155
-227
-236
-148
-190
-266
-160
-310
-222
35
-171
-295
-209
-102
-130
-183
-145
-307
-384
-169
-254
-223
10
-97
-111
-56
-79
-14
-13
-31
-9
95
224
127
5
96
169
80
49
69
-30
-60
-103
-196
-235
-207
-257
-428
-266
-99
-207
-184
-96
-88
-101
-119
115
932
2151
3065
3125
2328
1078
194
-14
110
197
21
-161
-191
-80
-23
-125
-114
-117
-164
-99
-172
-278
-189
-111
-101
-123
-133
-164
-233
-108
31
-50
-71
11
19
-25
-14
26
33
84
77
88
118
71
226
297
211
297
351
461
398
333
448
323
354
393
253
384
407
202
212
177
78
48
-17
-30
-98
-70
28
-163
-184
-54
-83
-133
-133
-169
-68
-18
-341
-278
-6
-56
-168
-170
-92
-27
-106
-72
-3
-131
-114
-99
-147
-82
26
56
-43
-56
-8
-18
-71
-81
-96
-161
-146
-93
-101
-130
-76
-7
-76
-56
-49
-328
-225
28
-53
-144
-79
-21
-89
-71
-101
-97
-149
-250
-176
-138
-70
-47
-84
-142
-83
19
-131
-193
-106
-92
5
-120
-91
286
224
135
155
135
219
231
109
44
155
155
28
10
-46
-206
-270
-172
-155
-253
-171
-163
-180
-132
-234
-189
-161
-279
-71
476
1302
2497
3194
2751
1675
511
-1
40
98
109
30
27
-26
-255
-344
-173
-161
-221
-192
-215
-219
-233
-207
-135
-88
-120
-175
-156
-99
-23
-141
-173
59
19
-207
-134
11
7
28
31
59
120
120
124
166
197
223
331
324
243
274
343
421
318
203
318
346
197
161
231
170
90
8
-124
-64
-59
-206
-225
-201
-241
-277
-212
-205
-245
-171
-84
-281
-458
-169
-71
-227
-171
-106
-178
-212
-101
-117
-206
-230
-213
-118
-121
-180
-206
-133
-71
-146
-179
-115
-222
-385
-183
-30
-145
-187
-138
-140
-159
-184
-219
-236
-224
-216
-358
-282
-86
-199
-206
-240
-389
-257
-251
-233
-121
-183
-173
-243
-266
-265
-210
-70
-268
-288
-124
-89
-164
-339
-118
44
-99
-108
8
54
-165
-74
273
205
76
30
6
103
18
-74
-102
-77
14
-146
-297
-284
-298
-274
-194
-226
-275
-246
-208
-217
-228
-170
-157
204
1179
2311
3182
3128
2054
767
49
15
103
-11
-123
-112
-187
-213
-183
-283
-235
-119
-205
-309
-267
-222
-264
-224
-257
-327
-160
-196
-302
-145
-153
-206
-131
-126
-141
-137
-150
-121
-38
12
-1
-21
13
58
112
253
231
150
282
421
449
400
365
456
440
254
283
334
290
233
71
44
57
-17
-41
-123
-197
-169
-191
-195
-156
-137
-185
-301
-235
-160
-253
-239
-151
-152
-224
-250
-259
-254
-137
-56
-148
-210
-200
-224
-252
-187
-135
-272
-190
-120
-189
-179
-192
-201
-253
-267
-166
-146
-184
-162
-214
-197
-189
-206
-238
-237
-251
-325
-281
-309
-192
-90
-240
-260
-177
-181
-231
-235
-258
-299
-191
-152
-277
-319
-240
-216
-281
-215
-156
-263
-262
-205
-278
-222
-198
-141
-18
-170
-134
-7
22
123
145
72
81
38
-72
38
83
53
23
-130
-185
-187
-259
-421
-400
-169
-190
-252
-264
-257
-205
-267
-279
-275
-204
429
1513
2684
3386
2943
1639
471
115
189
132
-13
-113
-130
-156
-212
-316
-391
-207
-127
-222
-305
-278
-208
-321
-235
-150
-211
-137
-157
-208
-177
-108
-120
-153
-119
-102
-125
-152
-72
-15
24
39
37
139
196
306
176
213
449
215
236
422
329
306
388
364
361
402
333
292
308
172
78
34
-42
-15
-32
-108
-112
-105
-142
-206
-175
-88
-207
-262
-206
-222
-255
-241
-142
-167
-139
-57
-144
-200
-176
-188
-205
-107
-118
-214
-114
-29
-42
-50
-62
-105
-102
-43
-93
-113
-37
-18
-136
-178
-184
-121
-63
-83
-56
-183
-161
-91
-227
-172
47
32
-96
-100
-10
-11
-95
-48
-51
-159
-113
-67
-140
-164
-135
-122
-132
-105
-87
-93
-30
-98
-203
-85
-48
-4
123
-17
-20
189
168
148
261
200
111
147
165
189
103
159
178
16
-19
-95
-71
-26
-272
-270
-72
-121
-135
-133
-107
-87
-170
-110
-14
286
1163
2381
3269
3146
2223
972
108
46
183
132
23
51
23
-69
-68
-200
-186
-20
-157
-216
-141
-145
-138
-95
-102
-170
-122
-65
-51
-36
-57
-97
-106
-27
-60
-75
86
96
60
88
122
199
179
182
290
342
294
213
269
363
334
404
490
423
404
382
376
364
222
237
329
216
91
79
36
-26
-53
-12
-20
-275
-170
63
-135
-163
-160
-192
-109
-96
-65
-118
-126
-59
-67
-96
-138
-83
-53
-37
8
-10
-13
-17
-49
-76
-24
-24
-57
-32
-130
-89
-1
-15
-47
-189
-89
24
-66
-64
-79
-168
-245
-170
2
-39
-97
-65
-120
-97
-41
-68
-148
-136
-99
-124
-133
-197
-122
-24
-47
-53
-112
-237
-235
-142
-58
10
-56
-9
69
30
103
72
-33
79
225
251
216
134
80
96
108
114
97
36
-55
-138
-145
-160
-169
-116
-143
-172
-160
-288
-206
-50
-237
-124
46
442
1547
2593
3144
2787
1488
265
-67
-8
16
111
17
-165
-160
-185
-148
-171
-229
-94
-169
-284
-180
-152
-126
-136
-188
-161
-166
-88
-91
-150
-16
-93
-161
-26
-84
-134
-99
29
92
22
87
125
146
195
170
273
291
232
295
281
198
210
328
407
368
324
306
251
184
124
141
150
47
-47
-125
-167
-89
-69
-90
-105
-204
-215
-197
-222
-218
-206
-278
-298
-264
-132
-144
-338
-258
-80
25
-82
-159
-133
-81
-105
-173
-9
-176
-355
-223
-234
-127
-50
-117
-314
-284
-109
-195
-186
-83
-150
-218
-88
-182
-263
-161
-157
-168
-223
-240
-207
-231
-291
-293
-220
-270
-312
-213
-207
-291
-234
-161
-216
-154
-153
-231
-200
-227
-210
-192
-258
-195
-128
-161
-155
-86
-48
-65
-36
17
78
124
136
-20
-124
-2
-49
-64
5
21
-100
-279
-220
-221
-281
-206
-191
-268
-274
-274
-254
-240
-279
-218
-177
64
931
2043
2964
3080
2254
972
31
11
135
97
-113
-217
-146
-252
-244
-252
-363
-285
-158
-263
-201
-137
-338
-334
-318
-290
-204
-212
-188
-112
-288
-321
-88
-205
-107
30
-72
-29
-17
-72
-86
-72
18
164
157
154
259
258
251
285
336
334
291
355
325
234
279
273
93
176
241
93
147
16
-101
-75
-142
-202
-214
-165
-320
-333
-153
-200
-277
-303
-283
-201
-179
-217
-238
-352
-443
-268
-170
-254
-207
-211
-245
-198
-217
-240
-245
-121
-130
-393
-247
-121
-326
-306
-222
-244
-218
-138
-249
-427
-331
-131
-124
-254
-227
-156
-199
-271
-251
-187
-340
-294
-137
-210
-212
-298
-357
-180
-158
-218
-195
-216
-244
-241
-157
-185
-282
-339
-320
-148
-77
-105
-259
-268
-65
-16
-65
-98
-105
-3
63
61
137
111
10
-29
-23
13
41
-3
5
-193
-541
-293
-10
-156
-209
-210
-224
-239
-260
-239
-262
-269
-205
-238
-177
446
1490
2701
3338
2820
1743
599
5
38
-104
-81
173
-100
-155
-99
-324
-183
-55
-243
-367
-348
-301
-165
-122
-232
-238
-226
-230
-185
-176
-160
-152
-147
-109
-120
-148
-94
-48
-145
-43
94
43
32
135
265
-4
-124
240
465
444
418
439
398
383
408
380
324
344
353
306
187
56
75
99
30
-32
-91
-196
-186
-107
-125
-171
-149
-101
-343
-437
-40
24
-97
-122
-156
-109
-128
-183
-216
-153
-114
-156
-144
-120
-220
-252
-103
-68
-67
-58
-38
-90
-224
-151
-84
-46
-60
-191
-84
-97
-325
-140
-10
-156
-132
-134
-165
-105
-132
-144
-213
-410
-242
-31
-128
-116
-112
-161
-152
-163
-160
-151
-107
-199
-199
-58
-197
-171
-49
-116
-97
-175
-225
-59
-77
-130
50
110
111
98
81
151
131
164
165
80
75
73
105
96
14
-45
-99
-172
-233
-212
-210
-223
-175
-162
-171
-232
-230
-128
-111
-122
-32
637
1909
3108
3455
2653
1240
209
47
94
124
149
-13
-94
-83
-149
-182
-249
-165
-63
-173
-151
-111
-217
-190
-121
-207
-173
-107
-161
-142
-81
-45
-37
-55
-40
-74
-66
58
66
29
127
169
80
94
244
324
199
142
305
410
394
376
433
452
363
377
393
321
199
209
282
143
95
108
11
0
-35
-66
-26
-163
-224
-175
-160
-132
-161
-82
-157
-299
-124
-122
-177
-78
-86
-115
-137
-176
-167
-212
-132
-26
-162
-111
-6
-115
-78
39
-120
-192
-35
-51
-145
-114
-145
-155
1
-81
-209
-169
-222
-181
-102
-100
-115
-205
-181
-231
-288
-57
-38
-184
-142
-93
-252
-247
-125
-225
-174
-70
-117
-225
-201
-122
-188
-128
-221
-260
-80
-134
-65
15
-17
-20
-37
-49
11
164
140
123
128
52
119
124
48
14
-37
-152
-205
-137
-286
-277
-112
-215
-250
-195
-208
-183
-188
-150
-61
-67
541
1740
2780
3095
2532
1313
54
-232
34
120
30
-68
-92
-167
-304
-316
-237
-169
-120
-166
-132
-189
-272
-172
-163
-209
-182
-172
-200
-140
-98
-108
-128
-191
-101
-137
-263
-49
113
84
104
108
111
176
203
158
216
385
295
270
321
221
352
436
395
397
317
209
221
208
115
104
117
57
-88
-145
-170
-149
-34
-86
-164
-161
-275
-214
-105
-319
-337
-322
-271
-106
-147
-170
-203
-194
-164
-217
-196
-143
-126
-160
-189
-135
-125
-165
-145
-148
-176
-162
-151
-202
-184
-59
-197
-193
-89
-283
-213
-139
-319
-244
-52
-249
-367
-145
-143
-229
-165
-174
-297
-323
-225
-187
-245
-190
-118
-144
-186
-255
-221
-210
-228
-172
-201
-273
-206
-123
-204
-270
-153
-136
-218
-198
-47
79
-15
8
51
130
216
75
-1
-44
-43
-19
15
80
-12
-160
-293
-242
-143
-245
-271
-277
-343
-322
-265
-214
-306
-283
-140
-158
313
1394
2570
3161
2765
1893
641
-65
87
112
-64
-218
-114
-99
-230
-235
-292
-305
-297
-319
-342
-349
-224
-187
-327
-274
-128
-187
-203
-185
-261
-257
-151
-121
-189
-171
-118
-139
-127
-15
83
10
21
130
135
99
60
86
235
340
250
229
437
454
276
339
416
336
226
161
154
68
18
-7
-92
-107
-90
-113
-219
-202
-125
-224
-285
-311
-365
-261
-199
-325
-309
-212
-320
-336
-302
-355
-235
-142
-190
-262
-239
-243
-385
-261
-118
-170
-174
-218
-225
-166
-224
-377
-299
-154
-177
-202
-246
-310
-439
-327
-164
-193
-199
-255
-202
-250
-334
-241
-243
-348
-287
-211
-234
-225
-349
-274
-196
-360
-275
-252
-264
-201
-226
-213
-243
-279
-215
-218
-257
-281
-328
-207
-164
-199
-211
-169
31
62
15
50
54
72
35
-145
-113
72
49
-16
-106
-144
-180
-322
-340
-284
-248
-373
-471
-333
-304
-315
-190
-182
-224
-192
-4
708
1883
2998
3181
2480
1307
235
47
143
117
-19
-194
-229
-288
-380
-389
-316
-373
-305
-120
-257
-312
-203
-255
-316
-223
-187
-343
-340
-191
-204
-177
-119
-141
-140
-152
-241
-306
-152
85
83
-28
59
207
149
155
246
229
268
280
305
369
400
417
359
411
373
196
178
286
255
52
56
78
-38
-122
-291
-350
-109
-84
-218
-193
-182
-194
-202
-192
-231
-249
-233
-380
-323
-166
-220
-239
-207
-226
-258
-151
-145
-211
-145
-157
-261
-301
-142
-77
-235
-285
-249
-220
-193
-177
-218
-188
-176
-245
-372
-466
-221
-118
-144
-108
-174
-158
-202
-220
-221
-299
-268
-320
-326
-205
-216
-286
-319
-163
-130
-385
-329
-161
-216
-173
-147
-235
-388
-339
-185
-209
-107
-67
-166
-131
-70
-51
-31
-7
49
82
-2
-116
50
178
101
103
63
30
-16
-135
-220
-299
-292
-225
-278
-261
-180
-259
-284
-200
-206
-262
-228
-70
316
1318
2567
3301
3059
1889
592
47
99
118
78
-40
-160
-129
-164
-235
-210
-177
-183
-241
-200
-253
-312
-221
-197
-140
-90
-127
-134
-114
-88
-120
-73
-98
-178
-18
-20
-81
-78
-68
88
115
42
118
194
218
202
193
245
279
345
282
359
515
480
406
327
362
359
275
252
214
164
28
-155
-38
102
-120
-219
14
-57
-202
-80
-106
-120
-121
-248
-268
-136
-71
-122
-77
-73
-120
-137
-154
-108
-143
-118
-84
-73
-46
-229
-175
-57
-160
-105
-39
-135
-111
-22
-55
-39
-70
-79
-104
-199
-64
-33
-209
-137
-48
-163
-160
-91
-179
-259
-129
-129
-172
-112
-170
-159
-85
-89
-143
-164
-109
27
-131
-421
-192
36
-117
-108
-32
-13
15
-30
1
24
-17
-5
88
151
165
147
126
127
85
112
24
-107
-44
-123
-250
-218
-179
-227
-297
-199
-115
-253
-263
-184
-280
-145
110
509
1577
2726
3133
2543
1316
280
-124
-123
-72
27
47
-98
-165
-142
-192
-324
-212
-139
-320
-190
-70
-180
-224
-198
-151
-196
-174
-182
-286
-128
-24
-108
-32
-2
-83
-104
30
79
-73
-13
62
66
161
167
224
268
273
223
164
350
398
312
353
306
301
353
329
310
285
48
-73
42
26
-32
-104
-112
-63
-161
-198
-236
-329
-172
-220
-317
-202
-337
-283
-118
-234
-292
-294
-175
-60
-139
-137
-117
-170
-173
-181
-139
-128
-102
-122
-287
-261
-172
-146
-99
-306
-354
13
-16
-185
-146
-283
-303
-173
-153
-140
-198
-232
-206
-311
-285
-169
-229
-158
-101
-401
-446
-167
-70
-142
-175
-229
-370
-275
-114
-145
-193
-207
-209
-147
-162
-287
-301
-259
-197
-122
-82
-17
16
-18
-23
98
36
-161
-67
19
-16
-5
22
-25
-110
-200
-275
-282
-317
-270
-277
-435
-381
-235
-268
-284
-235
-225
-228
-84
569
1694
2721
3074
2612
1493
401
-11
-68
37
-2
-163
-118
-194
-277
-269
-314
-277
-329
-330
-197
-300
-245
-99
-254
-292
-169
-212
-270
-163
-263
-324
-111
12
-101
-177
-21
-27
-116
31
62
-43
65
157
89
149
285
282
343
336
290
410
434
442
454
427
373
263
301
283
163
100
86
149
48
-160
-166
-82
-140
-258
-210
-84
-133
-212
-274
-308
-265
-216
-201
-211
-154
-160
-232
-183
-156
-153
-215
-252
-230
-293
-154
-23
-110
-193
-127
-108
-197
-129
-178
-249
-121
-149
-339
-303
-111
-110
-125
-189
-225
-167
-133
-132
-172
-200
-362
-274
-105
-236
-175
-87
-226
-209
-161
-178
-208
-256
-129
-137
-152
-126
-203
-256
-262
-162
-204
-184
-69
-104
-173
-242
-187
-78
-12
-5
26
109
14
-26
57
142
242
99
75
164
-26
-3
143
-16
-133
-53
-117
-296
-231
-137
-226
-247
-223
-243
-154
-158
-255
-161
-83
-87
490
1621
2742
3326
2874
1877
696
155
329
157
-40
30
-75
-145
-71
-198
-272
-98
-198
-273
-79
-169
-236
-130
-154
-152
-77
-28
-100
-220
-193
-90
-72
-142
-78
69
-1
-42
16
42
145
95
37
207
194
254
347
285
438
504
438
435
461
497
454
391
406
504
500
295
275
332
173
80
68
45
60
-34
-79
-33
-151
-140
-108
-179
-152
-60
-84
-170
-83
-73
-126
-161
-99
-1
-116
-100
-142
-124
-27
-122
-17
-63
-120
-34
-200
-101
26
-74
-113
-123
-45
-84
-95
-25
-37
-53
-72
-106
-138
-112
21
-35
-162
-66
-74
-123
-54
-94
-57
-37
-167
-61
-36
-150
-80
-56
-78
-55
-59
-65
-150
-82
74
-40
-95
-98
-116
-35
6
21
-23
-14
95
168
136
161
260
193
171
223
177
79
146
287
185
100
-63
-138
-47
-138
-147
-134
-84
-39
-109
-129
-175
-173
-137
-62
-24
46
904
2204
3073
3204
2495
1257
264
54
229
210
8
-21
39
-45
-131
-122
-111
-113
-69
-70
-129
-75
-47
-96
-128
-34
-47
-215
-59
98
97
-9
-61
141
146
36
58
124
159
153
145
147
191
191
211
408
348
236
466
442
361
506
522
446
408
481
475
385
373
313
218
152
204
193
112
67
-19
-54
-176
-110
80
-13
-73
-97
-122
-106
-149
-103
-42
-102
-104
-99
-121
-40
-18
-82
-76
-69
-64
-48
-34
-33
-41
18
-71
-292
-105
230
4
-115
-57
-101
14
-6
-9
-46
-96
-10
-59
-134
-126
-90
-37
-31
-106
-98
-49
-67
-87
-258
-225
-14
-119
-50
37
-131
-80
-119
-288
-132
-36
-108
-94
-98
-30
-15
-53
-39
-3
53
44
-31
87
202
152
192
166
154
145
142
152
4
-45
8
-91
-178
-95
-142
-236
-210
-204
-200
-221
-185
-188
-296
-150
38
-68
478
1679
2707
3236
2633
1257
270
1
31
88
38
-24
-92
-156
-127
-170
-171
-135
-198
-193
-104
-104
-127
-166
-349
-304
-37
-39
-61
-41
-81
-66
-70
-34
40
-47
-162
-96
-7
107
179
145
103
145
228
292
300
247
361
369
134
311
556
455
410
413
407
385
357
309
204
125
81
-28
-16
-5
-190
-216
-105
-92
-160
-157
-100
-114
-201
-187
-204
-270
-158
-106
-155
-155
-158
-203
-211
-175
-164
-162
-176
-195
-173
-126
-115
-178
-127
-135
-125
-28
-112
-158
-143
-161
-298
-296
-113
-160
-184
-118
-141
-171
-204
-201
-187
-183
-188
-243
-262
-249
-210
-178
-207
-242
-279
-190
-200
-262
-179
-195
-206
-239
-216
-180
-272
-238
-177
-142
-246
-363
-119
-114
-282
-113
-58
-90
12
-10
-80
17
120
94
22
-33
-83
7
79
-6
-41
-59
-154
-266
-285
-308
-274
-171
-206
-272
-234
-289
-349
-289
-209
-184
-124
484
1512
2586
3181
2769
1612
300
-65
211
64
-44
8
-95
-163
-197
-277
-301
-276
-252
-328
-301
-207
-252
-285
-239
-226
-339
-231
-69
-292
-362
-153
-164
-149
-97
-84
-56
-42
-50
-94
-47
-13
23
41
7
141
252
209
295
366
337
404
418
367
447
401
315
374
337
260
205
180
100
14
54
-89
-161
-260
-376
-79
-57
-202
-215
-248
-166
-134
-219
-197
-154
-233
-208
-240
-299
-157
-159
-234
-176
-164
-253
-321
-189
-54
-133
-187
-100
-153
-249
-162
-129
-171
-168
-126
-241
-260
-147
-190
-127
-150
-243
-131
-91
-168
-195
-227
-219
-225
-286
-218
-99
-174
-263
-119
-95
-235
-253
-244
-250
-147
-138
-227
-204
-172
-306
-341
-141
-88
-163
-182
-182
-186
-178
-160
-86
-85
-80
-10
3
-28
-100
36
194
98
53
53
48
81
44
40
23
-79
-147
-204
-250
-256
-414
-463
-187
-65
-195
-153
-95
-188
-118
-132
-178
555
1823
2927
3411
2878
1650
508
123
193
191
50
-121
-292
-213
-88
-267
-160
-87
-327
-244
-163
-238
-183
-156
-216
-254
-242
-216
-158
-179
-173
-110
-175
-172
-130
-92
-24
18
27
-38
-10
77
103
137
263
288
222
288
377
377
336
302
403
486
399
466
505
383
360
269
168
148
31
77
85
6
-24
-171
-173
-167
-157
-152
-231
-176
-220
-288
-151
-125
-205
-151
-177
-287
-204
-128
-214
-258
-137
-98
-137
-95
-218
-192
-28
-150
-195
-155
-142
-96
-106
-20
-116
-276
-200
-159
-140
-109
-148
-238
-228
-105
-116
-138
-253
-373
-173
-217
-208
-26
-125
-138
-142
-242
-188
-151
-217
-156
-234
-330
-182
-153
-260
-247
-182
-266
-211
-70
-215
-297
-150
-35
-127
-162
-12
-9
-13
49
-3
60
220
219
21
-5
15
-14
180
123
-6
-49
-137
-204
-296
-278
-205
-241
-275
-167
-161
-219
-178
-252
-235
-120
-75
664
1923
2917
3295
2733
1442
333
37
115
114
-19
-57
-63
-184
-226
-133
-86
-180
-230
-283
-291
-154
-53
-35
-107
-141
-188
-186
-77
-94
-134
-96
-127
-95
-18
-73
-14
-22
-101
-4
68
118
172
132
-3
117
458
422
240
311
421
430
457
524
472
326
358
396
304
426
169
-114
265
208
-20
71
-29
-70
-36
-139
-237
-236
-238
-272
-98
-57
-264
-216
-110
-144
-222
-253
-282
-235
-61
-58
-107
-78
-93
-181
-159
-108
-154
-110
-105
-144
-76
-87
-197
-181
-118
-148
-154
-105
-275
-260
-28
-92
-136
-135
-155
-117
-173
-172
-166
-249
-196
-164
-155
-149
-204
-108
-87
-228
-220
-177
-258
-234
-128
-133
-165
-166
-156
-136
-114
-217
-254
-115
-183
-234
5
92
20
121
223
131
68
83
6
8
-15
-48
31
6
-70
-178
-290
-292
-262
-256
-203
-206
-248
-303
-337
-354
-218
30
-179
124
1322
2358
3010
2728
1624
540
-48
-106
-59
-42
-17
-54
-133
-97
-194
-335
-171
-217
-411
-225
-139
-194
-149
-167
-171
-158
-154
-120
-172
-214
-124
-165
-252
-112
-20
-13
-14
-111
-36
85
37
0
93
194
216
243
278
226
274
393
341
337
347
383
453
392
243
173
206
193
96
14
-12
-2
-90
-230
-99
-37
-302
-269
-104
-203
-228
-197
-214
-195
-193
-300
-310
-231
-246
-211
-243
-211
-85
-141
-202
-152
-147
-144
-143
-171
-128
-124
-138
-207
-238
-162
-173
-180
-153
-145
-200
-301
-244
-185
-168
-161
-300
-294
-273
-290
-166
-311
-357
-185
-181
-166
-193
-259
-285
-244
-308
-362
-226
-184
-207
-215
-272
-220
-149
-234
-274
-264
-228
-216
-246
-130
-65
-166
-72
39
-126
-3
200
60
38
17
-14
75
82
25
-55
-181
-227
-211
-299
-310
-265
-275
-347
-306
-216
-239
-270
-337
-252
-222
-173
474
1465
2578
3260
2697
1416
338
-107
26
34
-80
-104
-276
-245
-144
-243
-275
-228
-266
-222
-188
-266
-288
-291
-250
-200
-193
-173
-148
-154
-226
-311
-192
-75
-177
-146
7
14
-78
-53
24
8
14
33
216
330
128
178
375
329
367
440
419
399
372
354
355
393
294
221
244
92
-1
5
-29
-29
-175
-250
-192
-181
-103
-183
-212
-198
-351
-333
-243
-189
-170
-227
-216
-163
-218
-262
-212
-257
-236
-198
-274
-219
-159
-176
-164
-166
-156
-177
-244
-194
-205
-312
-286
-171
-146
-207
-207
-195
-209
-241
-218
-176
-177
-311
-422
-212
-143
-197
-162
-243
-251
-172
-180
-265
-288
-268
-311
-267
-196
-232
-185
-181
-193
-166
-232
-322
-334
-193
-162
-156
-151
-146
-66
-60
-3
57
62
68
137
98
-8
24
-33
-45
24
-53
-126
-123
-189
-323
-300
-294
-437
-341
-184
-248
-277
-224
-230
-321
-298
-270
117
1266
2339
3061
3147
2237
921
65
57
260
70
-158
-138
-305
-367
-122
-216
-333
-194
-226
-296
-278
-286
-362
-366
-228
-162
-170
-149
-165
-183
-160
-173
-228
-176
-108
-199
-169
-35
-14
-15
63
116
153
135
124
230
266
361
350
285
377
423
467
452
428
446
426
406
360
289
165
127
56
-90
-25
0
-23
-3
-89
-133
-175
-250
-233
-159
-140
-168
-174
-199
-178
-136
-146
-240
-221
-152
-241
-249
-253
-216
-131
-148
-168
-55
-57
-255
-158
-47
-153
-183
-218
-202
-73
-30
-125
-145
-163
-222
-183
-149
-172
-161
-159
-240
-203
-153
-244
-163
-159
-261
-165
-175
-205
-171
-184
-171
-246
-160
-48
-110
-112
-137
-148
-85
-155
-324
-212
-34
-29
-18
-19
33
87
93
110
200
178
111
120
44
142
180
74
46
9
-46
-94
-136
-175
-185
-214
-172
-213
-359
-182
-51
-146
-160
-85
17
347
1261
2530
3334
2979
1941
859
158
80
174
64
-57
-1
-24
-107
-104
-96
-125
-165
-232
-271
-171
-105
-143
-142
-87
-25
-95
-107
-9
-61
-62
11
-6
-35
-1
-22
-49
78
151
90
114
212
230
296
280
243
372
494
476
411
496
498
370
380
431
507
581
408
325
366
236
167
130
48
38
48
18
-59
-49
-13
-83
-82
-62
-131
-116
-80
-67
-76
-120
-84
-110
-112
-49
-108
-137
-123
-120
-41
-53
-32
82
78
27
-31
-35
9
-120
-170
-18
-12
-27
-8
-22
-92
-179
-39
25
-104
-82
-61
-78
-136
-143
-49
-51
-38
-62
-118
-185
-280
-235
-75
-18
-124
-139
-86
-96
-89
-196
-211
-19
-6
-155
-118
29
-37
-60
62
18
-13
59
91
195
194
172
165
-41
-39
158
160
96
55
-96
-103
-77
-234
-185
-116
-111
-196
-247
-104
-97
-172
-237
-165
-100
68
982
2161
3000
3111
2242
947
112
-40
-20
56
60
-62
-112
-129
-271
-304
-124
-87
-146
-155
-193
-186
-91
-169
-120
-61
-229
-115
-86
-112
-42
-50
-35
5
-15
-19
55
-90
-119
104
164
177
242
239
267
309
173
191
428
427
421
494
444
473
471
422
466
406
294
230
197
167
95
40
18
-7
-151
-198
-68
-135
-286
-123
-62
-186
-126
-166
-203
-177
-121
-144
-200
-77
-76
-140
-145
-136
-93
-109
-116
-90
-164
-93
-57
-158
22
20
-206
-138
-39
-92
-141
-212
-267
-112
1
-120
-167
-78
-54
-113
-148
-116
-116
-181
-182
-174
-209
-165
-311
-390
-133
-83
-160
-144
-104
-170
-239
-176
-229
-252
-153
-160
-159
-135
-133
-186
-254
-127
-20
-99
-78
3
-169
-118
182
197
228
209
65
24
31
14
-23
13
-32
-156
-176
-119
-174
-250
-213
-215
-227
-289
-225
-235
-576
-384
-27
-66
47
686
1787
2872
3216
2579
1365
290
41
153
103
-45
-115
-234
-207
-69
-185
-223
-214
-237
-196
-218
-209
-163
-356
-362
-103
-109
-227
-219
-111
-59
-71
-73
-119
-164
-79
-149
-170
80
96
56
79
91
159
172
182
270
337
370
422
339
413
521
484
479
452
372
295
380
355
227
186
111
41
-24
-107
-88
-116
-162
-125
-144
-223
-226
-209
-243
-159
-140
-185
-214
-256
-162
-212
-312
-239
-233
-158
-154
-160
-101
-176
-165
-151
-140
-152
-264
-304
-172
-75
-127
-107
-197
-254
-101
-159
-224
-229
-388
-303
-99
-114
-146
-131
-250
-310
-211
-236
-235
-231
-265
-228
-227
-243
-264
-190
-242
-422
-270
-106
-146
-152
-156
-212
-335
-365
-135
-42
-203
-231
-159
-154
-164
-77
-110
-265
-85
71
-5
-9
5
-45
102
227
47
12
-4
-1
127
-27
-180
-104
-200
-278
-291
-346
-192
-270
-373
-230
-281
-276
-247
-168
-114
-145
527
1668
2789
3434
2907
1716
582
95
158
157
27
-100
-175
-205
-226
-212
-174
-258
-256
-188
-198
-188
-211
-201
-236
-218
-180
-301
-192
-68
-175
-198
-220
-116
3
-138
-129
-4
21
25
6
37
86
173
212
217
302
319
306
355
411
396
386
378
412
531
458
358
295
143
193
306
210
103
46
23
17
-161
-198
-112
-205
-222
-158
-170
-194
-191
-216
-186
-172
-211
-249
-236
-127
-308
-477
-230
8
-37
-164
-137
-129
-172
-174
-166
-201
-297
-220
-127
-122
-145
-215
-154
-124
-167
-186
-217
-155
-223
-336
-202
-181
-180
-145
-219
-144
-107
-190
-249
-383
-343
-196
-151
-173
-228
-200
-200
-173
-143
-214
-230
-305
-242
-251
-332
-138
-189
-180
-96
-174
-173
-176
-170
-163
-153
-138
-102
-31
-138
-69
36
-24
183
239
118
91
93
43
15
21
-39
-89
-388
-496
-17
28
-214
-202
-118
-239
-414
-261
-212
-243
-213
-151
-41
284
1195
2474
3119
2858
2071
816
91
70
116
62
-86
-107
-201
-183
-79
-155
-230
-254
-213
-174
-210
-198
-141
-173
-257
-258
-258
-365
-167
65
-60
-77
-56
-48
-8
-11
24
-84
-84
79
64
97
186
177
126
195
329
270
246
338
424
471
373
323
380
385
365
384
340
143
95
247
130
-22
-9
-59
-70
-74
-112
-127
-126
-169
-187
-181
-244
-251
-218
-214
-160
-164
-244
-170
-95
-124
-84
-190
-260
-109
-79
-112
-112
-154
-115
-88
-234
-209
-158
-207
-73
-49
-153
-170
-98
-92
-180
-185
-197
-164
-89
-168
-165
-174
-280
-147
-128
-195
-70
-97
-192
-173
-162
-186
-184
-185
-208
-156
-181
-240
-154
-111
-180
-163
-193
-193
-167
-275
-175
-119
-103
-33
-46
-20
-27
-6
-46
-50
171
57
-87
163
208
68
46
94
79
-22
-112
-100
-134
-317
-313
-195
-236
-261
-322
-301
-151
-151
-192
-163
-132
152
917
1947
2905
3123
2170
762
81
-9
-52
6
18
-104
-206
-118
-137
-252
-232
-204
-213
-234
-282
-261
-164
-224
-258
-113
-131
-294
-165
-82
-116
-46
-195
-89
-2
-168
-25
10
-109
34
61
-28
61
178
269
263
240
307
353
345
372
357
353
408
367
357
399
328
207
181
175
162
-5
-102
27
-137
-271
-151
-125
-223
-209
-108
-149
-184
-223
-258
-249
-268
-231
-197
-219
-143
-132
-190
-147
-356
-272
8
-136
-139
-85
-141
-191
-190
-49
-189
-336
-101
-29
-175
-210
-164
-189
-248
-212
-215
-247
-92
-25
-213
-329
-209
-134
-186
-246
-256
-165
-109
-228
-301
-148
-168
-301
-252
-198
-206
-202
-245
-240
-315
-317
-181
-206
-171
-142
-229
-251
-161
-196
-307
-213
-138
-175
-122
-87
-144
-58
38
-95
-68
121
137
33
5
83
-5
-81
39
23
-29
-28
-143
-248
-237
-262
-260
-203
-200
-258
-295
-251
-259
-215
-237
-210
-96
368
1513
2702
3237
2844
1586
271
-53
217
251
84
15
-105
-234
-224
-215
-222
-264
-245
-176
-346
-361
-121
-173
-239
-174
-186
-224
-230
-206
-247
-205
-120
-274
-223
-86
-174
47
160
6
18
71
101
106
79
186
249
195
273
321
356
359
353
356
362
372
270
412
462
321
297
147
64
87
28
-39
-65
-94
-152
-207
-272
-196
-203
-253
-173
-189
-212
-180
-221
-266
-213
-244
-245
-172
-166
-203
-197
-161
-125
-136
-220
-182
-215
-290
-173
-117
-98
-138
-230
-214
-210
-144
-147
-210
-157
-164
-265
-203
-119
-219
-202
-174
-208
-158
-186
-255
-229
-207
-203
-207
-283
-261
-174
-155
-156
-183
-175
-203
-335
-301
-158
-207
-239
-194
-152
-171
-249
-139
-109
-289
-284
-158
-139
-181
-140
-98
-99
-88
-63
54
23
-14
25
-20
82
83
45
91
38
11
9
-1
-66
-174
-120
-114
-265
-289
-218
-276
-295
-271
-249
-198
-264
-298
-253
-130
324
1277
2494
3213
3024
2147
824
103
194
201
47
-37
-94
-234
-272
-171
-203
-182
-196
-277
-185
-260
-247
-104
-169
-172
-191
-230
-141
-267
-304
-108
-86
-75
-109
-135
-77
-91
-42
77
92
-36
36
148
34
151
260
143
322
458
369
381
353
405
494
423
368
332
303
306
256
215
143
53
5
-34
-44
-137
-203
-112
-113
-110
-204
-310
-152
-135
-197
-69
-129
-313
-298
-220
-157
-211
-262
-110
-102
-304
-186
-56
-124
-125
-187
-217
-206
-128
-71
-118
-97
-110
-139
-235
-275
-153
-154
-168
-207
-249
-177
-170
-302
-243
-118
-185
-194
-189
-209
-187
-213
-286
-261
-226
-269
-226
-197
-248
-161
-115
-179
-204
-210
-289
-300
-169
-157
-164
-210
-291
-185
-104
-127
-122
-137
-110
-155
-167
-94
-106
-48
12
-12
-6
99
119
117
179
100
-39
31
136
121
102
4
-43
-187
-278
-97
-98
-172
-129
-243
-271
-141
-164
-208
-183
-134
-122
-77
478
1627
2811
3306
2825
1600
334
-43
97
74
-24
-50
-138
-218
-145
-119
-150
-227
-214
-109
-72
-136
-205
-117
-158
-222
-120
-135
-148
-101
-80
-17
-60
-171
-119
-67
22
67
-2
-1
47
142
197
220
242
263
279
314
337
363
379
348
367
406
427
419
387
350
331
288
204
190
160
81
45
43
-31
-103
-79
-108
-154
-154
-150
-197
-184
-162
-267
-219
-102
-128
-122
-110
-150
-157
-137
-117
-122
-132
-80
-123
-264
-129
-29
-180
-136
-88
-259
-224
-15
-51
-56
-44
-182
-162
-43
-65
-146
-228
-204
-87
-145
-132
-96
-244
-257
-90
-225
-287
-5
-134
-309
-149
-102
-130
-180
-205
-127
-93
-155
-313
-240
-109
-213
-183
-132
-186
-142
-122
-136
-119
-114
-123
-154
-59
-15
-108
-40
40
52
161
171
122
105
59
73
33
-26
38
11
-150
-137
-120
-303
-291
-186
-244
-281
-215
-154
-264
-226
-195
-445
-147
241
732
1906
2903
3109
2339
1136
88
-259
42
77
-62
-45
-159
-240
-153
-253
-344
-285
-272
-196
-202
-199
-139
-181
-199
-203
-242
-224
-116
-200
-232
-124
-153
-106
-97
-52
6
-107
-80
70
64
-24
51
193
116
102
278
265
176
283
407
349
286
343
327
321
331
244
197
231
221
87
114
17
-128
-78
-162
-131
-150
-249
-137
-146
-211
-197
-283
-348
-236
-197
-252
-176
-118
-222
-395
-307
-115
-265
-298
-101
-158
-172
-159
-273
-183
-109
-130
-133
-268
-248
-133
-202
-196
-186
-245
-254
-247
-196
-234
-336
-290
-182
-179
-238
-238
-255
-235
-236
-319
-272
-228
-184
-184
-267
-230
-180
-193
-241
-245
-227
-279
-399
-384
-257
-199
-175
-214
-145
-157
-302
-296
-253
-222
-228
-291
-228
-210
-233
-99
-137
-135
-7
-2
14
86
122
32
-55
-168
-66
52
-109
87
143
-196
-219
-151
-239
-281
-242
-274
-334
-345
-308
-248
-259
-315
-264
-120
-55
481
1651
2752
3122
2569
1501
503
141
175
52
-125
-73
-20
-142
-227
-183
-252
-315
-185
-188
-251
-267
-239
-166
-219
-266
-214
-152
-124
-206
-354
-239
-40
-163
-101
68
-15
-38
-46
-5
35
-3
31
105
152
164
239
303
340
321
293
387
356
329
473
472
357
358
371
349
249
187
179
16
-67
-7
-11
-62
-80
-84
-164
-201
-183
-206
-186
-198
-184
-186
-285
-228
-144
-179
-242
-201
-96
-160
-126
-48
-129
-152
-92
-82
-131
-133
-55
-56
-233
-191
-41
-152
-167
-109
-161
-183
-210
-177
-158
-195
-155
-177
-275
-237
-151
-186
-141
-66
-138
-144
-80
-237
-342
-315
-262
-114
-133
-201
-203
-219
-224
-184
-135
-163
-177
-170
-182
-193
-216
-215
-230
-261
-288
-224
-60
-150
-224
-93
-57
-36
-10
-57
-6
116
119
127
142
77
65
72
-128
-31
179
-25
-75
-111
-273
-167
-182
-317
-217
-157
-186
-188
-181
-206
-249
-214
-126
73
797
1972
3032
3352
2706
1231
69
149
386
236
70
8
-32
-109
-168
-274
-217
-128
-301
-238
-174
-199
-102
-162
-201
-145
-107
-125
-174
-171
-122
-72
-76
-140
-182
-134
12
88
13
5
130
130
137
223
197
226
166
156
423
490
428
434
445
481
480
441
388
362
385
302
176
207
167
106
124
-63
-167
-46
-46
-136
-111
-82
-188
-146
-62
-132
-154
-168
-93
-102
-187
-90
-58
-39
-78
-118
-37
-14
-71
-167
-91
14
-145
-168
-98
-120
-71
-170
-229
-61
-16
-98
-207
-232
-72
-132
-183
-29
-34
-151
-307
-196
8
4
-47
-81
-94
-136
-139
-131
-146
-127
-109
-116
-209
-202
-74
-40
-70
-104
-100
-139
-171
-90
-153
-235
-103
-93
-106
-79
-119
-61
-114
-191
-1
95
48
112
109
147
205
149
217
249
159
124
171
224
107
88
190
26
-123
-111
-104
-70
-86
-102
-104
-102
-94
-108
-182
-130
4
-129
120
1020
2106
3116
3360
2459
1075
210
27
115
166
40
-4
-34
-103
-82
-96
-114
-84
-55
-68
-151
-211
-156
-42
-26
-59
-39
-19
-40
-57
22
41
51
-15
-180
-43
124
149
81
21
175
149
150
336
276
269
398
382
372
479
446
408
473
475
485
363
316
379
358
304
198
159
144
51
-2
-38
-113
-17
-59
-152
-28
-27
-50
-53
-54
-31
-177
-187
-63
-108
-92
-38
-81
-72
-18
-80
-137
-75
-11
-7
-20
-30
-34
-126
-151
20
33
-4
-17
-23
-40
-146
-83
-36
-92
-50
-43
-138
-130
-99
-65
-71
-147
-170
-131
-93
-89
-81
-143
-105
-126
-169
-71
-189
-188
-1
-62
-78
-184
-187
14
-31
-113
-104
-105
-171
-84
-28
-135
-121
17
54
-11
-22
22
37
58
176
148
80
108
136
163
131
121
69
31
-13
-136
-183
-167
-221
-216
-163
-201
-270
-284
-298
-235
-97
-90
-90
120
869
2005
2949
3061
2291
1117
107
-113
99
101
-13
-72
-163
-185
-171
-184
-207
-276
-219
-139
-227
-202
-138
-275
-253
-117
-102
-110
-98
-159
-278
-196
0
10
-28
-41
-59
53
58
-49
-6
117
154
139
152
197
282
314
340
389
390
380
317
348
451
427
305
296
251
148
280
199
-23
58
41
-115
-143
-151
-165
-206
-155
-152
-245
-210
-207
-234
-237
-202
-210
-324
-286
-179
-208
-244
-140
-90
-172
-243
-292
-319
-240
-87
-103
-137
-109
-126
-145
-244
-221
-187
-215
-110
-170
-206
-157
-378
-390
-100
-109
-165
-163
-290
-305
-290
-264
-141
-177
-246
-200
-257
-260
-206
-251
-237
-247
-333
-275
-197
-220
-269
-295
-248
-283
-238
-213
-263
-184
-185
-239
-249
-176
-291
-331
-39
-57
-181
-93
-18
91
-21
-85
136
178
62
36
79
79
-5
-80
3
5
-130
-159
-200
-257
-196
-269
-358
-250
-232
-288
-245
-199
-225
-267
-300
-217
476
1622
2749
3279
2783
1744
641
137
134
132
95
-63
-122
-167
-284
-258
-279
-276
-219
-230
-216
-287
-356
-279
-219
-321
-256
-123
-216
-239
-221
-166
-64
-35
-40
-66
-10
-15
-126
-27
120
52
50
181
177
185
211
225
322
310
290
377
379
302
299
367
396
368
394
352
288
193
46
63
34
-65
-52
-86
-159
-131
-194
-298
-202
-145
-208
-194
-176
-185
-299
-390
-222
-129
-254
-223
-121
-226
-191
-155
-286
-286
-179
-104
-158
-181
-218
-231
-164
-257
-248
-236
-281
-104
-132
-264
-270
-251
-205
-169
-185
-278
-220
-134
-261
-309
-238
-239
-262
-271
-266
-229
-237
-353
-238
-130
-272
-255
-206
-239
-324
-345
-195
-216
-214
-136
-252
-228
-226
-328
-218
-123
-145
-203
-226
-190
-191
-215
-158
-67
-92
-110
-1
32
-26
87
108
-53
-5
145
124
83
64
-11
-42
-44
-101
-226
-192
-191
-389
-316
-136
-160
-198
-197
-220
-239
-264
-190
-146
31
859
2045
3088
3366
2563
1277
319
10
126
255
61
-176
-160
-108
-161
-213
-228
-302
-269
-135
-226
-238
-216
-366
-244
-124
-179
-175
-194
-164
-163
-209
-152
-65
-16
-94
-134
-45
-12
-27
38
143
142
167
248
209
131
229
329
331
375
350
351
444
491
546
497
325
218
230
236
195
158
75
50
14
-78
-97
-121
-162
-224
-278
-238
-188
-67
-81
-131
-80
-173
-186
-151
-193
-172
-169
-191
-135
-103
-44
-75
-105
-112
-179
-115
-114
-86
-79
-129
-132
-153
-136
-146
-112
-149
-160
11
-82
-151
-79
-142
-122
-133
-164
-153
-154
-122
-175
-281
-276
-114
-77
-135
-116
-119
-87
-165
-300
-234
-97
-114
-194
-124
-34
-137
-231
-181
-113
-116
-173
-173
-216
-235
-55
-5
-135
-89
-53
-78
-15
25
69
67
92
193
166
126
82
8
18
70
80
-20
-91
-132
-169
-178
-286
-339
-198
-140
-203
-218
-183
-123
-140
-230
-125
73
648
1754
2700
3151
2610
1242
209
-72
-73
10
0
-112
-123
-166
-174
-117
-121
-155
-176
-203
-220
-178
-140
-227
-197
-71
-51
-75
-87
-32
-17
-42
-65
-30
24
-9
-101
-121
64
135
103
118
94
194
281
248
295
304
256
378
347
313
422
389
455
478
411
344
181
157
148
194
245
33
-31
44
6
-64
-107
-146
-163
-152
-107
-60
-126
-167
-197
-160
-124
-157
-156
-175
-173
-153
-94
-37
-47
-103
-133
-134
-86
-54
-112
-91
-30
-89
-177
-119
-100
-155
-45
-134
-252
-84
-69
-117
-142
-163
-146
-181
-185
-166
-162
-162
-154
-191
-242
-236
-257
-285
-231
-146
-157
-171
-165
-283
-295
-212
-256
-201
-72
-149
-276
-195
-132
-208
-185
-124
-238
-355
-362
-324
-96
-41
-79
33
-13
-49
55
94
58
114
82
-59
5
34
-55
-55
-25
-25
-108
-208
-289
-313
-299
-330
-328
-259
-280
-293
-234
-217
-234
-265
-166
423
1434
2590
3192
2679
1451
350
-44
-83
-35
-42
-143
-191
-190
-254
-286
-205
-255
-337
-250
-241
-319
-229
-198
-266
-259
-265
-239
-155
-126
-130
-136
-146
-118
-95
-126
-102
-90
-55
-25
29
130
100
84
129
204
204
121
209
392
408
400
416
379
359
377
336
276
327
279
198
226
6
-190
47
-16
-188
-125
-214
-244
-246
-269
-195
-207
-229
-178
-284
-354
-219
-190
-310
-300
-225
-206
-176
-180
-237
-229
-229
-230
-248
-182
-54
-154
-238
-150
-197
-296
-171
-150
-256
-160
-115
-227
-304
-313
-292
-281
-125
-95
-220
-201
-222
-272
-302
-264
-174
-355
-434
-203
-195
-224
-181
-270
-253
-240
-323
-289
-253
-250
-261
-258
-280
-250
-190
-294
-293
-256
-251
-185
-241
-314
-316
-264
-145
-169
-216
-121
-157
-49
99
-28
-103
14
123
80
27
-2
1
58
-8
-129
-133
-172
-214
-224
-313
-404
-336
-196
-212
-313
-261
-250
-347
-248
-168
-169
144
957
2142
3193
3270
2394
1093
202
94
120
99
-28
-102
-223
-366
-196
-235
-369
-255
-229
-232
-188
-207
-283
-236
-215
-283
-242
-186
-183
-247
-180
-135
-200
-152
-88
-159
-211
-133
16
86
1
61
102
72
200
255
268
345
337
346
426
396
331
385
437
403
359
345
388
358
149
64
117
85
-37
-73
17
-58
-141
-81
-145
-202
-141
-157
-251
-295
-213
-134
-194
-337
-302
-84
-56
-150
-152
-173
-152
-132
-218
-261
-202
-167
-120
-87
-162
-195
-221
-227
-97
-38
-91
-150
-164
-181
-258
-202
-157
-169
-147
-194
-167
-172
-248
-165
-122
-211
-243
-219
-216
-95
-153
-337
-247
-215
-257
-152
-52
-115
-186
-235
-194
-102
-175
-152
-197
-301
-156
-95
-139
-106
-80
-208
-249
-83
-74
-71
43
-107
-121
85
82
133
239
236
159
132
12
-29
193
233
124
-57
-106
-52
-207
-241
-190
-220
-188
-224
-306
-157
-75
-216
-168
-109
-11
751
1929
2957
3310
2704
1499
428
76
119
117
-15
-97
-62
-82
-192
-172
-70
-200
-262
-193
-155
-109
-108
-129
-190
-119
-7
-53
-98
-110
-236
-116
84
3
-10
5
14
5
-81
-48
98
175
208
241
247
174
274
464
309
320
477
481
540
491
413
464
423
395
401
356
277
199
198
140
106
78
-15
-57
-41
-30
-92
-165
-59
-21
-154
-110
-98
-141
-84
-131
-124
-94
-115
-98
-115
-84
-98
-181
-79
8
-66
-64
-41
-103
-129
-35
-5
-196
-253
-35
53
10
3
-66
-116
-123
-67
-17
-97
-142
-132
-154
-142
-122
-164
-133
-105
-194
-161
-116
-116
-73
-184
-179
-105
-178
-120
-121
-151
-51
-115
-116
-90
-207
-110
-29
-159
-168
-2
-117
-141
53
-1
14
59
-17
21
215
210
125
174
139
58
36
35
12
-36
-182
-237
-122
-166
-251
-214
-210
-238
-196
-171
-247
-224
-163
-183
-53
398
1458
2762
3179
2577
1423
282
-115
-47
53
122
-12
-155
-164
-190
-194
-259
-272
-85
-116
-300
-266
-135
-142
-192
-130
-103
-187
-193
-163
-113
-36
-194
-148
22
-31
4
-27
-110
-48
40
86
114
118
116
194
240
229
314
344
309
340
321
290
342
427
404
318
270
193
192
179
101
53
-31
-55
-34
-137
-208
-218
-258
-270
-234
-123
-182
-337
-229
-155
-236
-288
-349
-256
-114
-181
-254
-200
-221
-288
-198
-82
-127
-167
-158
-213
-179
-105
-183
-181
-139
-158
-169
-220
-210
-117
-108
-201
-216
-199
-189
-187
-215
-203
-293
-330
-226
-218
-199
-173
-224
-213
-147
-167
-215
-255
-246
-226
-233
-234
-202
-202
-304
-217
-163
-271
-234
-189
-257
-242
-250
-255
-79
-77
-153
-81
-149
-167
83
127
99
115
-9
-12
-35
-44
52
-20
-114
-117
-127
-227
-289
-316
-371
-373
-285
-264
-431
-293
-191
-377
-292
-204
-143
448
1502
2580
3200
2894
1843
558
-28
22
7
8
-91
-161
-195
-255
-190
-288
-371
-293
-271
-228
-220
-273
-274
-283
-299
-256
-234
-197
-165
-324
-302
-65
-108
-126
-69
-111
-85
-54
-82
-84
-33
109
164
92
220
302
261
271
285
315
368
413
333
388
410
218
294
401
317
210
79
79
109
45
-89
-210
-136
-99
-212
-221
-231
-300
-219
-165
-232
-208
-287
-382
-262
-293
-339
-272
-267
-238
-223
-199
-180
-162
-168
-195
-174
-184
-162
-230
-342
-215
-181
-207
-173
-259
-223
-157
-240
-256
-251
-184
-193
-288
-248
-271
-279
-256
-214
-179
-240
-243
-303
-371
-226
-184
-233
-272
-278
-228
-277
-239
-252
-331
-248
-167
-213
-241
-182
-178
-217
-231
-182
-206
-199
-68
-112
-121
-81
-49
83
0
-121
84
186
104
145
26
-14
113
-32
-44
40
-205
-299
-203
-195
-225
-257
-264
-257
-305
-428
-379
-220
-188
-182
-157
23
766
1926
3020
3370
2586
1316
385
80
16
47
100
-87
-180
-120
-254
-395
-398
-257
-96
-126
-187
-227
-251
-204
-203
-227
-199
-220
-212
-148
-157
-141
-129
-124
-55
-41
-129
-134
-41
50
188
95
22
187
269
241
212
307
393
381
378
451
446
413
412
324
367
461
301
232
357
276
90
64
106
-14
-110
-82
-77
-79
-98
-101
-129
-172
-149
-133
-167
-191
-174
-142
-206
-177
-99
-169
-195
-228
-169
-24
-117
-197
-67
-59
-154
-156
-129
-104
-48
-86
-176
-56
-49
-192
-113
-92
-149
-120
-97
-107
-82
-116
-215
-149
-75
-122
-34
-60
-291
-147
-78
-164
-142
-264
-120
-4
-93
-118
-177
-100
-95
-173
-83
-113
-138
-117
-139
-70
-58
-55
-59
-9
85
20
-15
81
124
146
240
276
137
67
137
113
107
172
86
5
-29
-100
-176
-235
-152
-120
-151
-146
-112
-86
-100
-122
-185
-160
-67
475
1556
2674
3219
2708
1631
502
3
19
94
162
-6
-111
-103
-223
-216
-89
-101
-108
-109
-215
-252
-88
-71
-128
-158
-153
-138
-103
100
59
-59
-48
-60
-2
34
-7
24
122
154
131
140
134
164
287
301
252
339
342
299
444
541
437
426
423
429
450
242
308
370
226
257
197
137
62
-94
-78
-60
-91
-110
-94
-31
-112
-92
-29
-90
-136
-124
-145
-318
-216
-19
-36
-50
-68
-88
-100
-70
-88
-32
-81
-169
-22
-54
-67
-9
-7
-6
-80
-75
-23
-31
-103
-86
-152
-135
33
-93
-102
-8
-58
-90
-74
-122
-262
-209
-100
-69
-67
-103
-116
-109
-134
-188
-156
-135
-182
-148
-109
-175
-177
-134
-115
-39
-45
-159
-155
15
90
50
62
66
49
91
150
184
121
64
107
76
94
78
-1
5
-146
-237
-175
-190
-49
-81
-266
-181
-130
-175
-150
-132
-215
-187
-73
356
1325
2370
3002
2650
1494
401
-92
-59
79
107
-6
-105
-100
-131
-164
-115
-166
-313
-280
-219
-130
-92
-164
-163
-157
-94
-71
-129
-162
-163
-181
-151
-96
-34
-13
-2
45
-3
-4
66
78
45
112
212
208
248
275
283
351
355
400
371
139
358
640
498
407
372
321
208
90
98
109
48
-50
-127
-169
-170
-174
-193
-203
-216
-196
-227
-232
-175
-221
-363
-272
-96
-136
-182
-207
-221
-222
-209
-165
-285
-343
-201
-246
-183
64
-34
-207
-156
-91
-62
-100
-163
-167
-144
-214
-325
-286
-198
-114
-107
-180
-224
-290
-278
-233
-199
-148
-249
-252
-177
-224
-217
-221
-231
-215
-265
-216
-130
-207
-249
-160
-165
-269
-187
-120
-191
-176
-170
-181
-191
-148
-88
-131
-46
24
-58
-24
81
70
111
120
72
71
-10
63
121
-46
-140
-104
-159
-227
-166
-177
-251
-323
-306
-229
-315
-310
-180
-250
-326
-107
314
1185
2368
3111
2954
2020
810
45
-21
22
-33
-42
-111
-206
-213
-199
-201
-210
-263
-246
-225
-341
-230
-87
-155
-153
-176
-166
-144
-196
-140
-80
-94
-91
-38
-109
-170
-76
11
84
43
30
143
158
127
191
232
164
186
330
437
439
478
583
533
521
551
464
409
343
174
113
142
83
24
-13
-58
-88
-102
-133
-155
-129
-158
-257
-207
-182
-190
-120
-124
-186
-298
-244
-64
-93
-153
-178
-209
-217
-201
-115
-94
-140
-245
-214
-160
-235
-129
-40
-123
-168
-134
-208
-290
-222
-153
-103
-180
-255
-176
-206
-247
-144
-115
-199
-216
-278
-248
-110
-194
-210
-204
-310
-268
-182
-133
-102
-153
-167
-218
-296
-241
-118
-127
-236
-244
-240
-224
-199
-162
-168
-221
-103
-103
-323
-231
10
43
28
51
-24
40
138
47
45
39
4
98
55
-187
-195
-125
-193
-261
-219
-270
-420
-296
-232
-277
-204
-272
-329
-276
-229
-187
242
1357
2506
3221
3114
2109
864
106
55
115
25
-44
-100
-165
-265
-319
-253
-169
-220
-226
-154
-248
-257
-221
-219
-187
-232
-156
-230
-343
-128
-144
-121
20
-283
-279
58
83
49
44
35
53
104
114
119
185
203
303
396
413
444
477
518
483
400
367
479
545
458
406
327
216
126
112
105
33
-65
-241
-194
-28
-137
-167
-63
-91
-171
-219
-194
-160
-229
-303
-253
-204
-255
-186
-132
-232
-225
-176
-149
-161
-172
-150
-145
-164
-261
-295
-208
-143
-128
-119
-168
-190
-161
-188
-199
-226
-198
-188
-285
-200
-164
-210
-148
-149
-246
-256
-178
-160
-222
-220
-113
-146
-196
-191
-208
-196
-197
-180
-148
-182
-191
-174
-236
-235
-184
-222
-200
-183
-206
-158
-168
-153
-197
-282
-182
-68
20
84
55
83
174
93
36
172
88
-37
100
110
28
0
-74
-87
-123
-210
-200
-224
-286
-223
-110
-102
-210
-229
-227
-280
-158
126
771
1915
2980
3229
2569
1298
192
-32
56
142
123
-54
-44
-115
-205
-106
-56
-112
-253
-255
-110
-130
-196
-178
-198
-125
-66
-174
-226
-222
-138
-36
-57
-68
20
54
-12
28
54
6
62
117
132
145
179
240
235
313
370
374
417
435
440
505
543
368
331
438
333
188
248
220
70
107
103
-28
-33
-44
-84
-91
-146
-138
-138
-150
-117
-173
-148
-104
-154
-145
-187
-217
-213
-203
-184
-167
-112
-114
-172
-147
-85
-124
-135
-129
-165
-209
-228
-103
-49
-79
-55
-100
-172
-152
-71
-113
-145
-54
-57
-138
-136
-108
-178
-188
-172
-162
-169
-263
-248
-126
-137
-179
-179
-218
-133
-120
-166
-158
-217
-164
-89
-122
-149
-186
-178
-122
-147
-112
-63
-141
-82
41
-9
-4
-20
-29
187
183
77
120
89
99
67
30
45
-105
-193
-132
-180
-292
-283
-210
-238
-287
-235
-208
-251
-260
-223
-115
47
697
1808
2760
3070
2355
1048
99
-94
-58
-1
-169
-259
13
-65
-220
-181
-140
-174
-296
-266
-248
-300
-163
-47
-136
-165
-159
-188
-178
-191
-198
-135
-35
-78
-221
-301
-84
68
-13
10
96
102
25
205
301
171
264
410
379
305
376
461
400
389
473
442
377
354
352
271
91
35
64
35
-87
-125
-101
-154
-164
-138
-146
-195
-268
-207
-145
-209
-250
-228
-200
-302
-269
-223
-249
-183
-200
-205
-209
-206
-144
-193
-245
-138
-164
-197
-144
-218
-263
-169
-87
-193
-204
-143
-173
-126
-148
-189
-177
-209
-219
-187
-192
-224
-175
-194
-268
-257
-196
-202
-273
-259
-177
-134
-144
-241
-306
-217
-221
-275
-183
-128
-203
-205
-119
-166
-206
-222
-295
-222
-164
-166
-38
-11
-132
-102
5
-16
10
105
115
64
28
66
-2
-70
27
59
50
-60
-196
-214
-208
-196
-304
-373
-288
-319
-336
-223
-142
-197
-300
-210
-153
205
1206
2417
3234
3026
1985
759
76
41
106
41
-92
-210
-239
-231
-234
-214
-223
-206
-246
-345
-292
-307
-242
-173
-316
-223
-123
-231
-196
-129
-274
-183
-224
-357
-41
-1
-57
30
-72
-98
77
95
27
94
182
122
142
381
403
414
430
359
450
502
395
431
529
406
291
311
242
105
26
-50
-138
-147
-67
-101
-150
-192
-255
-191
-131
-147
-218
-321
-302
-151
-123
-191
-208
-243
-177
-157
-316
-269
-225
-267
-138
-133
-189
-150
-206
-246
-313
-301
-162
-174
-150
-58
-106
-190
-209
-193
-188
-170
-195
-309
-255
-169
-263
-234
-95
-243
-277
-101
-168
-207
-171
-230
-228
-175
-188
-196
-161
-231
-268
-175
-171
-167
-138
-173
-185
-150
-169
-184
-169
-177
-191
-227
-177
-23
24
-2
0
14
11
-25
-14
156
311
94
-94
75
119
-36
20
112
3
-85
-175
-260
-247
-249
-237
-188
-176
-199
-220
-193
-208
-200
-137
-148
177
1087
2190
3221
3425
2439
1146
291
-8
96
231
84
-90
-69
-149
-233
-115
-111
-206
-187
-143
-149
-216
-246
-137
-57
-114
-205
-197
-201
-124
-142
-144
31
-46
-13
-8
-125
46
91
23
102
126
179
197
186
216
267
374
376
496
522
359
471
562
475
508
518
404
381
354
188
119
193
158
23
2
49
13
-77
-161
-152
-128
-114
-77
-132
-167
-117
-186
-179
-151
-234
-101
-52
-239
-222
-13
-72
-74
-49
-176
-104
-82
-86
-93
-134
-129
-133
-79
-76
-87
-14
-91
-219
-157
-98
-97
-141
-166
-50
-79
-146
-53
-48
-136
-131
-72
-113
-142
-134
-200
-189
-108
-141
-146
-127
-104
-65
-118
-290
-269
-86
-52
-54
-85
-85
-188
-214
-16
-39
-97
-79
-54
-11
-61
20
74
2
45
165
161
80
41
89
210
175
133
138
58
53
-75
-184
-86
-76
-131
-142
-165
-249
-163
-102
-131
-55
-86
-165
-110
381
1464
2611
3166
2817
1691
519
52
26
108
150
33
-67
-90
-182
-233
-87
-125
-185
-99
-98
-92
-55
-79
-140
-108
-102
-103
-129
-103
77
88
-9
-2
2
-11
0
36
60
-12
42
205
185
174
262
279
349
418
373
364
470
480
357
346
462
502
368
378
470
342
239
209
69
58
121
-13
-94
-98
-81
-114
-135
-69
-107
-96
-107
-185
-153
-162
-225
-252
-178
-133
-185
-174
-141
-62
-134
-235
-78
-5
-61
-94
-101
-96
-84
-72
-152
-119
7
-34
-105
-125
-85
-65
-151
-135
-60
-109
-148
-80
-196
-218
-78
-134
-162
-165
-173
-151
-184
-252
-233
-158
-110
-140
-184
-208
-232
-152
-130
-131
-184
-230
-196
-175
-153
-185
-144
-105
-146
-201
-166
-147
-159
-21
34
-23
54
56
34
124
78
66
26
-59
-7
3
-26
-53
-157
-265
-200
-190
-248
-215
-246
-245
-223
-242
-208
-243
-347
-264
-98
-126
280
1484
2667
3094
2551
1488
445
-47
49
62
-42
-68
-136
-137
-188
-340
-300
-181
-213
-188
-157
-274
-333
-270
-213
-193
-210
-202
-201
-174
-110
-181
-102
-34
-115
-81
-45
-77
-94
-60
-38
9
157
200
114
196
240
195
264
295
347
386
436
434
392
451
423
365
342
221
92
76
168
169
35
-53
-147
-139
-131
-233
-216
-256
-267
-179
-225
-279
-247
-200
-218
-191
-224
-365
-268
-107
-146
-239
-293
-268
-196
-198
-195
-212
-292
-175
-63
-159
-202
-176
-174
-188
-177
-268
-272
-136
-169
-195
-212
-204
-159
-170
-140
-253
-288
-85
-230
-361
-171
-203
-302
-205
-188
-279
-236
-184
-251
-206
-209
-276
-185
-234
-268
-171
-149
-170
-205
-229
-306
-289
-177
-165
-232
-223
-126
-144
-186
-97
-35
-44
-21
2
-62
51
224
44
53
100
-33
65
59
18
6
-294
-271
-127
-299
-258
-165
-247
-303
-266
-250
-307
-280
-253
-271
-135
302
1223
2315
3102
3187
2229
817
91
148
206
91
20
-84
-155
-251
-504
-381
-96
-201
-270
-277
-297
-193
-160
-234
-218
-189
-261
-229
-178
-228
-203
-180
-150
-52
-44
-115
-118
-139
-114
-13
-45
31
149
107
131
276
242
199
360
383
316
357
444
490
455
450
428
373
331
262
257
144
34
61
-28
-49
-75
-219
-199
-171
-152
-111
-185
-195
-209
-356
-272
-77
-229
-247
-142
-155
-170
-244
-223
-166
-175
-210
-191
-182
-182
-170
-211
-163
-152
-153
-119
-160
-186
-252
-253
-161
-157
-135
-82
-138
-169
-107
-134
-172
-236
-309
-256
-195
-195
-206
-137
-130
-245
-238
-129
-192
-317
-240
-141
-140
-130
-139
-173
-175
-164
-146
-175
-259
-238
-216
-192
-73
-107
-188
-213
-162
-119
-203
-94
-101
-188
-20
31
-18
15
102
174
172
115
40
-25
7
44
106
-4
-167
-51
-120
-244
-178
-257
-279
-258
-330
-223
-170
-223
-230
-243
-168
-76
38
616
1760
2964
3358
2720
1510
392
75
180
174
53
-8
-47
-135
-169
-277
-240
-126
-169
-130
-215
-313
-166
-185
-194
-110
-183
-166
-93
-67
-203
-200
-46
-69
-37
-34
-69
-86
-54
55
89
33
-18
38
204
252
192
287
336
322
403
436
408
400
345
305
389
423
355
253
165
136
139
134
65
-52
-104
-118
-124
-143
-219
-191
-95
-229
-332
-118
-82
-120
-107
-208
-141
-130
-280
-218
-19
-74
-162
-65
-68
-152
-140
-123
-176
-199
-114
-103
-163
-227
-111
-57
-201
-108
-111
-156
-80
-178
-212
-189
-108
-60
-172
-187
-149
-97
-206
-226
-44
-190
-272
-141
-117
-118
-151
-139
-204
-269
-150
-204
-264
-114
-71
-64
-107
-190
-165
-119
-181
-255
-148
-85
-71
-51
-9
66
-58
9
129
178
277
186
120
62
53
67
8
27
-23
-83
-148
-237
-154
-137
-228
-233
-200
-133
-140
-206
-227
-236
-172
-113
187
870
1953
3044
3039
2052
807
-49
-120
-12
-30
36
45
-93
-186
-217
-206
-143
-160
-113
-49
-178
-201
-124
-123
-138
-190
-235
-137
-82
-88
-100
-115
20
11
-9
43
19
-15
10
137
206
155
130
265
317
284
269
274
325
343
359
422
424
379
339
347
325
319
400
286
169
134
104
-15
-150
-30
31
-8
-94
-109
-146
-275
-128
-153
-249
-134
-168
-199
-187
-241
-215
-136
-119
-133
-205
-185
-107
-151
-174
-45
-70
-228
-137
-50
-111
-97
-130
-149
-99
-134
-262
-264
-58
-31
-111
-72
-60
-131
-119
-181
-187
-101
-169
-202
-231
-286
-340
-212
-29
-87
-163
-160
-204
-234
-194
-172
-184
-206
-228
-196
-162
-181
-224
-229
-214
-177
-207
-223
-98
-89
-241
-195
-23
-2
-15
-9
5
28
92
129
36
-45
1
37
75
90
-18
-156
-257
-289
-305
-240
-149
-248
-284
-246
-307
-285
-222
-242
-275
-249
-136
555
1682
2713
3248
2693
1407
303
-48
68
140
-43
-197
-153
-193
-206
-165
-199
-197
-238
-325
-234
-160
-196
-151
-162
-206
-217
-276
-159
-48
-127
-148
-76
-82
-207
-138
-1
9
-33
32
168
125
127
157
161
218
222
255
333
356
277
289
389
474
453
396
407
309
335
369
246
204
144
29
14
-74
-151
-84
-90
-144
-160
-191
-235
-186
-185
-244
-186
-179
-227
-212
-186
-211
-298
-195
-191
-335
-239
-165
-152
-127
-155
-207
-198
-146
-118
-136
-199
-169
-81
-109
-208
-196
-165
-207
-245
-211
-175
-200
-159
-130
-233
-306
-197
-135
-214
-212
-228
-243
-158
-186
-232
-163
-133
-138
-148
-205
-298
-331
-179
-73
-124
-126
-84
-178
-231
-191
-215
-65
-119
-258
-28
8
-87
-5
70
68
31
80
138
174
188
106
55
68
50
10
-15
-37
-136
-281
-224
-123
-230
-279
-188
-169
-209
-268
-210
-186
-385
-221
48
355
1304
2454
3189
3074
2124
810
115
127
163
159
58
-190
-264
-154
-116
-145
-203
-247
-187
-123
-235
-236
-143
-198
-176
-124
-177
-194
-252
-178
-27
-67
-61
-70
-124
-41
-20
-58
22
76
101
143
138
150
230
285
288
344
393
367
431
529
432
410
534
492
397
421
406
274
177
190
194
114
32
-31
-130
-96
11
-60
-126
-128
-123
-124
-212
-227
-162
-148
-180
-156
-115
-119
-136
-186
-179
-152
-120
-61
-86
-148
-144
-133
-212
-178
-29
-81
-154
-97
-105
-162
-176
-158
-180
-193
-135
-110
-133
-176
-155
-131
-197
-214
-181
-242
-256
-149
-166
-154
-161
-267
-198
-142
-129
-109
-172
-191
-156
-198
-256
-188
-118
-146
-181
-155
-162
-177
-131
-140
-184
-150
-73
-63
-76
-57
-37
47
106
76
105
203
179
94
130
114
29
92
67
-56
-58
-113
-187
-217
-219
-233
-204
-203
-283
-243
-135
-147
-273
-242
-99
-41
431
1508
2656
3231
2834
1682
424
26
108
63
77
-15
-119
-130
-152
-218
-215
-324
-334
-95
-86
-126
-150
-168
-110
-132
-152
-121
-72
-119
-150
-133
-167
-34
39
-31
-5
-31
-44
22
51
52
73
129
163
259
328
251
195
343
456
388
348
432
380
219
319
447
423
335
280
138
64
93
-32
-45
-60
-164
-70
-34
-198
-212
-82
-64
-161
-236
-217
-203
-247
-256
-187
-80
-85
-129
-126
-172
-151
-93
-115
-83
-32
-50
-99
-134
-117
-81
-20
-36
-78
-74
-164
-200
-111
-80
-72
-107
-166
-144
-184
-154
-28
-81
-215
-169
-100
-105
-66
-111
-182
-141
-56
-208
-310
-74
-69
-240
-191
-116
-109
-208
-228
-129
-144
-148
-96
-129
-118
-132
-165
1
48
17
34
62
101
47
89
139
76
91
119
93
93
-37
-141
-77
-157
-212
-198
-355
-376
-203
-135
-118
-162
-209
-199
-228
-145
-95
349
1519
2609
3108
2658
1428
268
-86
-64
3
102
-27
-108
-126
-180
-250
-248
-227
-245
-230
-250
-282
-237
-240
-245
-179
-162
-136
-152
-184
-161
-205
-204
-118
-46
-71
-132
-33
19
7
105
132
50
63
213
224
204
314
296
307
348
300
362
403
298
300
348
226
203
201
109
125
54
-50
25
-50
-196
-98
-60
-173
-221
-254
-334
-257
-141
-182
-190
-175
-264
-324
-222
-243
-231
-149
-193
-137
-226
-280
-149
-175
-192
-152
-184
-260
-228
-79
-100
-164
-107
-164
-136
-162
-258
-92
-84
-186
-210
-226
-152
-110
-156
-184
-193
-279
-290
-183
-149
-166
-169
-141
-212
-282
-177
-181
-255
-186
-118
-168
-179
-170
-224
-193
-193
-175
-144
-209
-152
-206
-263
-137
-165
-173
-114
-61
-5
-49
-64
18
85
117
139
45
13
51
20
42
22
-64
-135
-133
-152
-283
-334
-201
-216
-334
-263
-180
-290
-323
-157
-206
-184
-92
213
1236
2436
3198
3086
2071
695
47
154
138
35
-2
-91
-194
-163
-142
-179
-246
-192
-154
-290
-201
-268
-353
-73
-74
-186
-186
-178
-116
-157
-208
-182
-82
-45
-110
-121
-85
-72
-56
63
134
83
121
153
158
257
257
250
340
370
405
427
442
433
462
559
449
414
584
556
418
332
243
214
195
150
83
35
19
-42
23
51
-59
-10
62
-3
-22
-71
-71
0
-32
-51
31
53
-56
-49
56
42
33
96
29
-41
-16
-47
-54
87
140
-4
-2
74
42
97
24
-176
-59
121
-42
-62
42
-32
-34
-78
-95
-117
-148
22
-33
-132
3
-26
-117
-113
-64
-49
-41
-35
-42
-64
-74
-75
-142
-133
-63
-38
16
-5
-134
-103
49
25
-141
-196
-14
207
256
129
13
111
191
196
240
249
192
218
174
55
127
161
99
-44
-110
3
-35
-150
-184
-181
-147
-132
-161
-197
-169
-95
-148
-126
-38
370
1548
2767
3448
3175
1868
648
261
227
199
192
24
-128
-37
-34
-183
-219
-237
-196
-166
-180
-164
-197
-130
-107
-174
-141
-111
-111
-111
-21
-125
-288
-29
38
-87
-75
-56
78
112
104
124
110
155
107
20
206
452
448
430
470
467
495
460
415
442
362
343
346
324
303
258
234
104
28
53
-101
-317
-272
-73
37
-43
-130
-126
-134
-170
-169
-141
-279
-231
-142
-199
-100
-140
-144
-131
-156
-118
-150
-229
-283
-111
-28
-126
-177
-206
-125
-34
-37
-102
-225
-189
-104
-129
-85
-108
-175
-167
-154
-177
-227
-151
-103
-126
-150
-230
-239
-160
-91
-171
-244
-116
-134
-268
-187
-159
-172
-98
-257
-266
-78
-156
-159
-61
-74
-145
-204
-176
-195
-247
-110
-15
-137
-112
33
72
67
88
79
46
101
146
130
72
87
123
42
-42
-146
-181
-103
-198
-257
-158
-200
-212
-185
-235
-193
-139
-198
-270
-72
316
1057
2366
3295
3135
2111
766
49
27
105
95
33
-38
-151
-147
-156
-200
-151
-87
-242
-354
-108
-81
-175
-91
-76
-92
-168
-124
-72
-207
-127
15
-44
-23
-67
-98
-5
-26
21
93
104
155
201
129
170
292
309
321
288
313
407
410
373
395
416
356
311
307
222
206
214
111
99
64
-88
-146
-47
-32
-156
-117
-100
-188
-148
-160
-134
-158
-270
-147
-76
-116
-194
-124
-38
-84
-87
-110
-121
-134
-172
-151
-157
-132
41
-22
-102
-59
-137
-92
-28
-143
-200
-155
-82
-75
-122
-189
-270
-121
-91
-194
-259
-305
-123
-175
-234
-92
-129
-242
-242
-155
-156
-181
-229
-234
-174
-191
-170
-96
-175
-201
-133
-197
-193
-176
-303
-212
-43
-81
-43
11
-1
11
22
100
137
48
-15
4
-17
21
96
35
-125
-171
-124
-174
-253
-311
-270
-274
-280
-197
-306
-381
-217
-163
-169
-110
426
1536
2507
3038
2700
1465
303
-44
-65
35
68
-250
-235
-166
-289
-222
-184
-194
-188
-313
-286
-152
-214
-242
-271
-316
-258
-349
-324
-57
-115
-163
-125
-236
-85
-7
-177
-155
-38
-106
-88
75
32
48
105
94
167
174
207
276
314
241
179
302
326
197
219
348
241
145
148
71
54
30
-173
-251
-95
-181
-226
-135
-198
-206
-223
-339
-308
-224
-271
-302
-307
-255
-252
-263
-315
-354
-178
-135
-243
-261
-227
-191
-132
-146
-266
-236
-173
-250
-263
-210
-169
-163
-161
-247
-297
-171
-157
-172
-153
-292
-372
-301
-289
-246
-223
-275
-281
-332
-251
-111
-229
-260
-255
-328
-296
-277
-219
-213
-239
-214
-226
-240
-216
-210
-244
-238
-300
-368
-279
-264
-264
-59
-115
-332
-84
72
-66
11
103
138
89
-108
-89
9
-28
-26
-14
-48
-213
-281
-196
-285
-291
-261
-352
-349
-370
-323
-184
-206
-248
-333
-297
-170
215
1285
2623
3313
2877
1797
490
-147
7
55
-72
-169
-192
-161
-166
-202
-281
-296
-207
-316
-451
-310
-232
-209
-212
-343
-277
-154
-198
-195
-118
-121
-158
-142
-116
-172
-170
-77
7
-31
-75
19
77
131
181
159
172
215
183
321
395
311
380
386
355
329
225
338
404
202
173
155
96
57
-54
-81
-66
-154
-214
-164
-193
-244
-199
-220
-280
-264
-254
-247
-266
-306
-246
-216
-249
-320
-389
-335
-224
-102
-154
-226
-244
-216
-156
-186
-116
-202
-283
-166
-186
-197
-197
-244
-233
-259
-300
-343
-244
-223
-342
-230
-219
-295
-217
-195
-186
-168
-318
-364
-226
-198
-301
-356
-258
-231
-243
-241
-273
-235
-286
-321
-202
-240
-314
-185
-139
-208
-237
-274
-204
-147
-197
-120
-47
-8
7
-47
-36
-9
94
132
-11
-129
-80
-18
-7
-16
-94
-138
-166
-256
-273
-229
-254
-304
-365
-279
-208
-376
-334
-178
-259
-256
-146
416
1611
2731
3206
2863
1707
447
62
78
-20
9
-15
-144
-198
-226
-354
-354
-225
-213
-176
-251
-293
-266
-248
-235
-291
-223
-174
-190
-274
-290
-131
-105
-199
-137
-73
-88
-47
-48
-52
-5
68
63
41
111
148
175
245
255
287
368
377
379
388
440
380
233
322
330
223
205
125
30
11
8
-88
-128
-189
-348
-185
-44
-135
-165
-182
-197
-247
-240
-211
-215
-199
-279
-272
-170
-198
-192
-250
-270
-138
-196
-266
-199
-142
-182
-238
-181
-153
-252
-319
-101
-95
-298
-180
-195
-244
-127
-154
-181
-142
-133
-221
-242
-192
-240
-218
-168
-206
-263
-188
-176
-314
-238
-160
-255
-247
-172
-213
-269
-228
-153
-123
-135
-200
-249
-150
-103
-309
-278
-20
-43
-91
-92
-34
67
11
9
146
155
45
66
47
1
70
111
80
1
-84
-161
-210
-252
-253
-173
-208
-301
-231
-183
-196
-160
-181
-265
-165
108
772
1966
2972
3174
2395
1067
101
-100
92
118
2
-72
-103
-93
-235
-247
-184
-202
-176
-199
-147
-242
-332
-143
-106
-191
-117
-138
-183
-38
-61
-124
-14
-83
-156
-13
-36
-7
162
162
104
61
129
213
162
134
286
345
306
428
453
397
375
349
349
339
378
363
262
303
318
155
83
37
-55
-37
2
-29
-107
-170
-185
-179
-181
-140
-89
-71
-124
-179
-186
-184
-128
-114
-117
-130
-106
-50
-92
-98
-118
-257
-152
15
-61
-86
-101
-86
-34
-110
-74
-51
-147
-163
-208
-185
-169
-165
-47
-28
-76
-110
-127
-103
-105
-154
-185
-208
-214
-152
-177
-197
-145
-193
-194
-129
-96
-82
-124
-165
-168
-155
-198
-216
-147
-148
-196
-157
-27
-50
-68
5
7
18
-36
43
214
212
84
12
41
66
98
56
-16
-72
-162
-205
-208
-239
-236
-240
-207
-212
-302
-224
-225
-349
-235
-86
-25
407
1432
2572
3104
2661
1467
292
-110
37
35
-50
-17
-125
-160
-176
-282
-198
-187
-373
-342
-225
-348
-288
-182
-243
-139
-194
-297
-152
-113
-201
-162
-96
-155
-92
-42
-106
-33
2
-27
50
77
63
83
90
175
242
292
322
128
205
451
352
337
456
324
215
335
344
259
161
110
46
-101
-90
-33
-113
-148
-102
-184
-248
-213
-248
-273
-251
-266
-275
-204
-217
-281
-263
-288
-274
-184
-192
-274
-254
-221
-169
-150
-202
-194
-183
-168
-182
-267
-316
-194
-91
-117
-120
-186
-343
-208
-104
-249
-248
-201
-206
-237
-170
-177
-298
-220
-178
-303
-234
-128
-208
-258
-262
-272
-216
-196
-235
-245
-246
-224
-208
-193
-185
-213
-242
-281
-259
-244
-264
-198
-186
-138
-182
-281
-84
-32
-42
21
-78
48
194
125
40
8
43
17
14
22
-28
-128
-189
-194
-212
-207
-233
-214
-275
-405
-359
-247
-191
-199
-238
-177
-211
96
1175
2341
3190
3176
2218
939
121
63
139
50
-70
-110
-150
-220
-238
-218
-209
-197
-160
-149
-241
-313
-331
-285
-161
-136
-146
-170
-267
-230
-144
-141
-89
-116
-98
38
-30
-121
2
88
80
85
155
108
61
213
250
324
392
343
398
413
471
503
473
500
362
288
342
287
197
124
67
-21
-131
-98
-74
-105
-134
-267
-195
-120
-196
-197
-217
-201
-201
-247
-203
-153
-158
-266
-295
-90
-163
-390
-168
-31
-147
-131
-145
-168
-156
-155
-129
-126
-138
-136
-123
-132
-149
-134
-142
-172
-183
-187
-249
-206
-154
-218
-201
-121
-200
-345
-240
-115
-152
-204
-170
-183
-192
-162
-221
-194
-131
-148
-159
-202
-290
-186
-126
-185
-82
-67
-160
-171
-153
-157
-135
-106
-133
-168
-136
-94
-91
-66
28
64
2
43
131
151
125
110
93
100
103
29
24
-47
-165
-146
-198
-238
-191
-199
-276
-304
-217
-206
-155
-134
-308
-216
-88
27
862
2044
3049
3478
2744
1342
388
122
183
166
-15
-69
-221
-295
-153
-168
-248
-182
-94
-173
-204
-153
-140
-124
-187
-226
-148
-145
-187
-138
-89
-115
-97
-75
-99
-26
16
8
-14
-11
73
133
134
118
220
321
345
343
361
389
391
439
490
495
466
416
393
416
397
310
262
228
83
75
129
27
-24
-76
-168
-162
-42
-65
-133
-121
-171
-134
-110
-149
-145
-190
-190
-119
-125
-128
-148
-118
-116
-197
-126
-109
-91
-59
-178
-152
-49
-60
-90
-125
-116
-92
-191
-209
-67
-71
-175
-172
-99
-104
-142
-140
-138
-149
-154
-106
-164
-340
-243
-80
-139
-140
-98
-123
-151
-151
-124
-112
-338
-402
-82
-28
-110
-104
-149
-129
-104
-160
-55
-107
-321
-176
-81
-85
-31
-27
27
46
38
98
169
177
136
103
60
45
86
105
94
41
-70
-77
-136
-309
-245
-120
-90
-86
-122
-160
-149
-159
-166
-138
-121
219
1114
2272
3181
3195
2212
828
-10
-27
88
39
-6
44
-85
-198
-52
-89
-155
-95
-110
-144
-160
-189
-152
-80
-112
-136
-108
-122
-117
-71
-89
-107
-73
-3
3
-9
30
62
25
-22
67
101
137
274
274
239
339
395
310
328
453
461
399
396
378
338
331
299
316
343
254
72
58
156
44
-72
-66
-60
-87
-152
-213
-183
-43
-54
-122
-129
-212
-141
-71
-207
-133
-79
-261
-82
51
-121
-99
-68
-91
-29
-59
-129
-59
7
-52
-93
-75
-33
-110
-206
-57
-79
-160
-97
-128
-94
-98
-132
-82
-111
-177
-215
-188
-102
-87
-149
-121
-64
-122
-139
-134
-280
-252
-122
-225
-190
-86
-118
-111
-155
-213
-217
-212
-131
-94
-167
-149
-78
-82
-47
-12
-30
-23
-69
6
147
61
65
178
122
58
73
46
-17
-47
-99
-110
-132
-197
-219
-251
-272
-343
-364
-257
-201
-212
-214
-201
-304
-210
680
1973
2879
3072
2481
1213
176
-76
-40
56
-23
-150
-112
-187
-263
-233
-242
-221
-245
-247
-165
-252
-295
-258
-308
-224
-126
-130
-120
-141
-169
-222
-212
-101
-101
-88
-36
-36
-26
-40
-9
22
-114
0
298
218
152
271
287
306
311
265
389
413
314
335
275
201
257
209
123
72
-106
-85
34
-53
-194
-207
-232
-292
-205
-176
-220
-239
-229
-261
-338
-230
-147
-244
-217
-275
-344
-231
-222
-227
-188
-167
-192
-237
-306
-239
-82
-113
-160
-158
-129
-168
-252
-177
-124
-199
-208
-163
-274
-298
-175
-194
-225
-177
-160
-268
-415
-316
-152
-168
-196
-189
-203
-207
-189
-206
-241
-346
-422
-265
-109
-175
-243
-150
-158
-301
-249
-288
-396
-276
-190
-202
-209
-176
-227
-260
-118
-91
-146
-93
-96
-105
3
9
-140
-34
239
189
-1
-37
-6
36
93
76
21
-105
-223
-241
-241
-191
-209
-274
-262
-239
-244
-312
-269
-174
-255
-202
-16
390
1440
2718
3266
2901
1873
547
13
148
171
46
-58
-84
-154
-311
-360
-235
-212
-226
-216
-198
-161
-169
-196
-297
-290
-137
-172
-234
-145
-128
-103
-70
-181
-258
-140
-64
-93
18
71
23
89
132
115
163
173
154
209
289
282
272
384
470
457
418
436
445
386
331
353
224
112
186
46
-16
46
3
-4
-64
-148
-233
-298
-275
-238
-291
-244
-96
-85
-136
-164
-194
-241
-242
-196
-183
-252
-185
-109
-155
-133
-246
-316
-209
-138
-108
-96
-95
-154
-191
-181
-158
-190
-318
-221
-93
-169
-104
-110
-203
-192
-194
-177
-175
-214
-212
-184
-197
-204
-255
-285
-183
-188
-217
-199
-259
-201
-141
-282
-331
-140
-246
-328
-36
-86
-141
-50
-168
-186
-184
-185
-72
-147
-238
-180
-129
-109
-102
-138
-105
40
62
38
85
156
149
48
21
48
39
-53
-45
40
-38
-97
-125
-181
-232
-255
-218
-210
-194
-218
-313
-307
-221
-174
-134
-123
230
1201
2351
3200
3224
2347
999
155
128
187
87
-176
-243
-74
-114
-156
-156
-256
-288
-228
-163
-165
-193
-193
-219
-279
-228
-96
-167
-266
-164
-138
-114
-10
-51
-96
-59
-38
36
68
65
88
-78
-7
271
230
250
354
327
339
346
332
396
446
446
468
437
359
368
362
264
191
180
158
96
19
-31
-43
-115
-169
-104
-232
-402
-216
-78
-169
-169
-97
-139
-181
-172
-144
-80
-141
-176
-137
-232
-220
-71
-131
-159
-128
-233
-156
-100
-143
-115
-166
-150
-163
-374
-275
34
-14
-98
-83
-219
-263
-136
-111
-134
-121
-154
-167
-132
-185
-157
-84
-211
-250
-159
-195
-253
-146
-85
-147
-157
-139
-167
-203
-94
-272
-428
-126
-154
-167
-74
-128
-95
-130
-119
-196
-285
-159
-170
-170
-21
34
54
22
-11
51
91
141
211
173
94
81
53
-22
48
102
-120
-231
-117
-152
-203
-108
-110
-146
-110
-139
-222
-285
-145
-69
-148
-57
177
929
2164
3144
3182
2204
894
137
21
55
67
-16
-5
-19
-169
-244
-262
-233
-147
-77
-74
-119
-148
-148
-151
-228
-185
-49
-124
-170
-84
-53
-31
-37
-64
-59
-27
5
10
17
67
126
128
147
187
126
152
206
169
372
502
369
377
460
375
374
443
331
371
401
281
223
133
83
21
34
63
-19
-28
-56
-122
-192
-253
-227
-122
-40
-77
-97
-141
-187
-110
-52
-88
-79
-85
-130
-178
-156
-48
-165
-105
108
-7
-45
-2
-42
-36
-44
-101
-68
-108
-290
-118
27
-85
-70
-73
-117
-165
-133
-134
-212
-148
-64
-109
-156
-136
-130
-160
-261
-267
-94
-187
-286
-100
-121
-235
-169
-137
-172
-179
-133
-132
-177
-239
-225
-96
-119
-216
-171
-118
-106
-51
-1
-35
-34
-4
-33
19
141
146
58
55
54
19
87
26
-139
-40
-115
-247
-134
-242
-337
-202
-147
-168
-177
-184
-208
-224
-277
-246
-75
58
726
1935
2921
3082
2203
887
35
-52
43
36
21
-106
-176
-129
-198
-211
-200
-269
-231
-188
-170
-215
-207
-131
-274
-328
-136
-18
-65
-101
-69
-65
-77
-133
-156
-61
4
10
-11
38
62
18
82
125
102
69
143
356
465
415
320
299
421
503
418
331
302
334
333
228
156
137
100
20
-44
-72
-126
-184
-290
-316
-152
-82
-197
-295
-245
-233
-266
-172
-254
-355
-221
-203
-223
-262
-225
-137
-172
-248
-266
-203
-221
-212
-176
-184
-176
-126
-204
-328
-177
-119
-188
-180
-177
-175
-299
-275
-153
-222
-235
-152
-244
-292
-196
-247
-227
-185
-202
-209
-275
-247
-276
-303
-192
-204
-270
-237
-258
-291
-181
-286
-439
-289
-244
-276
-236
-166
-187
-251
-238
-247
-240
-226
-261
-309
-228
-194
-148
-59
-85
-52
-17
19
51
32
37
71
51
8
25
-30
-63
-47
-81
-107
-202
-239
-263
-296
-249
-339
-373
-261
-297
-431
-367
-152
-135
-196
69
963
2140
3010
3080
2215
994
156
-33
85
85
-157
-249
-171
-202
-275
-298
-271
-257
-280
-267
-236
-287
-273
-189
-226
-289
-248
-252
-319
-241
-159
-182
-264
-192
-155
-195
-48
-72
-113
22
53
1
43
4
-6
171
245
230
261
276
220
262
408
499
414
340
371
348
346
307
229
106
69
-20
-185
-96
-139
-233
-153
-164
-209
-269
-206
-140
-211
-231
-195
-402
-531
-167
-121
-216
-109
-210
-213
-158
-210
-215
-207
-191
-188
-204
-218
-209
-212
-221
-181
-214
-218
-182
-322
-321
-77
-101
-232
-181
-206
-318
-291
-112
-119
-204
-192
-216
-191
-173
-201
-307
-346
-192
-174
-229
-211
-250
-229
-271
-343
-185
-123
-190
-158
-212
-268
-283
-299
-208
-174
-171
-221
-339
-308
-151
-111
-191
-153
-159
-244
-169
-89
-72
-79
-162
-28
144
68
94
175
156
45
-22
-3
-30
24
77
-30
-159
-219
-258
-235
-210
-210
-244
-375
-329
-235
-306
-305
-251
-256
-174
-33
372
1401
2625
3362
3113
1988
760
173
164
187
63
-35
-66
-217
-259
-191
-306
-268
-131
-193
-185
-173
-202
-173
-164
-231
-263
-221
-173
-135
-150
-147
-162
-137
-39
-138
-207
-71
2
-5
-15
-39
-36
80
214
279
271
334
401
326
372
502
393
405
458
412
530
491
403
405
311
199
94
86
108
30
-49
-153
-62
-19
-151
-122
-155
-153
-166
-190
-116
-246
-229
-74
-99
-163
-163
-121
-212
-190
-51
-77
-151
-155
-129
-168
-143
-101
-132
-142
-127
-139
-160
-197
-224
-142
-94
-85
-94
-174
-177
-111
-104
-141
-160
-133
-162
-203
-78
-93
-220
-136
-106
-146
-133
-81
-114
-175
-120
-167
-203
-116
-98
-131
-116
-118
-118
-166
-202
-200
-120
-28
-103
-130
-220
-232
-93
-84
-102
-96
-71
-31
-60
-55
53
122
144
123
184
239
127
97
131
119
136
129
93
5
-105
-154
-117
-124
-271
-257
-107
-124
-138
-114
-167
-179
-200
-124
-75
45
880
2038
3042
3320
2461
1111
186
41
139
158
63
-52
-122
-94
-137
-266
-84
-88
-183
-80
-90
-130
-201
-122
-103
-145
-111
-106
-51
-72
-74
-20
-61
-81
47
72
-13
34
79
86
128
179
172
141
187
212
255
351
390
369
411
508
450
355
387
453
523
495
378
373
303
108
24
-43
20
121
41
-42
-51
-52
-118
-107
-65
-137
-205
-258
-192
-77
-98
-149
-179
-147
-79
-88
-143
-144
-65
-77
-72
-71
-126
-17
-48
-102
-30
-28
0
-20
-59
-99
-107
-61
-129
-157
-100
-99
-52
-71
-140
-108
-79
-80
-82
-104
-96
-133
-146
-60
-88
-157
-154
-109
-104
-102
-96
-160
-154
-120
-85
-106
-227
-120
-82
-303
-124
52
-91
-95
-37
-98
-146
-125
-102
-79
-28
21
-25
14
69
60
98
190
200
64
32
107
73
59
106
74
-66
-194
-144
-131
-196
-183
-164
-181
-255
-243
-240
-324
-194
-99
-118
-26
414
1410
2594
3205
2783
1608
386
-98
-6
67
46
-4
-58
-124
-162
-185
-163
-181
-214
-88
-188
-341
-184
-164
-235
-202
-177
-60
31
-37
-50
-57
-97
-24
-23
-18
17
-81
-14
120
92
94
147
150
176
237
256
186
244
477
509
458
429
408
464
394
349
318
290
393
289
159
183
149
86
-7
-102
-104
-63
-103
-158
-130
-177
-239
-228
-185
-145
-133
-191
-217
-183
-230
-171
-105
-154
-189
-226
-211
-173
-139
-113
-98
-130
-206
-130
-100
-123
-73
-101
-121
-119
-155
-179
-220
-190
-96
-110
-142
-181
-182
-148
-163
-190
-215
-143
-126
-211
-217
-176
-196
-227
-195
-186
-236
-256
-194
-145
-166
-257
-172
-83
-187
-197
-177
-209
-168
-150
-191
-135
-144
-156
-121
-154
-170
-173
-156
-99
-87
-111
-51
57
77
18
65
136
115
103
105
94
72
58
8
-14
-48
-148
-216
-253
-237
-231
-200
-186
-205
-133
-208
-357
-254
-209
-226
-101
78
737
2015
3015
3108
2530
1315
285
119
111
76
10
-114
-134
-179
-177
-192
-248
-219
-197
-212
-247
-237
-207
-205
-223
-189
-160
-168
-158
-153
-144
-126
-118
-167
-172
-86
-2
20
-11
24
65
37
84
173
231
291
315
310
345
461
470
436
516
430
429
491
458
541
439
331
257
132
134
103
44
-29
-27
-38
-84
-94
-102
-140
-178
-144
-190
-166
-114
-201
-333
-210
-79
-232
-180
-71
-204
-280
-171
-126
-96
-30
-117
-181
-182
-160
-119
-135
-141
-147
-212
-143
-42
-123
-140
-155
-209
-136
-104
-87
-139
-221
-179
-187
-171
-152
-216
-247
-167
-107
-198
-184
-125
-215
-154
-104
-274
-203
-68
-98
-198
-239
-75
-105
-209
-191
-147
-78
-69
-99
-111
-161
-152
-87
-169
-185
-99
-122
-165
-128
-26
32
-54
-38
33
-16
-11
103
186
153
122
97
55
63
89
110
76
-71
-123
-149
-241
-196
-211
-289
-164
-126
-290
-258
-137
-195
-261
-160
-114
194
1203
2357
3222
3269
2329
1049
183
55
217
162
24
-91
-141
-126
-170
-208
-254
-242
-210
-203
-189
-164
-162
-241
-203
-174
-287
-224
-117
-142
-158
-117
-35
-40
-158
-110
-8
-83
-22
124
125
162
179
154
190
209
236
279
373
418
414
484
413
358
462
480
456
417
352
321
239
127
123
153
38
-82
-57
-55
-102
-111
-87
-80
-99
-109
-126
-115
-126
-140
-122
-126
-144
-150
-182
-176
-114
-148
-150
-121
-204
-169
-69
-120
-174
-99
-25
-220
-184
2
-75
-71
-89
-115
-86
-108
-115
-139
-140
-86
-103
-155
-102
-45
-178
-214
-66
-116
-160
-79
-174
-239
-168
-131
-104
-17
-53
-211
-121
-35
-117
-119
-112
-90
-118
-166
-164
-217
-139
-128
-188
-126
-91
-126
-211
-110
-22
-13
85
69
31
66
135
207
152
67
134
142
48
97
134
40
-30
-43
-104
-194
-201
-187
-213
-209
-206
-258
-292
-221
-106
-112
-104
-78
328
1449
2607
3224
2917
1719
364
-93
92
122
42
-9
-70
-202
-180
-107
-162
-221
-164
-175
-245
-232
-191
-150
-156
-138
-141
-196
-188
-38
-82
-181
-4
-22
-118
-40
-31
-42
54
38
6
54
58
140
213
200
222
220
289
377
272
339
483
407
349
338
303
291
329
282
190
177
52
22
56
-49
-75
-91
-101
-105
-195
-208
-158
-221
-246
-235
-190
-117
-121
-124
-156
-298
-292
-95
-166
-177
-67
-132
-117
-126
-189
-143
-121
-115
-90
-107
-193
-179
-79
-132
-130
-77
-130
-201
-206
-169
-200
-143
-112
-242
-178
-79
-167
-227
-198
-151
-130
-150
-199
-197
-172
-146
-180
-271
-223
-166
-149
-152
-177
-163
-191
-187
-245
-270
-217
-219
-156
-138
-172
-167
-187
-215
-162
-100
-109
-101
-27
-22
-43
41
96
165
210
137
57
11
18
46
97
24
-95
-87
-212
-274
-240
-284
-192
-154
-196
-181
-177
-170
-184
-255
-191
-67
274
1256
2429
3139
2907
1853
606
3
48
56
13
-65
-101
-94
-162
-181
-184
-182
-212
-236
-205
-223
-180
-195
-274
-181
-124
-151
-117
-219
-233
-74
-79
-102
-80
-23
-35
-75
-21
-2
36
63
120
138
65
135
284
245
174
317
458
451
403
379
417
476
432
358
302
232
252
192
26
-50
-95
12
46
-75
-84
-165
-199
-197
-243
-187
-266
-295
-144
-201
-246
-215
-221
-170
-152
-222
-237
-264
-243
-106
-198
-249
-104
-123
-152
-111
-179
-207
-170
-135
-123
-152
-186
-208
-223
-201
-169
-211
-212
-211
-184
-148
-249
-265
-203
-241
-280
-287
-280
-291
-233
-172
-204
-198
-185
-195
-225
-219
-185
-214
-217
-214
-229
-202
-181
-167
-252
-262
-204
-212
-216
-245
-220
-200
-212
-224
-267
-200
-94
-61
1
56
30
35
106
151
71
23
41
-32
19
-23
-81
16
-42
-170
-291
-284
-226
-286
-332
-266
-323
-356
-172
-193
-284
-188
-163
-127
526
1733
2866
3304
2853
1788
585
83
157
143
-31
-135
-105
-140
-219
-182
-183
-288
-371
-259
-128
-189
-186
-141
-114
-120
-171
-171
-167
-175
-101
-114
-171
-63
-58
-138
-117
-73
-33
-2
2
69
115
25
91
214
241
351
349
318
380
422
440
391
399
482
447
312
244
322
360
259
159
101
67
-16
-111
-107
-88
-149
-207
-180
-251
-242
-136
-205
-237
-237
-238
-205
-255
-227
-191
-220
-195
-176
-147
-155
-207
-233
-250
-193
-154
-154
-143
-229
-228
-146
-161
-200
-196
-197
-235
-239
-134
-135
-277
-223
-203
-234
-165
-184
-269
-274
-220
-256
-220
-163
-181
-218
-286
-199
-292
-385
-123
-137
-269
-210
-203
-282
-295
-274
-267
-152
-82
-199
-225
-180
-224
-208
-184
-179
-159
-174
-174
-197
-175
-62
-55
-85
-50
-29
25
88
109
121
84
74
91
70
62
37
-8
-58
-111
-145
-183
-232
-256
-211
-241
-323
-261
-190
-153
-151
-199
-123
-79
208
1185
2388
3321
3336
2331
977
198
222
255
107
4
-95
-253
-241
-97
-135
-172
-161
-187
-185
-184
-189
-290
-245
-70
-110
-164
-116
-114
-94
-73
-60
-50
-75
-43
-22
-18
21
-50
-58
116
176
178
196
200
256
325
337
340
379
397
473
514
399
393
497
465
416
397
305
227
188
132
84
-10
-124
-96
-62
-39
-14
-117
-150
-109
-120
-81
-38
-110
-185
-178
-154
-126
-138
-169
-130
-151
-178
-156
-89
-35
-163
-126
-43
-119
-156
-91
-38
-105
-130
-98
-108
-156
-91
-48
-82
-62
-106
-155
-150
-159
-171
-128
-85
-110
-139
-152
-143
-138
-115
-117
-177
-188
-206
-179
-151
-131
-76
-119
-133
-190
-263
-242
-193
-79
-53
-76
-105
-141
-118
-156
-163
-141
-142
-65
-35
-54
-38
-9
75
79
90
209
247
206
121
53
34
32
75
91
-17
-79
-111
-171
-134
-132
-186
-211
-170
-118
-189
-182
-98
-137
-127
-75
143
958
2155
3058
3028
2225
1075
149
-29
95
134
44
10
-97
-214
-77
-87
-153
-133
-131
-110
-137
-71
-35
-118
-124
-96
-60
-1
-4
-80
-141
-124
-19
9
-84
-35
18
24
162
150
65
191
186
123
234
286
311
384
350
316
387
440
470
457
385
386
407
372
357
292
214
190
118
-10
18
51
-24
-94
-153
-123
-44
-100
-174
-134
-139
-158
-178
-193
-142
-145
-221
-184
-142
-181
-102
-99
-151
-100
-176
-196
-68
-49
-87
-110
-114
-91
-15
-1
-137
-178
-112
-119
-156
-171
-207
-197
-129
-140
-248
-201
-86
-175
-222
-129
-133
-181
-179
-190
-202
-231
-190
-139
-164
-194
-235
-184
-95
-240
-330
-120
-114
-206
-163
-217
-202
-167
-252
-223
-121
-141
-188
-154
-86
-43
-32
-31
-14
-38
23
183
188
87
61
21
23
57
29
-23
-113
-193
-231
-225
-273
-340
-294
-221
-256
-290
-221
-263
-327
-146
-131
-212
358
1428
2529
3188
2891
1701
405
-86
-33
47
17
-82
-132
-225
-220
-220
-359
-293
-190
-224
-268
-303
-270
-230
-204
-279
-287
-212
-183
-171
-226
-182
-99
-125
-111
-105
-107
-58
-118
-111
8
-18
-3
82
100
166
245
261
267
313
362
322
297
374
344
334
377
369
369
277
203
179
58
-53
-8
-38
-202
-208
-150
-190
-182
-161
-223
-254
-239
-213
-198
-365
-374
-210
-205
-217
-242
-276
-200
-143
-259
-254
-176
-214
-215
-189
-187
-171
-166
-186
-168
-140
-122
-249
-272
-152
-163
-218
-278
-267
-269
-211
-242
-327
-276
-299
-277
-235
-288
-253
-224
-313
-302
-220
-223
-342
-395
-301
-217
-199
-236
-292
-310
-230
-192
-300
-311
-253
-288
-289
-232
-233
-242
-266
-311
-267
-257
-253
-159
-194
-181
-56
-74
-97
-36
68
54
-19
2
-35
-43
32
26
-6
-111
-249
-192
-206
-391
-348
-228
-284
-316
-307
-262
-225
-240
-274
-248
-206
-145
503
1591
2700
3332
2899
1656
394
19
130
135
66
-79
-153
-228
-259
-244
-308
-284
-217
-215
-260
-279
-250
-250
-249
-274
-263
-230
-197
-166
-239
-257
-218
-144
-116
-151
-145
-128
-95
-83
-2
40
-8
-92
55
278
208
193
278
316
388
441
385
392
425
400
438
360
260
246
206
126
71
85
-33
-135
-101
-224
-256
-145
-171
-204
-183
-157
-230
-266
-232
-227
-231
-260
-172
-194
-317
-223
-168
-184
-124
-215
-407
-325
-89
-111
-235
-175
-147
-204
-202
-169
-171
-190
-260
-271
-179
-158
-112
-133
-236
-203
-270
-245
-146
-293
-281
-230
-297
-233
-189
-234
-253
-263
-208
-215
-326
-212
-91
-159
-223
-255
-187
-245
-318
-211
-192
-169
-163
-202
-209
-218
-221
-210
-143
-112
-175
-219
-206
-224
-257
-82
42
-36
1
24
-22
41
115
108
118
80
40
113
44
-13
69
-34
-194
-184
-159
-236
-279
-239
-149
-238
-379
-318
-251
-177
-166
-181
-126
42
784
1990
3068
3388
2689
1436
368
88
207
200
53
-76
-97
-128
-168
-220
-252
-180
-125
-193
-274
-186
-150
-217
-174
-144
-129
-91
-202
-217
-78
-102
-74
-54
-111
-45
-20
-36
13
23
71
100
1
88
283
256
252
372
310
274
387
403
402
444
449
413
417
346
277
250
206
183
88
72
60
9
-91
-214
-148
-105
-155
-160
-142
-146
-247
-292
-168
-113
-181
-191
-207
-212
-152
-177
-221
-184
-178
-213
-169
-173
-160
-81
-100
-167
-139
-150
-172
-134
-185
-148
-126
-168
-148
-148
-157
-188
-237
-208
-152
-147
-174
-200
-188
-201
-179
-182
-232
-193
-209
-230
-166
-188
-157
-131
-184
-138
-159
-224
-218
-198
-152
-165
-164
-124
-131
-129
-180
-215
-129
-75
-94
-65
-61
-111
-21
39
-20
56
133
153
214
184
74
94
127
38
57
59
23
-60
-166
-145
-168
-188
-173
-193
-218
-197
-174
-183
-127
-148
-232
-146
365
1378
2597
3275
2806
1642
493
-21
-55
-76
90
107
-67
-79
-132
-204
-183
-175
-182
-176
-160
-185
-215
-187
-167
-209
-197
-165
-195
-111
-82
-165
-150
-94
-76
-44
-78
-83
88
-4
-138
27
81
105
216
193
151
219
280
308
337
345
304
275
328
309
281
356
265
182
208
157
40
20
39
-26
-101
-159
-154
-127
-173
-220
-197
-170
-166
-193
-180
-282
-334
-196
-188
-162
-115
-118
-92
-187
-220
-111
-130
-170
-144
-144
-134
-70
-117
-175
-107
-123
-119
-62
-127
-191
-156
-118
-143
-174
-165
-166
-163
-202
-212
-177
-182
-174
-250
-242
-167
-287
-219
-234
-258
-22
-64
-145
-166
-196
-149
-137
-184
-149
-108
-187
-247
-250
-220
-193
-182
-151
-182
-186
-65
-62
-90
-39
-60
-55
1
24
40
111
187
83
-12
98
111
26
-5
-109
-231
-245
-246
-258
-255
-275
-258
-224
-235
-246
-190
-197
-224
-139
27
698
1784
2805
3202
2516
1168
110
-80
80
103
14
-58
-148
-196
-188
-221
-213
-197
-279
-337
-214
-140
-244
-231
-199
-263
-273
-257
-152
-113
-179
-120
-39
-71
-113
-115
-58
-92
-118
-36
42
101
69
117
203
201
217
298
312
270
362
436
382
315
305
432
454
309
228
205
222
158
69
55
-1
-108
-104
-68
-148
-171
-148
-155
-157
-213
-221
-214
-284
-270
-230
-200
-216
-279
-247
-157
-124
-181
-142
-111
-210
-206
-97
-124
-217
-149
-117
-168
-138
-150
-175
-149
-169
-156
-213
-251
-153
-248
-363
-174
-75
-168
-167
-188
-204
-149
-187
-252
-248
-241
-193
-170
-259
-312
-233
-183
-207
-162
-159
-250
-190
-147
-215
-242
-330
-295
-137
-185
-226
-150
-230
-297
-186
-90
-153
-176
-130
-202
-90
-15
-95
30
4
-26
166
175
96
65
12
-43
-13
124
93
-18
-47
-158
-242
-184
-155
-168
-195
-227
-246
-278
-295
-222
-194
-227
-180
28
816
1969
3048
3328
2487
1279
251
15
129
110
121
-17
-175
-257
-288
-194
-177
-293
-292
-232
-289
-224
-143
-197
-201
-174
-170
-235
-230
-188
-215
-211
-142
-109
-153
-150
-148
-46
-44
-120
87
98
37
138
156
149
218
307
357
291
187
398
397
351
525
436
439
461
344
358
283
51
61
124
0
-35
-16
-41
-123
-246
-211
-142
-73
-84
-194
-177
-133
-190
-202
-171
-224
-205
-192
-190
-133
-225
-238
-138
-213
-335
-187
72
-5
-202
-200
-89
-50
-79
-92
-117
-130
-131
-126
-127
-133
-108
-139
-179
-179
-171
-172
-162
-160
-205
-152
-130
-179
-177
-156
-129
-190
-189
-107
-143
-180
-267
-310
-127
-49
-99
-190
-215
-103
-135
-177
-124
-110
-156
-186
-132
-164
-165
-105
-109
-95
-68
-36
-23
25
77
49
84
203
222
120
49
84
128
99
67
31
-70
-155
-210
-283
-251
-220
-261
-240
-234
-227
-219
-210
-213
-217
-153
-39
557
1715
2916
3473
2945
1730
550
101
174
173
35
-83
-99
-150
-228
-213
-197
-227
-225
-209
-215
-217
-197
-201
-218
-182
-195
-237
-190
-145
-146
-146
-115
-138
-133
-155
-189
-202
-139
153
117
22
129
133
229
310
342
370
399
424
420
434
417
374
416
497
458
403
379
297
258
236
179
151
58
-2
-1
-74
-110
-94
-109
-151
-193
-186
-248
-308
-185
-152
-143
-43
-64
-123
-116
-91
-82
-123
-160
-154
-126
-103
-198
-196
-96
-102
-99
-104
-208
-147
-42
-114
-31
-26
-178
-136
-110
-130
-162
-225
-167
-255
-258
-95
-84
-98
-111
-139
-198
-173
-126
-156
-222
-189
-229
-239
-65
-99
-116
-95
-154
-175
-278
-221
-95
-105
-143
-151
-81
-101
-104
-65
-66
-46
-108
-58
71
128
187
131
116
148
79
132
183
115
84
35
-84
-93
-55
-189
-242
-156
-120
-130
-202
-237
-151
-178
-208
-134
-175
-185
217
1271
2395
3131
3138
2101
710
30
48
111
59
-72
-65
-22
-112
-231
-204
-76
-93
-117
-156
-299
-202
-52
-167
-119
-90
-169
-41
-34
-22
-4
-144
-45
98
-22
-49
32
63
56
50
173
262
241
207
191
256
315
327
366
438
395
427
479
363
368
420
458
388
310
336
231
138
96
106
148
56
12
34
-64
-135
-55
-14
-109
-186
-148
-145
-201
-176
-121
-56
-56
-125
-128
-131
-95
-25
-24
-28
-17
-79
-80
-10
-85
-101
-117
-198
-96
0
49
-10
-86
-57
-117
-118
-122
-127
-47
-58
-101
-91
-83
-139
-208
-121
-149
-196
-31
-147
-271
-75
-41
-151
-180
-153
-120
-223
-232
-44
-99
-308
-231
-104
-206
-263
-156
-119
-164
-136
-123
-93
-65
-14
16
-15
105
160
116
70
13
97
63
13
99
-13
-161
-239
-327
-247
-193
-224
-160
-179
-204
-309
-343
-194
-226
-269
-183
-118
320
1361
2528
3099
2652
1604
456
-118
-2
104
36
-146
-241
-191
-196
-171
-247
-329
-269
-300
-298
-156
-178
-335
-266
-128
-155
-207
-121
-89
-189
-212
-149
-162
-201
-91
-116
-176
-34
80
49
8
63
106
86
96
161
254
318
291
350
425
327
302
406
413
228
204
369
317
223
140
77
41
-84
-73
-119
-334
-271
-56
-93
-159
-144
-198
-249
-247
-217
-285
-321
-213
-199
-210
-208
-258
-183
-141
-205
-170
-178
-287
-252
-77
-71
-178
-161
-128
-233
-234
-106
-134
-185
-240
-196
-106
-237
-219
-99
-153
-231
-210
-215
-223
-132
-162
-259
-266
-283
-293
-178
-136
-184
-182
-148
-259
-420
-276
-200
-266
-233
-230
-282
-340
-243
-135
-219
-236
-179
-193
-158
-150
-158
-237
-238
-60
-81
-150
-86
-25
-52
-60
67
184
7
-41
119
24
88
102
-31
-27
-168
-309
-227
-184
-285
-285
-249
-291
-237
-215
-264
-260
-304
-233
-130
94
998
2178
3079
3267
2369
1005
189
131
235
170
33
-97
-204
-183
-207
-324
-327
-260
-198
-254
-213
-162
-362
-298
-69
-147
-272
-183
-113
-129
-114
-123
-202
-296
-137
-25
-66
-38
12
39
-33
20
101
46
158
241
202
319
348
311
404
437
434
406
395
409
395
385
303
272
239
130
62
-2
-97
-102
-53
-79
-156
-206
-159
-198
-297
-176
-136
-238
-205
-283
-342
-173
-225
-268
-147
-206
-247
-126
-148
-325
-229
-70
-142
-192
-234
-216
-103
-132
-206
-190
-198
-201
-162
-198
-142
-93
-175
-174
-140
-152
-191
-246
-243
-159
-117
-106
-162
-221
-188
-158
-137
-216
-236
-247
-324
-255
-130
-128
-159
-163
-236
-264
-200
-213
-209
-115
-126
-168
-139
-139
-126
-133
-230
-122
25
0
8
55
-18
23
195
111
86
152
54
19
64
18
-108
-127
-27
-81
-229
-317
-315
-265
-289
-423
-349
-159
-243
-203
-155
-188
-114
278
1451
2785
3468
3180
1987
661
118
95
116
63
-126
-117
-155
-204
-125
-222
-263
-187
-197
-189
-181
-203
-234
-201
-128
-137
-132
-136
-222
-160
-84
-104
-62
-95
-109
-90
-49
28
19
70
143
93
152
142
151
378
385
336
424
457
444
442
459
462
434
439
456
408
342
337
248
95
44
-5
86
86
-22
0
-78
-95
-56
-111
-121
-95
-87
-52
-151
-242
-97
-120
-184
-77
-103
-134
-85
-104
-66
-70
-129
-73
-154
-197
0
35
-81
-94
-35
-73
-173
-80
-6
-47
-38
-126
-120
-39
-82
-133
-102
-33
-121
-167
-90
-67
-101
-99
-84
-165
-178
-111
-164
-224
-141
-121
-129
-45
-61
-198
-259
-209
-96
5
-16
-73
-95
-88
-86
-41
5
8
38
42
0
42
127
158
174
139
110
104
77
96
149
84
-100
-72
-109
-315
-183
-105
-205
-266
-209
-145
-223
-154
-142
-190
-105
65
673
1792
2905
3198
2441
1136
184
-80
-32
129
53
-132
-137
-143
-224
-210
-178
-205
-133
-108
-210
-219
-119
-128
-225
-229
-147
-95
-78
4
-13
-26
23
-34
-20
24
43
18
28
87
16
61
227
256
239
274
312
283
323
458
430
387
416
362
292
333
454
407
360
343
235
182
160
99
8
-17
11
-69
-192
-145
1
-111
-168
-181
-350
-103
42
-91
-68
-105
-148
-157
-101
-43
-145
-159
-74
-105
-118
-69
-123
-110
-210
-176
79
-32
-67
-49
-125
-66
-63
-95
-93
-142
-200
-189
-141
-98
-61
-73
-105
-141
-178
-180
-187
-137
-237
-449
-220
-38
-122
-126
-120
-114
-148
-142
-165
-216
-149
-124
-178
-213
-219
-178
-150
-164
-145
-24
17
-15
37
69
52
146
157
-28
27
100
35
36
40
-13
-170
-127
-89
-201
-164
-291
-402
-190
-163
-271
-207
-220
-278
-208
-214
-250
25
653
1663
2807
3144
2384
1108
138
-125
-84
-9
-65
-171
-183
-200
-218
-304
-310
-213
-258
-292
-291
-283
-211
-159
-179
-244
-217
-136
-174
-240
-198
-165
-186
-180
-184
-132
-117
-145
-42
4
-10
29
110
124
83
192
177
108
228
388
481
346
261
280
361
452
348
309
284
182
100
97
84
-68
-89
-81
-206
-264
-203
-128
-223
-308
-205
-237
-284
-290
-304
-247
-302
-260
-212
-444
-383
-134
-111
-166
-215
-169
-184
-202
-183
-216
-176
-199
-288
-243
-241
-226
-207
-225
-144
-152
-203
-196
-203
-220
-172
-172
-247
-249
-256
-259
-206
-171
-207
-254
-316
-276
-271
-288
-158
-225
-282
-195
-180
-259
-368
-264
-270
-300
-136
-193
-239
-219
-222
-125
-136
-231
-224
-129
-75
-34
-17
-19
110
135
6
19
68
4
-37
-23
-140
-225
-153
-175
-214
-237
-286
-315
-267
-268
-281
-314
-378
-265
-355
-365
-144
70
879
2052
3022
3240
2472
1155
166
-36
-72
8
35
-101
-154
-240
-284
-258
-262
-270
-269
-275
-310
-403
-372
-209
-145
-181
-199
-209
-209
-197
-229
-222
-145
-112
-109
-131
-293
-288
30
107
-48
-18
159
212
98
144
303
304
306
385
433
459
424
389
455
492
303
178
325
387
120
59
236
104
-34
-58
-134
-159
-130
-169
-272
-230
-118
-156
-154
-178
-219
-197
-225
-172
-135
-231
-295
-208
-192
-253
-209
-162
-187
-293
-223
-163
-217
-166
-252
-231
-101
-191
-213
-159
-202
-216
-224
-183
-170
-282
-240
-148
-220
-312
-244
-179
-277
-255
-123
-163
-214
-192
-268
-281
-203
-250
-283
-230
-268
-223
-164
-190
-179
-179
-181
-196
-205
-200
-236
-246
-170
-214
-337
-206
-50
-46
-73
-88
-72
32
47
-54
70
173
136
97
33
4
49
44
25
34
-68
-140
-146
-233
-245
-262
-371
-314
-305
-372
-265
-207
-178
-195
-268
-147
77
735
1910
3066
3425
2758
1506
362
101
181
94
-9
-83
-170
-272
-249
-187
-170
-377
-401
-143
-211
-261
-163
-193
-212
-232
-232
-152
-164
-179
-148
-148
-124
-86
-114
-135
-71
-14
-28
-3
55
107
107
48
122
202
243
300
320
353
468
507
480
471
368
417
516
360
280
329
320
209
43
73
78
-27
-66
-120
-155
-124
-68
-65
-153
-240
-136
-42
-77
-113
-185
-208
-139
-111
-131
-149
-143
-144
-202
-108
-55
-141
-162
-87
-75
-234
-162
-47
-112
-132
-134
-82
-107
-198
-128
-9
-55
-113
-161
-237
-85
-8
-91
-76
-89
-97
-103
-194
-154
-44
-129
-152
-158
-202
-132
-107
-152
-183
-143
-107
-122
-118
-124
-224
-272
-163
-40
-185
-262
-77
-113
-29
117
26
23
34
21
34
141
271
198
69
70
121
190
153
7
-42
-63
-124
-128
-220
-308
-149
-129
-234
-180
-118
-184
-248
-175
-84
-35
343
1273
2386
3155
2977
1941
679
-4
-8
76
139
79
-106
-133
-74
-135
-179
-127
-92
-150
-230
-166
-177
-239
-71
-76
-137
-65
-83
-93
-77
-38
4
-71
-121
-81
-103
25
132
108
103
76
155
247
245
288
323
156
187
383
467
498
455
453
457
444
410
388
342
276
227
245
134
-66
66
108
-10
-24
-81
-134
-156
-129
-112
-146
-149
-199
-222
-120
-80
-175
-175
-75
-118
-132
-100
-77
-103
-199
-132
-121
-166
-108
-141
-106
-41
-96
-123
-127
-92
-62
-94
-121
-193
-178
-51
-55
-116
-96
-77
-159
-149
-126
-262
-188
-58
-175
-176
-193
-324
-160
-95
-236
-203
-131
-126
-130
-180
-135
-160
-225
-209
-251
-108
-63
-161
-143
-94
-47
-87
-119
-9
61
13
-40
-33
67
178
174
115
53
23
15
-7
18
8
-109
-234
-256
-233
-187
-188
-267
-287
-273
-285
-180
-83
-188
-150
-54
26
934
2297
3060
3003
2037
719
-51
-133
111
143
-37
-66
-143
-229
-187
-183
-241
-249
-185
-199
-210
-190
-238
-209
-174
-238
-214
-205
-245
-161
-88
-113
-136
-101
-24
-125
-204
25
54
-28
41
108
86
95
247
217
261
329
207
277
372
374
426
449
424
394
388
329
211
178
187
123
98
45
-74
-83
-122
-173
-108
-172
-220
-114
-154
-221
-218
-229
-191
-157
-173
-217
-203
-192
-242
-231
