-9
22
62
108
156
201
240
268
284
288
281
267
251
238
231
235
251
280
318
363
409
452
487
510
521
519
507
487
465
444
429
422
426
440
464
494
526
557
582
599
605
600
586
564
537
511
487
470
461
461
470
487
509
534
559
581
597
605
604
593
571
540
502
459
416
374
339
312
295
287
288
295
302
307
306
296
276
248
213
175
138
106
81
64
56
55
59
63
67
66
59
45
25
-1
-29
-59
-87
-111
-129
-141
-147
-146
-141
-134
-127
-122
-122
-128
-140
-159
-182
-209
-237
-262
-283
-296
-302
-298
-287
-269
-247
-224
-203
-187
-177
-176
-183
-198
-220
-244
-269
-291
-307
-316
-316
-309
-296
-279
-262
-248
-238
-236
-241
-253
-269
-287
-304
-319
-327
-329
-324
-313
-297
-280
-262
-247
-236
-231
-232
-239
-252
-267
-283
-298
-309
-315
-315
-307
-295
-278
-260
-244
-232
-227
-229
-238
-253
-273
-293
-310
-323
-328
-324
-312
-294
-270
-245
-221
-201
-187
-181
-182
-190
-205
-224
-244
-264
-282
-294
-300
-298
-289
-273
-253
-230
-208
-190
-177
-174
-179
-193
-214
-239
-263
-284
-297
-299
-291
-271
-244
-211
-178
-151
-132
-125
-132
-151
-180
-214
-250
-281
-303
-313
-308
-289
-257
-215
-168
-121
-78
-45
-23
-16
-24
-45
-77
-116
-157
-195
-228
-250
-261
-260
-249
-232
-211
-192
-178
-172
-175
-187
-207
-231
-255
-275
-287
-290
-282
-264
-238
-207
-176
-148
-127
-116
-117
-129
-151
-179
-209
-236
-258
-270
-271
-262
-243
-218
-192
-170
-154
-148
-153
-169
-194
-223
-253
-279
-298
-307
-305
-292
-270
-242
-213
-185
-163
-149
-145
-152
-169
-194
-223
-255
-283
-306
-319
-321
-311
-292
-266
-236
-207
-184
-169
-165
-173
-191
-216
-244
-272
-295
-310
-314
-309
-294
-272
-246
-221
-200
-185
-179
-182
-195
-215
-240
-268
-296
-320
-338
-349
-350
-342
-326
-304
-278
-251
-228
-211
-202
-203
-215
-235
-261
-289
-316
-336
-348
-348
-337
-316
-288
-257
-230
-209
-198
-200
-214
-238
-268
-299
-327
-347
-356
-352
-335
-308
-275
-241
-210
-186
-174
-174
-186
-210
-242
-277
-312
-343
-365
-377
-376
-362
-336
-302
-263
-223
-186
-157
-140
-135
-144
-166
-197
-233
-268
-299
-320
-329
-324
-307
-281
-251
-221
-198
-184
-183
-195
-218
-247
-280
-309
-331
-343
-343
-331
-310
-284
-257
-232
-214
-205
-205
-215
-231
-251
-272
-290
-303
-307
-302
-289
-268
-242
-214
-189
-169
-157
-157
-168
-189
-219
-254
-290
-322
-346
-359
-359
-347
-322
-288
-248
-207
-168
-134
-107
-89
-79
-75
-75
-76
-77
-74
-65
-49
-28
-1
28
58
84
103
113
112
98
74
43
9
-24
-48
-59
-55
-33
4
54
110
166
215
250
269
269
253
223
186
148
117
97
92
104
131
170
215
261
303
335
355
361
354
335
309
279
250
224
205
194
190
193
200
209
216
219
216
206
189
166
139
111
84
61
43
33
28
29
33
38
41
40
34
21
1
-24
-53
-85
-115
-143
-166
-182
-190
-191
-185
-174
-159
-145
-134
-128
-131
-145
-170
-206
-252
-303
-356
-406
-447
-474
-486
-480
-459
-424
-381
-336
-295
-263
-245
-243
-255
-281
-315
-352
-386
-412
-428
-430
-420
-400
-373
-344
-318
-298
-287
-287
-297
-315
-339
-366
-392
-413
-429
-437
-437
-429
-414
-392
-365
-332
-295
-253
-206
-153
-93
-23
59
157
275
417
588
793
1033
1309
1621
1964
2334
2723
3123
3523
3916
4294
4650
4979
5277
5540
5763
5940
6063
6124
6112
6017
5833
5556
5189
4740
4226
3670
3100
2545
2032
1585
1222
948
762
654
605
595
602
605
590
548
478
383
273
158
49
-45
-117
-165
-191
-197
-191
-178
-166
-160
-163
-178
-205
-242
-289
-341
-395
-447
-495
-534
-562
-578
-581
-573
-556
-533
-510
-490
-478
-476
-485
-506
-534
-568
-603
-635
-659
-674
-679
-674
-660
-642
-622
-604
-592
-588
-594
-609
-631
-659
-688
-715
-737
-749
-751
-741
-721
-692
-659
-625
-595
-572
-561
-562
-574
-597
-626
-657
-685
-707
-718
-718
-706
-685
-657
-627
-599
-576
-561
-556
-559
-570
-586
-604
-621
-634
-642
-643
-637
-625
-609
-590
-571
-554
-541
-532
-530
-533
-540
-551
-564
-576
-584
-588
-586
-577
-562
-544
-524
-504
-489
-480
-480
-488
-505
-527
-553
-577
-596
-607
-607
-594
-568
-533
-492
-448
-408
-375
-353
-345
-350
-369
-398
-432
-468
-500
-525
-539
-542
-532
-513
-487
-459
-433
-412
-400
-398
-406
-422
-443
-465
-482
-490
-488
-472
-445
-408
-365
-321
-282
-252
-234
-230
-240
-262
-290
-321
-349
-369
-377
-370
-348
-313
-267
-215
-163
-114
-74
-45
-30
-28
-38
-54
-74
-92
-103
-103
-92
-67
-31
14
63
112
155
189
211
221
218
207
191
174
161
158
165
185
217
259
305
352
395
430
453
463
461
448
429
407
388
375
372
380
399
429
465
505
543
576
600
613
613
603
583
558
531
507
490
481
482
492
509
532
555
576
591
598
596
585
566
540
510
479
449
423
402
389
382
381
385
391
397
400
398
389
371
345
313
275
235
196
161
133
112
100
96
97
100
104
105
99
86
65
35
-2
-42
-83
-121
-151
-172
-181
-178
-164
-144
-120
-99
-84
-81
-90
-112
-145
-186
-228
-267
-298
-317
-321
-312
-292
-266
-237
-211
-193
-185
-189
-204
-229
-259
-292
-322
-346
-361
-365
-359
-343
-320
-293
-266
-241
-224
-215
-216
-228
-248
-273
-301
-328
-349
-364
-368
-364
-350
-331
-308
-285
-264
-250
-243
-244
-253
-269
-289
-310
-330
-345
-354
-355
-347
-330
-308
-281
-253
-227
-207
-195
-193
-201
-218
-241
-267
-292
-312
-323
-323
-311
-288
-256
-221
-186
-158
-139
-134
-143
-166
-199
-238
-277
-309
-332
-340
-334
-314
-285
-251
-218
-191
-174
-171
-181
-203
-233
-266
-297
-323
-339
-342
-334
-315
-288
-256
-223
-193
-170
-155
-150
-156
-172
-195
-223
-253
-281
-303
-316
-319
-311
-292
-266
-234
-202
-173
-152
-141
-142
-154
-176
-205
-236
-265
-289
-303
-306
-299
-282
-259
-232
-206
-184
-169
-162
-164
-174
-190
-208
-226
-240
-247
-246
-238
-222
-200
-177
-154
-136
-124
-122
-129
-145
-168
-196
-224
-249
-266
-273
-268
-251
-225
-192
-157
-126
-104
-94
-99
-119
-152
-195
-242
-287
-324
-348
-358
-351
-330
-298
-261
-223
-192
-170
-160
-165
-181
-207
-239
-272
-302
-324
-337
-339
-330
-311
-286
-259
-233
-212
-198
-195
-203
-221
-246
-276
-306
-331
-349
-354
-347
-327
-297
-259
-220
-184
-156
-140
-137
-147
-170
-200
-234
-266
-291
-308
-313
-306
-290
-268
-243
-220
-203
-195
-197
-210
-233
-262
-294
-324
-349
-366
-371
-366
-349
-324
-293
-261
-233
-211
-198
-196
-204
-222
-245
-271
-296
-316
-329
-333
-328
-315
-296
-274
-252
-234
-222
-218
-223
-237
-257
-280
-304
-323
-336
-339
-332
-315
-291
-263
-235
-212
-197
-192
-198
-213
-235
-260
-283
-302
-313
-315
-308
-292
-272
-249
-228
-211
-201
-199
-205
-220
-241
-267
-296
-325
-352
-373
-388
-393
-389
-375
-352
-323
-291
-260
-234
-215
-208
-212
-226
-249
-276
-303
-325
-339
-342
-333
-313
-284
-251
-217
-186
-162
-148
-144
-151
-168
-191
-217
-243
-265
-279
-283
-275
-255
-224
-186
-143
-100
-62
-33
-15
-10
-17
-32
-53
-73
-89
-95
-89
-71
-43
-7
31
67
96
114
121
116
104
87
69
55
49
53
66
88
117
149
181
209
229
242
244
239
226
208
188
170
156
149
150
161
179
205
234
263
290
311
323
324
315
295
268
237
203
173
147
130
122
124
133
149
167
185
198
203
198
181
153
115
71
24
-21
-60
-90
-109
-116
-113
-102
-88
-73
-63
-61
-67
-84
-109
-140
-174
-209
-241
-267
-287
-299
-303
-301
-294
-285
-275
-267
-262
-262
-269
-281
-300
-321
-344
-366
-383
-392
-393
-385
-370
-350
-329
-311
-300
-300
-310
-332
-362
-395
-429
-457
-475
-481
-474
-455
-425
-390
-355
-324
-302
-292
-296
-314
-344
-383
-426
-466
-497
-514
-511
-485
-434
-359
-262
-148
-21
112
247
384
521
662
813
983
1179
1410
1681
1997
2355
2751
3175
3616
4059
4489
4893
5258
5573
5830
6022
6144
6191
6161
6050
5857
5584
5236
4820
4350
3842
3317
2798
2307
1862
1479
1166
927
755
642
574
535
512
491
465
428
379
319
253
184
114
46
-18
-79
-136
-190
-241
-287
-326
-357
-379
-392
-395
-393
-389
-387
-390
-403
-426
-460
-502
-548
-594
-635
-666
-685
-690
-682
-663
-639
-614
-593
-579
-575
-583
-600
-626
-654
-682
-704
-718
-721
-713
-694
-668
-637
-606
-578
-558
-547
-546
-556
-575
-599
-626
-653
-675
-691
-698
-697
-688
-672
-652
-630
-610
-594
-585
-583
-590
-604
-625
-649
-674
-696
-713
-723
-724
-715
-697
-671
-641
-609
-579
-554
-536
-527
-527
-537
-554
-576
-599
-619
-635
-643
-644
-637
-625
-609
-594
-582
-575
-577
-586
-601
-620
-640
-657
-668
-670
-663
-647
-624
-596
-566
-540
-519
-507
-503
-509
-521
-537
-554
-568
-575
-574
-564
-543
-515
-483
-449
-419
-397
-386
-388
-403
-428
-461
-498
-531
-558
-573
-574
-561
-535
-500
-460
-419
-382
-352
-332
-322
-321
-328
-339
-352
-363
-370
-372
-369
-361
-347
-331
-314
-296
-280
-267
-258
-253
-253
-256
-261
-267
-272
-274
-270
-260
-242
-217
-187
-153
-118
-85
-58
-38
-28
-25
-31
-40
-51
-60
-62
-55
-38
-9
28
73
120
166
207
240
262
273
275
269
259
250
245
248
261
284
317
357
399
441
476
503
518
521
512
494
469
443
419
402
393
396
411
435
467
503
539
570
595
610
614
608
593
573
551
531
515
505
504
509
521
535
548
558
562
556
541
515
481
442
400
358
321
290
269
258
257
263
275
288
298
301
296
279
251
213
168
119
71
28
-7
-31
-45
-48
-42
-33
-22
-14
-13
-20
-38
-64
-98
-136
-175
-210
-238
-257
-263
-258
-242
-218
-190
-162
-138
-123
-119
-128
-150
-181
-219
-259
-295
-324
-342
-347
-339
-321
-294
-264
-235
-213
-200
-199
-211
-233
-263
-297
-331
-360
-380
-390
-388
-375
-353
-326
-298
-272
-252
-241
-240
-248
-266
-291
-319
-347
-371
-388
-393
-386
-366
-333
-290
-243
-196
-155
-127
-116
-125
-153
-198
-254
-314
-370
-415
-442
-448
-434
-404
-362
-317
-277
-248
-234
-238
-258
-290
-328
-364
-393
-409
-411
-398
-372
-337
-299
-262
-232
-212
-205
-208
-223
-245
-272
-300
-325
-343
-354
-354
-343
-323
-294
-260
-224
-190
-163
-146
-141
-152
-175
-210
-250
-292
-329
-354
-365
-358
-335
-299
-254
-209
-170
-143
-132
-140
-164
-201
-244
-288
-324
-348
-357
-350
-327
-294
-255
-216
-183
-161
-151
-156
-174
-201
-235
-270
-302
-327
-341
-342
-331
-308
-276
-241
-205
-173
-150
-139
-141
-155
-180
-212
-245
-277
-300
-313
-313
-300
-276
-244
-210
-178
-152
-138
-135
-145
-166
-194
-225
-254
-277
-291
-294
-285
-267
-242
-216
-191
-173
-164
-166
-179
-202
-231
-264
-296
-324
-344
-354
-354
-343
-325
-300
-273
-247
-225
-210
-204
-208
-219
-238
-261
-286
-308
-325
-335
-337
-331
-318
-300
-281
-262
-246
-236
-233
-236
-245
-259
-275
-290
-302
-308
-307
-298
-281
-258
-232
-205
-182
-166
-159
-165
-181
-206
-237
-270
-299
-321
-332
-333
-323
-305
-283
-262
-245
-236
-236
-246
-264
-286
-310
-332
-350
-360
-363
-358
-346
-330
-311
-291
-272
-257
-246
-242
-244
-253
-267
-285
-304
-323
-338
-346
-346
-339
-323
-302
-279
-256
-238
-227
-226
-234
-251
-274
-299
-324
-344
-355
-358
-350
-333
-309
-283
-257
-235
-221
-216
-220
-233
-253
-277
-303
-326
-345
-355
-358
-352
-338
-317
-293
-267
-242
-221
-207
-201
-203
-214
-232
-255
-280
-305
-326
-341
-347
-343
-332
-314
-292
-271
-254
-244
-244
-255
-276
-304
-336
-367
-392
-408
-411
-400
-377
-345
-306
-266
-230
-202
-185
-179
-184
-198
-215
-233
-246
-251
-245
-227
-198
-159
-115
-69
-27
8
33
46
46
33
12
-16
-45
-71
-90
-98
-95
-80
-52
-16
26
70
111
146
171
186
188
180
163
141
118
100
88
88
99
121
152
188
224
255
276
285
280
263
238
209
181
160
150
153
169
195
229
263
294
315
324
318
298
267
228
187
148
116
94
84
85
94
108
123
132
132
120
94
56
9
-44
-97
-145
-182
-207
-218
-215
-202
-182
-159
-140
-126
-122
-128
-144
-168
-198
-230
-261
-289
-311
-326
-334
-335
-333
-327
-322
-319
-320
-325
-335
-350
-369
-389
-410
-428
-442
-451
-452
-445
-432
-411
-386
-360
-334
-312
-298
-293
-300
-316
-342
-373
-405
-433
-454
-464
-460
-444
-418
-387
-355
-329
-312
-308
-318
-338
-364
-388
-403
-401
-376
-323
-239
-127
12
174
353
545
747
960
1184
1422
1678
1956
2260
2590
2947
3326
3721
4124
4526
4914
5277
5601
5873
6082
6216
6264
6218
6073
5830
5493
5074
4588
4057
3507
2964
2454
1998
1612
1303
1072
911
807
742
699
662
616
556
477
384
282
180
86
6
-55
-97
-122
-136
-144
-153
-169
-194
-229
-274
-325
-378
-428
-471
-503
-523
-532
-531
-524
-515
-508
-506
-513
-528
-552
-582
-616
-651
-683
-709
-726
-735
-733
-724
-708
-689
-669
-652
-640
-634
-636
-645
-659
-678
-697
-716
-729
-736
-736
-726
-710
-688
-664
-641
-621
-608
-603
-607
-619
-637
-658
-680
-700
-714
-721
-720
-712
-698
-680
-662
-644
-630
-621
-618
-622
-632
-646
-663
-679
-693
-702
-706
-702
-692
-676
-657
-636
-615
-599
-589
-585
-590
-602
-619
-639
-659
-675
-685
-687
-679
-662
-639
-612
-584
-560
-543
-535
-537
-548
-566
-589
-611
-629
-640
-642
-635
-618
-595
-568
-541
-516
-497
-484
-480
-483
-492
-505
-520
-534
-545
-551
-552
-548
-539
-526
-511
-496
-483
-473
-468
-467
-470
-477
-484
-492
-497
-498
-495
-487
-474
-458
-439
-420
-402
-386
-374
-366
-362
-362
-364
-366
-368
-368
-364
-356
-343
-326
-304
-280
-256
-232
-211
-195
-185
-182
-185
-193
-205
-217
-226
-231
-228
-215
-192
-160
-121
-78
-34
7
41
66
80
85
83
77
71
71
79
97
127
166
211
258
303
340
367
381
383
375
360
341
324
313
310
317
334
359
390
424
458
487
509
523
529
526
516
501
483
466
453
447
449
460
481
509
542
575
603
621
627
618
594
558
515
471
432
404
390
394
412
442
476
508
530
538
527
497
451
391
325
259
198
149
114
94
89
96
112
131
150
164
170
166
151
125
91
51
9
-31
-64
-89
-102
-105
-98
-84
-68
-54
-45
-46
-57
-78
-110
-148
-188
-228
-261
-287
-301
-305
-297
-281
-259
-235
-213
-195
-186
-186
-196
-215
-239
-267
-294
-316
-330
-334
-327
-311
-287
-260
-234
-213
-201
-200
-211
-233
-264
-299
-334
-364
-385
-394
-390
-374
-347
-315
-282
-251
-229
-218
-220
-234
-258
-290
-324
-357
-382
-397
-400
-389
-366
-334
-297
-259
-225
-199
-185
-184
-196
-219
-250
-284
-317
-344
-361
-366
-360
-342
-316
-286
-257
-232
-216
-211
-217
-234
-258
-287
-317
-343
-361
-370
-367
-354
-331
-301
-268
-235
-207
-186
-175
-176
-187
-207
-234
-264
-293
-315
-329
-330
-320
-299
-269
-235
-201
-173
-156
-151
-159
-181
-211
-246
-281
-308
-324
-327
-315
-290
-256
-218
-181
-151
-131
-124
-130
-148
-175
-205
-236
-262
-280
-289
-288
-278
-260
-239
-216
-195
-178
-168
-164
-168
-178
-193
-212
-231
-247
-260
-265
-263
-251
-231
-205
-174
-142
-114
-93
-83
-84
-98
-124
-157
-193
-227
-254
-270
-274
-264
-243
-215
-184
-156
-136
-126
-129
-144
-168
-197
-226
-251
-269
-277
-273
-259
-236
-208
-179
-151
-128
-112
-107
-111
-125
-147
-174
-204
-233
-257
-274
-281
-279
-266
-247
-222
-197
-175
-159
-153
-156
-170
-192
-219
-247
-273
-293
-305
-306
-298
-280
-255
-226
-196
-170
-150
-139
-139
-149
-168
-194
-223
-250
-271
-283
-283
-273
-252
-224
-193
-165
-143
-132
-133
-146
-170
-201
-235
-268
-294
-312
-318
-313
-299
-278
-253
-229
-208
-194
-188
-190
-200
-215
-233
-250
-263
-270
-269
-259
-241
-216
-188
-160
-136
-120
-113
-117
-133
-159
-192
-227
-261
-288
-306
-312
-305
-286
-259
-227
-194
-167
-148
-140
-144
-158
-181
-207
-234
-257
-273
-280
-277
-267
-251
-233
-214
-199
-190
-187
-192
-202
-217
-236
-255
-273
-288
-298
-302
-300
-290
-274
-252
-227
-202
-178
-159
-147
-144
-150
-163
-183
-206
-228
-247
-258
-260
-253
-237
-215
-190
-166
-147
-137
-136
-147
-167
-194
-224
-253
-275
-288
-288
-274
-247
-210
-167
-121
-78
-43
-18
-5
-4
-13
-29
-47
-63
-73
-75
-68
-50
-25
5
37
66
89
104
108
102
88
67
44
22
7
0
6
26
58
101
151
203
253
294
324
339
339
325
301
272
245
224
214
217
234
264
300
339
373
397
408
402
382
349
310
270
235
210
199
202
219
245
276
306
331
346
349
339
318
289
254
219
186
159
140
129
126
130
138
146
153
155
151
138
117
89
54
16
-22
-57
-86
-105
-115
-113
-102
-84
-62
-42
-26
-18
-21
-37
-64
-101
-144
-189
-232
-269
-297
-314
-320
-316
-303
-284
-264
-244
-227
-215
-209
-210
-216
-228
-243
-259
-276
-290
-301
-308
-309
-304
-295
-283
-269
-257
-246
-240
-240
-245
-254
-267
-282
-296
-308
-318
-322
-322
-317
-306
-290
-267
-239
-203
-159
-106
-42
34
124
229
352
495
662
856
1079
1332
1616
1928
2266
2624
2996
3376
3757
4132
4495
4843
5168
5467
5731
5953
6121
6224
6248
6182
6017
5750
5383
4927
4400
3828
3239
2665
2134
1671
1291
1003
804
684
625
609
612
618
611
583
530
456
365
267
171
82
9
-47
-86
-108
-117
-119
-118
-118
-124
-138
-162
-195
-237
-283
-331
-374
-410
-434
-445
-443
-430
-409
-385
-363
-350
-349
-363
-393
-435
-488
-545
-601
-649
-686
-708
-713
-702
-678
-646
-609
-574
-546
-527
-519
-524
-538
-559
-582
-603
-618
-623
-618
-603
-579
-550
-520
-492
-471
-460
-459
-470
-491
-519
-552
-586
-617
-642
-658
-663
-656
-638
-609
-574
-535
-497
-464
-441
-429
-430
-443
-465
-493
-520
-542
-553
-552
-537
-510
-474
-433
-395
-365
-348
-346
-360
-388
-426
-469
-510
-544
-566
-573
-564
-539
-502
-458
-413
-371
-339
-319
-316
-328
-355
-392
-436
-480
-520
-550
-568
-572
-561
-539
-507
-472
-436
-406
-385
-374
-375
-386
-404
-427
-450
-469
-480
-481
-471
-451
-422
-388
-353
-321
-296
-281
-277
-283
-299
-322
-347
-370
-387
-394
-390
-373
-344
-305
-260
-213
-170
-134
-108
-97
-98
-112
-135
-163
-190
-211
-222
-221
-206
-179
-142
-99
-56
-16
15
35
43
40
29
15
2
-6
-3
13
42
83
133
187
239
285
321
343
352
348
336
319
301
288
283
289
305
331
364
403
443
483
520
552
577
596
609
614
614
609
600
590
580
573
570
572
579
592
608
624
638
648
652
649
640
627
613
601
596
599
611
632
658
688
715
737
748
746
731
703
665
621
577
536
503
481
471
472
482
497
512
524
526
518
496
462
417
365
311
258
213
178
155
146
149
162
180
198
213
220
216
200
173
136
93
48
7
-27
-50
-62
-62
-53
-38
-23
-10
-5
-11
-29
-58
-96
-139
-184
-225
-259
-283
-293
-291
-277
-252
-222
-188
-156
-129
-110
-102
-104
-116
-137
-162
-189
-213
-230
-237
-234
-222
-201
-177
-154
-137
-129
-134
-152
-180
-217
-256
-292
-321
-338
-341
-329
-305
-273
-236
-199
-168
-144
-131
-128
-135
-150
-169
-191
-212
-230
-243
-252
-255
-253
-248
-239
-228
-217
-206
-196
-189
-185
-184
-186
-190
-194
-196
-196
-190
-179
-162
-140
-114
-89
-67
-51
-45
-51
-68
-97
-134
-175
-216
-252
-279
-294
-296
-285
-262
-231
-197
-162
-132
-109
-96
-93
-99
-113
-133
-155
-176
-193
-205
-210
-207
-198
-184
-167
-149
-134
-123
-121
-126
-140
-161
-186
-211
-233
-247
-250
-240
-219
-188
-152
-116
-86
-66
-60
-67
-88
-117
-150
-181
-206
-219
-220
-209
-189
-162
-134
-108
-88
-75
-70
-73
-83
-97
-114
-131
-147
-160
-168
-172
-169
-160
-145
-127
-106
-86
-71
-62
-63
-73
-92
-118
-146
-174
-196
-209
-211
-202
-183
-158
-129
-101
-78
-63
-57
-60
-71
-88
-108
-129
-147
-162
-171
-174
-170
-160
-144
-124
-102
-79
-60
-46
-41
-47
-63
-89
-123
-161
-197
-228
-248
-254
-247
-227
-199
-167
-138
-116
-106
-109
-124
-150
-180
-210
-236
-252
-257
-251
-234
-210
-184
-158
-137
-125
-122
-129
-144
-166
-191
-214
-233
-243
-243
-231
-208
-177
-141
-106
-77
-57
-52
-61
-85
-121
-164
-208
-248
-277
-293
-293
-276
-244
-202
-153
-103
-58
-23
-2
4
-7
-33
-72
-117
-165
-209
-243
-263
-268
-257
-232
-198
-160
-126
-100
-87
-89
-106
-135
-171
-207
-238
-257
-262
-252
-227
-191
-150
-109
-75
-53
-45
-53
-75
-106
-143
-179
-209
-229
-236
-230
-212
-185
-155
-125
-99
-81
-72
-73
-82
-97
-115
-135
-152
-166
-174
-177
-174
-166
-153
-137
-120
-104
-90
-81
-77
-79
-88
-103
-121
-138
-153
-162
-162
-153
-133
-105
-70
-33
3
35
61
80
91
97
99
100
101
105
113
123
136
149
161
169
175
176
173
169
164
161
161
164
170
181
194
210
225
241
256
270
284
297
308
319
328
334
337
334
327
315
300
284
270
260
257
262
275
296
320
346
369
386
393
389
376
352
323
290
258
231
209
196
192
194
202
212
220
225
223
213
194
167
135
101
69
42
23
15
18
30
49
70
89
101
102
91
68
35
-3
-43
-79
-107
-124
-129
-122
-107
-86
-65
-47
-37
-37
-50
-73
-107
-147
-190
-230
-264
-287
-296
-290
-270
-237
-196
-152
-111
-78
-59
-55
-67
-93
-128
-168
-207
-238
-258
-263
-253
-231
-198
-161
-125
-95
-74
-67
-73
-92
-119
-152
-183
-208
-219
-214
-190
-145
-82
-3
86
181
278
373
466
558
653
756
876
1020
1193
1400
1644
1923
2235
2573
2931
3299
3668
4029
4375
4697
4987
5236
5438
5584
5664
5670
5595
5434
5185
4852
4441
3967
3448
2904
2361
1841
1365
953
614
354
173
62
11
5
28
65
102
130
143
137
114
76
28
-24
-74
-117
-149
-168
-174
-167
-151
-129
-106
-87
-76
-76
-89
-115
-154
-201
-253
-305
-353
-392
-420
-434
-436
-426
-408
-386
-362
-340
-324
-315
-313
-319
-331
-349
-370
-392
-412
-428
-439
-443
-438
-424
-402
-374
-344
-313
-287
-268
-261
-265
-283
-311
-346
-385
-421
-451
-470
-476
-468
-449
-421
-391
-363
-341
-332
-335
-351
-379
-413
-448
-478
-498
-505
-495
-470
-432
-386
-339
-296
-264
-247
-246
-262
-292
-331
-373
-412
-442
-459
-460
-445
-415
-375
-328
-281
-238
-205
-183
-176
-183
-202
-229
-261
-293
-320
-338
-344
-339
-322
-298
-269
-242
-220
-207
-207
-219
-243
-274
-310
-343
-370
-386
-388
-377
-355
-323
-287
-253
-223
-204
-196
-200
-216
-239
-267
-294
-317
-330
-333
-323
-302
-271
-234
-194
-156
-123
-99
-85
-83
-91
-108
-130
-155
-176
-191
-196
-190
-170
-139
-100
-56
-14
23
50
65
66
56
39
18
0
-11
-11
3
28
64
105
148
187
217
237
244
241
229
212
194
180
174
178
193
219
255
297
343
389
430
464
489
505
510
507
499
488
478
471
470
477
492
515
545
580
618
656
690
717
737
748
748
739
724
704
685
668
658
657
665
683
708
738
768
796
817
831
836
833
824
811
798
785
776
770
768
768
768
766
760
748
729
704
674
639
603
567
536
510
491
480
477
480
488
498
507
513
513
506
490
466
433
393
349
302
256
214
178
150
131
123
124
134
149
166
182
192
194
186
166
136
98
56
15
-20
-44
-54
-49
-30
-1
34
66
90
101
94
70
31
-19
-71
-120
-157
-178
-181
-166
-137
-100
-61
-29
-8
-1
-10
-32
-64
-100
-134
-161
-177
-180
-170
-149
-121
-90
-61
-37
-22
-17
-23
-40
-65
-94
-124
-151
-171
-180
-178
-163
-137
-103
-65
-27
5
28
39
36
20
-7
-41
-77
-110
-136
-151
-152
-142
-120
-90
-58
-26
0
16
22
15
-2
-27
-56
-84
-106
-119
-120
-109
-88
-60
-29
-1
19
28
22
3
-28
-65
-104
-139
-164
-175
-172
-154
-124
-87
-49
-12
18
38
49
50
44
33
18
2
-14
-30
-46
-61
-75
-88
-98
-105
-107
-105
-98
-89
-79
-71
-68
-70
-80
-94
-112
-130
-144
-150
-146
-132
-109
-80
-48
-20
2
13
11
-2
-26
-56
-88
-116
-136
-145
-141
-124
-97
-64
-30
0
21
31
28
13
-11
-41
-72
-98
-116
-124
-120
-106
-84
-58
-33
-12
1
6
0
-14
-33
-55
-75
-91
-100
-101
-95
-83
-67
-51
-36
-27
-25
-32
-46
-67
-92
-119
-144
-164
-178
-183
-178
-164
-143
-118
-91
-66
-46
-33
-29
-35
-47
-65
-86
-105
-119
-128
-129
-122
-110
-94
-79
-67
-61
-63
-74
-94
-121
-154
-190
-224
-256
-280
-295
-300
-293
-275
-248
-214
-177
-141
-111
-89
-79
-82
-96
-121
-152
-185
-216
-239
-252
-253
-241
-219
-188
-154
-119
-87
-64
-51
-49
-60
-82
-112
-147
-184
-219
-249
-269
-279
-278
-267
-248
-224
-200
-178
-164
-158
-164
-180
-204
-234
-265
-293
-314
-325
-324
-312
-291
-263
-232
-202
-177
-160
-151
-150
-155
-162
-168
-169
-163
-149
-125
-95
-62
-29
-2
17
23
17
-3
-34
-73
-116
-158
-194
-220
-233
-232
-218
-191
-155
-114
-72
-34
-3
17
24
19
4
-18
-43
-66
-82
-87
-79
-58
-23
20
69
118
161
194
214
221
214
197
174
148
124
107
99
102
115
136
163
191
216
234
243
239
225
201
171
141
116
102
101
118
150
197
252
310
365
409
440
453
450
433
407
378
351
331
322
324
336
357
381
406
426
439
443
437
422
401
376
350
326
305
290
282
280
283
292
303
316
329
339
345
346
339
325
303
273
238
200
161
127
99
81
73
75
84
97
109
116
113
98
72
35
-7
-51
-90
-119
-136
-139
-130
-112
-91
-70
-56
-50
-56
-73
-97
-126
-156
-182
-202
-213
-215
-208
-195
-178
-160
-142
-127
-116
-109
-107
-110
-116
-125
-136
-149
-162
-175
-185
-193
-197
-196
-191
-183
-173
-162
-154
-149
-150
-158
-172
-192
-213
-232
-244
-245
-232
-201
-154
-91
-17
65
150
232
310
382
451
520
596
685
795
932
1100
1299
1530
1790
2072
2372
2683
2998
3311
3617
3909
4183
4433
4650
4828
4958
5032
5042
4981
4846
4635
4353
4006
3605
3167
2708
2249
1807
1401
1044
746
511
337
220
149
112
96
90
84
71
48
16
-24
-68
-113
-155
-192
-222
-244
-260
-268
-270
-267
-258
-246
-231
-215
-201
-191
-189
-197
-214
-241
-275
-311
-347
-378
-400
-413
-416
-412
-403
-394
-388
-389
-397
-414
-437
-462
-487
-507
-518
-520
-510
-491
-464
-434
-405
-379
-362
-354
-357
-370
-390
-414
-438
-459
-473
-479
-474
-461
-441
-416
-390
-367
-350
-341
-342
-353
-372
-397
-425
-451
-472
-484
-484
-472
-449
-418
-383
-351
-326
-313
-314
-329
-355
-386
-416
-436
-440
-425
-388
-333
-267
-196
-130
-77
-46
-39
-58
-100
-161
-234
-312
-386
-452
-504
-540
-558
-557
-541
-511
-472
-428
-383
-344
-313
-293
-288
-294
-311
-333
-356
-374
-382
-379
-363
-335
-300
-261
-225
-195
-176
-170
-176
-194
-220
-251
-284
-315
-341
-360
-371
-371
-362
-342
-314
-279
-240
-201
-165
-136
-117
-109
-112
-123
-141
-159
-174
-181
-179
-165
-143
-114
-84
-56
-35
-24
-23
-31
-46
-65
-82
-94
-98
-90
-71
-42
-3
39
83
124
157
180
191
189
177
156
132
109
93
86
94
116
152
199
251
305
355
396
426
444
451
448
440
429
420
413
411
414
424
439
458
482
509
538
566
593
614
629
633
626
607
580
547
513
487
472
474
496
536
593
660
730
795
846
880
891
882
854
813
765
716
673
639
616
603
598
596
593
585
569
543
509
468
423
381
344
317
303
302
314
336
365
396
424
445
455
454
441
419
389
356
323
294
271
255
246
241
239
237
232
222
206
184
156
125
92
61
33
11
-4
-11
-10
-4
7
19
31
39
42
38
27
11
-9
-30
-49
-65
-74
-76
-71
-59
-43
-24
-6
10
22
27
27
21
9
-7
-27
-49
-71
-92
-111
-125
-133
-134
-128
-115
-97
-75
-54
-36
-25
-24
-34
-56
-88
-126
-164
-198
-221
-229
-221
-196
-157
-110
-61
-19
9
20
11
-18
-60
-111
-161
-203
-230
-239
-229
-202
-165
-124
-87
-59
-45
-46
-62
-88
-120
-153
-183
-205
-218
-222
-218
-208
-194
-178
-162
-147
-134
-125
-119
-118
-121
-129
-140
-154
-167
-177
-182
-179
-166
-144
-114
-79
-43
-10
14
28
29
18
-5
-34
-66
-96
-120
-135
-139
-134
-121
-106
-91
-82
-82
-93
-116
-147
-183
-219
-249
-267
-269
-251
-215
-163
-99
-30
37
93
133
154
152
129
89
37
-18
-72
-116
-145
-159
-155
-136
-106
-69
-31
3
30
46
51
45
30
10
-13
-35
-52
-63
-66
-62
-52
-37
-22
-8
1
3
-4
-19
-40
-66
-91
-112
-125
-127
-117
-97
-68
-36
-5
20
37
41
34
16
-11
-42
-74
-103
-127
-144
-154
-156
-151
-139
-123
-102
-80
-56
-34
-16
-5
-2
-9
-26
-51
-80
-110
-137
-155
-163
-158
-141
-117
-88
-60
-38
-25
-23
-33
-52
-77
-102
-123
-137
-140
-133
-116
-93
-68
-44
-27
-18
-21
-34
-57
-86
-118
-149
-175
-195
-205
-205
-197
-183
-164
-146
-130
-121
-119
-126
-142
-165
-192
-221
-247
-267
-279
-281
-272
-253
-225
-192
-155
-120
-90
-68
-56
-55
-65
-84
-110
-139
-167
-190
-205
-209
-201
-182
-152
-117
-80
-46
-20
-5
-5
-18
-43
-77
-115
-151
-181
-200
-207
-202
-186
-163
-135
-109
-88
-75
-71
-77
-91
-112
-137
-161
-182
-198
-206
-206
-197
-182
-161
-137
-113
-92
-76
-68
-69
-77
-93
-112
-132
-149
-160
-163
-156
-141
-118
-92
-65
-41
-25
-17
-20
-32
-53
-80
-109
-136
-158
-172
-175
-168
-149
-121
-87
-52
-18
8
25
30
23
5
-20
-46
-69
-83
-84
-69
-38
5
56
109
158
197
221
227
215
188
149
104
60
21
-6
-19
-16
2
34
74
119
163
200
229
246
250
244
228
208
187
171
161
162
173
194
222
254
284
310
326
331
325
307
281
250
219
191
171
161
161
171
188
209
231
249
261
265
260
249
233
214
194
176
162
152
146
143
142
140
136
128
116
99
77
51
21
-10
-41
-70
-95
-114
-126
-130
-127
-117
-104
-89
-75
-66
-65
-72
-89
-115
-148
-184
-221
-254
-281
-297
-304
-299
-285
-265
-242
-221
-204
-195
-195
-205
-225
-250
-279
-307
-330
-346
-351
-345
-329
-305
-276
-245
-217
-195
-182
-179
-186
-202
-224
-249
-273
-293
-306
-308
-299
-278
-246
-204
-155
-101
-45
10
64
114
162
210
260
318
388
476
589
730
903
1108
1345
1609
1894
2193
2498
2801
3096
3375
3637
3877
4095
4287
4451
4584
4679
4729
4725
4660
4528
4325
4053
3719
3336
2921
2493
2076
1687
1345
1061
840
680
573
507
469
443
417
382
333
269
194
114
34
-38
-97
-140
-168
-181
-184
-182
-179
-179
-186
-202
-228
-261
-302
-346
-391
-433
-470
-498
-516
-523
-519
-505
-484
-459
-434
-412
-398
-393
-400
-417
-443
-476
-511
-543
-570
-587
-594
-590
-576
-556
-534
-512
-496
-488
-489
-500
-518
-542
-567
-590
-606
-614
-612
-599
-577
-549
-518
-488
-463
-445
-436
-439
-452
-474
-503
-534
-565
-592
-611
-620
-617
-602
-578
-546
-510
-474
-442
-419
-406
-406
-417
-438
-464
-492
-517
-534
-540
-535
-519
-493
-462
-429
-401
-380
-369
-371
-385
-409
-439
-471
-501
-524
-537
-539
-529
-509
-482
-453
-424
-401
-386
-382
-388
-404
-426
-450
-473
-491
-499
-497
-485
-463
-436
-408
-381
-360
-348
-346
-353
-370
-391
-415
-438
-457
-469
-472
-467
-453
-432
-407
-381
-355
-334
-319
-312
-314
-323
-339
-358
-378
-395
-406
-409
-404
-390
-368
-343
-316
-292
-272
-260
-255
-258
-266
-276
-286
-294
-296
-291
-278
-259
-233
-204
-172
-142
-115
-94
-80
-73
-75
-83
-96
-112
-126
-137
-140
-135
-120
-96
-64
-27
11
47
76
97
109
111
105
94
80
68
61
61
69
85
109
137
167
196
221
238
248
249
242
230
215
200
190
185
190
203
225
254
287
320
350
374
387
389
380
359
331
299
266
239
219
211
214
229
252
279
306
327
339
338
323
294
255
210
165
123
91
70
63
69
84
106
128
146
157
158
146
124
93
57
19
-17
-46
-66
-76
-76
-67
-52
-33
-15
-2
5
4
-8
-29
-57
-91
-126
-160
-188
-209
-219
-219
-208
-188
-161
-132
-105
-82
-69
-68
-80
-104
-140
-183
-230
-277
-317
-349
-370
-378
-376
-364
-348
-330
-314
-304
-301
-305
-316
-331
-346
-360
-368
-369
-362
-347
-327
-303
-280
-260
-246
-240
-244
-257
-276
-299
-323
-344
-359
-364
-358
-343
-318
-288
-257
-228
-207
-196
-196
-208
-230
-259
-290
-318
-340
-353
-354
-345
-325
-299
-270
-243
-220
-204
-199
-204
-219
-242
-271
-302
-332
-357
-374
-381
-378
-364
-340
-310
-277
-246
-221
-205
-201
-210
-231
-261
-297
-333
-365
-389
-401
-400
-387
-364
-335
-304
-277
-256
-246
-247
-260
-281
-308
-337
-362
-380
-389
-387
-374
-352
-325
-297
-271
-252
-242
-243
-255
-275
-301
-330
-357
-380
-396
-403
-400
-389
-370
-348
-324
-302
-285
-275
-273
-280
-295
-316
-340
-363
-382
-394
-397
-389
-373
-349
-322
-294
-270
-254
-248
-253
-269
-293
-323
-353
-380
-401
-411
-411
-400
-380
-353
-324
-295
-272
-256
-251
-256
-271
-294
-322
-351
-377
-396
-406
-406
-394
-374
-348
-318
-291
-268
-254
-250
-256
-271
-293
-319
-345
-368
-384
-392
-392
-383
-368
-350
-330
-312
-298
-291
-290
-296
-307
-322
-338
-352
-361
-365
-361
-350
-334
-313
-291
-270
-255
-246
-245
-253
-269
-291
-316
-341
-364
-381
-391
-393
-386
-373
-356
-336
-318
-304
-296
-295
-301
-313
-329
-346
-360
-368
-369
-361
-345
-323
-298
-273
-252
-239
-236
-244
-263
-290
-322
-355
-385
-408
-421
-423
-413
-393
-366
-335
-305
-280
-263
-256
-261
-278
-303
-334
-368
-400
-426
-442
-448
-442
-425
-400
-370
-339
-312
-292
-282
-284
-296
-316
-343
-371
-398
-417
-427
-426
-413
-389
-358
-323
-289
-260
-241
-233
-239
-256
-283
-317
-351
-383
-407
-421
-423
-414
-395
-371
-345
-321
-304
-297
-301
-316
-341
-372
-404
-435
-459
-473
-475
-465
-443
-413
-377
-341
-307
-281
-265
-261
-269
-287
-312
-342
-370
-394
-409
-414
-408
-392
-369
-342
-315
-293
-279
-276
-283
-299
-321
-348
-373
-393
-406
-409
-402
-387
-365
-339
-314
-293
-278
-271
-274
-285
-302
-323
-343
-359
-367
-365
-351
-326
-291
-251
-208
-167
-132
-104
-84
-73
-69
-69
-71
-72
-70
-65
-56
-44
-30
-15
1
15
27
37
43
46
45
40
31
18
4
-9
-18
-21
-17
-5
16
42
71
100
124
141
148
145
133
115
94
73
58
49
50
60
78
103
130
158
181
198
205
202
189
167
139
109
79
55
39
33
37
50
70
91
110
120
120
105
76
33
-20
-80
-140
-197
-246
-282
-305
-313
-309
-295
-274
-252
-232
-218
-212
-215
-229
-250
-276
-305
-331
-351
-363
-364
-355
-337
-314
-289
-268
-254
-251
-260
-281
-313
-350
-388
-423
-449
-463
-463
-450
-426
-393
-357
-322
-293
-273
-264
-268
-283
-307
-337
-368
-396
-416
-426
-424
-410
-386
-355
-323
-295
-273
-261
-259
-265
-275
-285
-286
-274
-244
-193
-121
-29
80
201
329
462
598
737
882
1035
1201
1386
1592
1824
2080
2361
2662
2977
3299
3620
3927
4211
4460
4662
4806
4882
4881
4799
4635
4392
4077
3703
3287
2850
2411
1992
1609
1277
1001
785
624
507
425
364
311
259
201
136
65
-8
-76
-134
-179
-209
-225
-230
-229
-227
-229
-240
-260
-290
-328
-369
-410
-446
-473
-490
-494
-488
-474
-456
-438
-424
-418
-422
-436
-460
-491
-526
-560
-590
-613
-625
-627
-619
-602
-580
-556
-535
-519
-512
-513
-524
-542
-566
-591
-615
-633
-644
-645
-636
-617
-592
-562
-532
-506
-487
-478
-479
-491
-511
-538
-566
-593
-614
-626
-629
-621
-605
-583
-559
-536
-517
-505
-503
-509
-523
-543
-565
-586
-603
-613
-616
-611
-598
-580
-559
-538
-519
-505
-499
-500
-508
-524
-544
-566
-588
-605
-617
-619
-613
-597
-574
-546
-516
-489
-468
-456
-454
-462
-478
-501
-526
-549
-567
-576
-575
-563
-543
-516
-487
-459
-435
-419
-413
-416
-430
-451
-477
-504
-530
-551
-565
-569
-564
-549
-526
-498
-467
-439
-414
-397
-389
-390
-398
-413
-430
-446
-458
-462
-458
-444
-422
-394
-364
-336
-314
-301
-299
-309
-328
-354
-384
-412
-434
-446
-446
-432
-404
-367
-322
-275
-232
-194
-167
-151
-147
-151
-161
-173
-184
-188
-184
-171
-148
-118
-82
-45
-10
19
39
50
51
43
29
11
-5
-16
-19
-11
9
40
81
128
176
222
260
287
302
304
294
276
254
231
212
202
202
213
235
263
295
327
355
374
383
382
371
352
329
306
286
274
270
277
293
316
344
372
397
417
427
427
417
398
372
342
311
282
260
245
240
243
254
269
287
302
312
315
308
291
266
233
197
160
127
99
79
68
66
72
82
94
105
111
109
99
78
49
12
-29
-69
-106
-135
-154
-161
-158
-146
-130
-114
-102
-98
-105
-124
-153
-188
-227
-263
-294
-314
-323
-321
-307
-285
-259
-231
-206
-187
-176
-174
-181
-198
-221
-250
-280
-310
-336
-355
-365
-366
-358
-342
-322
-300
-282
-270
-267
-273
-288
-310
-334
-357
-374
-382
-379
-365
-341
-310
-276
-244
-216
-196
-186
-186
-195
-211
-230
-251
-271
-288
-299
-304
-302
-296
-284
-270
-256
-244
-237
-237
-245
-261
-284
-311
-339
-362
-376
-379
-367
-341
-304
-260
-215
-176
-148
-137
-144
-169
-209
-257
-307
-351
-384
-401
-401
-383
-351
-311
-268
-228
-196
-176
-170
-178
-197
-224
-255
-285
-310
-327
-334
-331
-319
-301
-278
-256
-238
-226
-223
-229
-242
-262
-284
-305
-322
-333
-335
-327
-312
-289
-262
-233
-204
-179
-158
-144
-138
-139
-147
-161
-180
-203
-226
-248
-266
-278
-284
-283
-276
-265
-251
-239
-229
-224
-224
-229
-239
-250
-260
-266
-268
-265
-256
-243
-229
-215
-204
-198
-198
-203
-212
-226
-240
-254
-266
-274
-277
-274
-266
-252
-233
-212
-189
-167
-148
-135
-129
-132
-143
-161
-184
-209
-232
-249
-258
-257
-246
-228
-204
-180
-161
-150
-150
-162
-186
-220
-259
-298
-333
-361
-378
-382
-375
-357
-332
-304
-275
-250
-232
-221
-219
-224
-236
-251
-267
-281
-290
-294
-291
-281
-266
-247
-228
-210
-196
-187
-184
-186
-194
-207
-221
-236
-250
-261
-268
-270
-267
-259
-247
-232
-216
-200
-188
-180
-180
-185
-197
-214
-231
-247
-259
-263
-259
-246
-227
-205
-183
-166
-156
-157
-168
-188
-215
-243
-269
-289
-300
-299
-288
-267
-241
-213
-188
-169
-160
-160
-171
-191
-216
-244
-270
-291
-305
-309
-304
-290
-268
-243
-217
-195
-179
-172
-176
-189
-210
-238
-267
-294
-314
-325
-325
-312
-289
-258
-222
-186
-155
-133
-121
-122
-135
-157
-185
-215
-243
-264
-276
-277
-267
-248
-223
-195
-168
-147
-133
-130
-137
-154
-179
-208
-238
-263
-281
-288
-283
-264
-234
-195
-151
-107
-69
-42
-29
-32
-52
-88
-134
-187
-238
-283
-316
-333
-334
-320
-292
-256
-218
-181
-151
-129
-117
-114
-117
-122
-126
-124
-114
-94
-65
-28
14
57
97
129
150
158
152
134
106
73
40
13
-3
-4
11
41
85
137
190
238
276
298
304
293
268
235
200
168
145
134
136
150
173
201
228
251
267
275
274
267
256
244
233
227
225
230
239
253
269
286
302
314
321
321
312
294
265
227
180
129
76
26
-17
-49
-69
-76
-71
-56
-36
-15
1
7
2
-16
-46
-84
-127
-168
-203
-228
-240
-239
-227
-206
-182
-160
-145
-139
-147
-166
-196
-233
-273
-311
-344
-369
-383
-386
-380
-367
-349
-328
-309
-293
-282
-277
-280
-288
-301
-317
-335
-351
-365
-373
-374
-368
-354
-334
-309
-282
-255
-233
-217
-209
-211
-222
-241
-266
-291
-314
-330
-334
-322
-292
-244
-178
-97
-5
94
197
299
401
505
613
732
870
1035
1232
1466
1739
2048
2386
2744
3112
3477
3827
4152
4445
4699
4911
5076
5193
5257
5263
5205
5077
4876
4598
4249
3835
3371
2877
2374
1889
1442
1054
736
494
327
226
177
164
171
183
188
179
153
110
54
-11
-80
-146
-206
-255
-291
-315
-325
-324
-315
-300
-285
-274
-270
-276
-295
-326
-368
-417
-468
-518
-560
-592
-612
-618
-611
-593
-568
-540
-512
-488
-469
-460
-460
-470
-490
-516
-547
-579
-607
-630
-642
-644
-634
-614
-588
-560
-535
-518
-511
-517
-534
-562
-594
-627
-655
-674
-683
-680
-666
-643
-617
-589
-565
-546
-536
-534
-540
-553
-572
-593
-615
-635
-650
-658
-656
-646
-626
-598
-566
-532
-503
-482
-472
-475
-491
-518
-551
-586
-617
-638
-646
-640
-620
-590
-554
-519
-490
-472
-468
-479
-501
-532
-566
-597
-620
-629
-623
-602
-566
-522
-473
-428
-392
-370
-365
-380
-413
-459
-513
-569
-620
-659
-682
-686
-670
-638
-592
-539
-484
-434
-392
-364
-351
-352
-365
-389
-418
-448
-474
-492
-500
-497
-481
-456
-425
-390
-357
-329
-309
-299
-300
-310
-327
-346
-363
-374
-374
-363
-339
-303
-259
-211
-164
-123
-92
-75
-74
-87
-113
-149
-190
-230
-265
-290
-302
-301
-286
-259
-224
-184
-143
-106
-76
-53
-40
-34
-34
-37
-40
-40
-34
-20
2
33
69
109
149
184
213
231
239
237
226
212
197
187
185
195
217
250
292
338
383
421
450
465
467
456
437
412
388
368
356
356
366
386
414
447
480
510
534
549
554
548
534
512
487
461
438
422
415
417
429
447
470
492
509
518
516
502
477
443
404
363
325
295
273
263
262
270
283
297
310
317
315
304
281
250
210
167
122
80
44
17
0
-6
-3
6
18
29
35
33
21
-2
-34
-72
-113
-153
-187
-213
-228
-232
-225
-210
-189
-166
-145
-130
-121
-122
-133
-153
-180
-212
-244
-272
-293
-302
-298
-280
-250
-212
-171
-133
-105
-92
-99
-126
-172
-231
-298
-364
-420
-460
-478
-473
-448
-405
-353
-299
-250
-214
-193
-191
-204
-230
-264
-300
-332
-355
-367
-366
-353
-328
-297
-262
-228
-200
-180
-171
-175
-192
-218
-250
-284
-313
-331
-334
-320
-288
-240
-183
-124
-72
-34
-17
-25
-59
-114
-184
-260
-331
-390
-429
-443
-434
-404
-359
-307
-256
-213
-183
-169
-171
-186
-210
-237
-264
-284
-296
-296
-285
-264
-237
-205
-175
-148
-129
-120
-121
-133
-153
-180
-208
-234
-255
-267
-268
-258
-238
-210
-178
-145
-117
-96
-85
-85
-97
-118
-145
-175
-203
-226
-241
-245
-239
-223
-199
-171
-142
-116
-96
-84
-81
-86
-98
-115
-134
-152
-168
-178
-184
-185
-181
-175
-169
-164
-162
-165
-172
-184
-199
-215
-230
-243
-252
-254
-250
-240
-225
-207
-188
-171
-157
-150
-148
-154
-165
-180
-196
-211
-221
-225
-221
-210
-191
-166
-139
-112
-89
-73
-65
-69
-82
-103
-130
-159
-186
-208
-221
-225
-219
-204
-183
-160
-139
-123
-115
-116
-128
-147
-172
-200
-227
-249
-263
-269
-265
-253
-234
-212
-188
-166
-149
-138
-135
-139
-151
-168
-188
-208
-226
-237
-241
-236
-222
-200
-172
-143
-117
-98
-90
-94
-113
-144
-183
-226
-267
-301
-322
-329
-319
-295
-261
-221
-181
-146
-121
-109
-110
-123
-146
-175
-205
-231
-251
-261
-261
-251
-234
-212
-189
-168
-152
-144
-143
-152
-167
-187
-210
-232
-250
-264
-270
-267
-257
-239
-214
-185
-154
-123
-95
-72
-58
-53
-59
-76
-101
-133
-167
-201
-231
-253
-265
-268
-261
-248
-232
-216
-205
-201
-205
-216
-233
-253
-272
-287
-293
-291
-278
-258
-232
-204
-179
-159
-149
-148
-158
-176
-199
-224
-247
-264
-272
-269
-254
-229
-197
-160
-123
-89
-62
-45
-38
-41
-54
-74
-96
-118
-136
-146
-147
-137
-115
-85
-47
-7
32
67
92
106
106
95
74
46
17
-8
-26
-32
-24
-3
28
66
105
140
166
178
178
165
143
118
96
82
81
95
125
168
220
274
325
366
393
404
398
378
345
307
267
232
205
190
188
198
219
248
280
312
339
357
364
359
341
314
280
244
211
186
171
169
179
198
223
248
267
276
272
252
219
174
125
74
30
-5
-27
-36
-34
-22
-8
5
11
8
-8
-35
-73
-118
-166
-213
-256
-290
-313
-324
-324
-313
-295
-271
-246
-223
-204
-192
-189
-195
-211
-234
-262
-291
-317
-337
-348
-348
-337
-315
-287
-254
-224
-199
-184
-182
-193
-215
-246
-281
-314
-339
-354
-354
-340
-314
-281
-246
-216
-198
-195
-210
-240
-282
-329
-371
-398
-402
-375
-312
-213
-79
83
267
466
672
880
1088
1297
1510
1734
1974
2238
2531
2854
3206
3582
3974
4368
4751
5109
5426
5688
5883
6001
6033
5976
5826
5586
5263
4865
4406
3906
3384
2863
2363
1905
1504
1169
904
705
565
470
406
360
319
276
227
172
115
59
11
-27
-52
-67
-75
-80
-89
-104
-130
-167
-212
-261
-311
-354
-389
-411
-420
-418
-407
-393
-380
-372
-372
-384
-406
-437
-474
-513
-550
-580
-601
-609
-604
-587
-561
-529
-497
-470
-452
-446
-455
-480
-517
-563
-613
-661
-701
-729
-741
-736
-716
-684
-645
-604
-567
-540
-525
-524
-536
-558
-587
-619
-647
-668
-680
-681
-670
-650
-624
-595
-568
-545
-531
-526
-531
-545
-565
-589
-612
-632
-644
-647
-639
-621
-596
-565
-533
-503
-478
-462
-455
-458
-469
-488
-511
-535
-558
-577
-591
-599
-600
-595
-587
-576
-564
-554
-549
-548
-553
-564
-579
-597
-614
-628
-635
-632
-619
-596
-564
-526
-487
-451
-423
-407
-404
-414
-435
-465
-497
-528
-551
-564
-563
-549
-524
-489
-451
-414
-381
-358
-345
-344
-351
-365
-381
-394
-401
-398
-384
-359
-327
-291
-257
-229
-211
-206
-216
-238
-270
-307
-343
-374
-394
-402
-397
-378
-348
-309
-267
-223
-183
-148
-121
-101
-90
-87
-89
-96
-105
-113
-118
-116
-108
-91
-66
-34
2
40
76
106
129
143
148
146
139
132
128
130
142
164
195
235
279
324
365
398
420
432
432
423
408
392
379
373
376
390
413
446
483
521
555
583
602
611
609
598
582
564
546
533
527
530
541
561
587
617
649
678
702
718
725
721
706
682
650
614
576
541
511
489
476
471
475
483
494
503
508
506
495
477
453
424
394
366
342
323
310
302
298
295
291
283
269
249
222
188
150
109
68
31
-2
-28
-45
-53
-53
-46
-35
-23
-14
-11
-15
-30
-53
-84
-119
-154
-184
-206
-216
-213
-199
-176
-150
-124
-105
-96
-100
-116
-144
-179
-216
-251
-278
-295
-300
-295
-281
-263
-245
-229
-220
-218
-224
-237
-255
-275
-294
-311
-324
-331
-332
-329
-322
-313
-303
-294
-287
-284
-284
-289
-299
-312
-326
-341
-355
-364
-368
-366
-355
-337
-314
-286
-256
-228
-205
-188
-179
-179
-187
-203
-223
-244
-265
-281
-290
-292
-285
-270
-248
-222
-196
-171
-152
-141
-139
-147
-164
-187
-214
-239
-259
-270
-270
-257
-232
-199
-162
-126
-95
-75
-68
-74
-94
-122
-156
-189
-216
-234
-239
-230
-209
-178
-142
-104
-71
-46
-33
-34
-47
-72
-105
-143
-180
-213
-236
-249
-249
-237
-216
-189
-159
-132
-110
-95
-90
-93
-104
-119
-136
-151
-161
-165
-162
-152
-137
-120
-103
-90
-83
-85
-96
-115
-142
-173
-204
-231
-252
-264
-264
-253
-232
-205
-175
-146
-122
-107
-101
-107
-123
-146
-173
-201
-226
-245
-255
-255
-246
-229
-207
-183
-160
-142
-132
-131
-141
-160
-187
-219
-251
-278
-297
-305
-299
-279
-248
-209
-167
-127
-96
-76
-72
-84
-110
-145
-187
-227
-262
-287
-299
-297
-284
-261
-234
-206
-180
-161
-151
-149
-155
-168
-185
-204
-222
-236
-244
-245
-239
-226
-206
-184
-162
-142
-129
-125
-132
-150
-177
-210
-245
-277
-302
-315
-316
-304
-281
-252
-221
-193
-173
-163
-165
-178
-199
-224
-250
-272
-286
-290
-284
-269
-245
-217
-188
-161
-140
-127
-124
-132
-149
-174
-203
-233
-260
-281
-292
-292
-280
-258
-228
-194
-161
-133
-114
-107
-112
-128
-153
-183
-213
-238
-255
-258
-249
-226
-193
-153
-111
-73
-43
-24
-18
-25
-42
-67
-94
-118
-134
-140
-131
-108
-72
-27
24
76
123
161
186
195
189
169
138
101
63
31
8
-1
4
23
54
92
131
166
192
206
207
196
176
152
128
110
101
102
114
134
159
185
209
227
236
238
232
220
205
189
176
167
164
166
175
188
205
223
241
256
267
272
270
260
243
220
191
160
130
102
79
64
56
56
62
71
80
85
84
73
53
23
-15
-57
-100
-138
-168
-188
-196
-192
-180
-161
-140
-121
-108
-103
-108
-124
-149
-181
-218
-254
-288
-315
-334
-342
-340
-329
-311
-290
-269
-253
-244
-245
-257
-279
-309
-342
-375
-402
-422
-430
-427
-413
-389
-361
-330
-303
-281
-268
-264
-271
-286
-308
-333
-358
-379
-393
-398
-390
-368
-333
-285
-225
-155
-78
6
95
191
294
409
541
696
880
1100
1359
1660
2001
2379
2784
3207
3636
4058
4462
4836
5172
5465
5708
5899
6034
6109
6120
6061
5925
5710
5411
5033
4583
4074
3527
2966
2417
1907
1456
1084
798
600
481
427
419
437
461
476
469
437
379
301
210
117
30
-44
-101
-138
-156
-159
-152
-140
-128
-121
-123
-136
-161
-198
-246
-302
-363
-424
-483
-534
-574
-601
-614
-614
-601
-580
-554
-528
-506
-491
-487
-493
-510
-536
-566
-596
-624
-645
-657
-658
-649
-631
-607
-580
-555
-534
-520
-515
-520
-532
-552
-575
-598
-620
-635
-643
-643
-633
-615
-591
-564
-538
-517
-502
-497
-503
-519
-543
-572
-602
-628
-647
-657
-655
-642
-621
-594
-567
-543
-526
-519
-523
-538
-560
-588
-615
-639
-656
-662
-657
-640
-614
-581
-545
-510
-479
-455
-441
-436
-440
-451
-468
-486
-503
-517
-526
-529
-526
-518
-506
-493
-482
-473
-468
-469
-475
-486
-499
-514
-527
-537
-541
-538
-526
-507
-482
-453
-424
-398
-378
-366
-365
-373
-390
-411
-434
-455
-469
-474
-468
-451
-425
-393
-357
-322
-291
-266
-250
-244
-246
-256
-270
-287
-302
-315
-321
-320
-311
-296
-274
-248
-221
-196
-175
-160
-152
-151
-154
-160
-167
-170
-168
-159
-142
-119
-91
-60
-31
-5
16
30
37
38
36
33
31
35
44
61
85
115
150
187
224
259
288
311
327
336
339
336
331
325
321
321
328
342
364
393
428
466
505
542
572
595
608
610
602
588
569
549
533
524
524
534
553
578
607
635
659
674
679
674
660
639
614
590
569
556
551
555
566
584
604
623
637
645
644
633
614
588
558
527
497
472
453
440
432
429
427
424
417
404
383
354
317
274
228
180
135
95
62
38
24
19
22
30
40
49
54
53
43
24
-2
-34
-69
-102
-131
-151
-161
-160
-149
-130
-106
-81
-58
-42
-34
-37
-50
-72
-101
-133
-165
-194
-217
-233
-241
-242
-237
-228
-218
-211
-208
-212
-223
-240
-263
-288
-313
-333
-347
-351
-345
-330
-308
-281
-255
-232
-218
-213
-220
-238
-264
-294
-325
-351
-368
-374
-368
-351
-323
-290
-255
-222
-196
-179
-173
-179
-194
-218
-247
-278
-305
-326
-338
-339
-330
-312
-287
-258
-230
-207
-191
-184
-188
-200
-220
-243
-266
-285
-297
-301
-295
-279
-256
-228
-198
-169
-144
-125
-115
-114
-121
-135
-155
-177
-200
-219
-234
-242
-243
-237
-227
-215
-202
-193
-189
-192
-201
-216
-234
-252
-267
-276
-275
-264
-244
-218
-187
-157
-131
-113
-106
-110
-125
-148
-176
-204
-228
-244
-249
-243
-225
-197
-164
-128
-95
-69
-53
-49
-58
-78
-108
-144
-181
-216
-245
-263
-271
-266
-251
-229
-202
-175
-152
-137
-130
-133
-145
-164
-185
-207
-224
-235
-238
-232
-219
-200
-179
-160
-145
-137
-138
-148
-166
-189
-213
-236
-252
-258
-254
-238
-212
-179
-143
-110
-84
-70
-71
-88
-119
-161
-211
-261
-307
-342
-365
-372
-365
-346
-318
-287
-256
-231
-214
-207
-209
-220
-237
-257
-277
-293
-303
-306
-302
-290
-274
-254
-233
-213
-197
-186
-181
-183
-190
-203
-218
-234
-248
-258
-263
-260
-251
-236
-218
-199
-183
-171
-169
-176
-193
-218
-250
-285
-318
-344
-361
-365
-355
-333
-301
-264
-226
-193
-169
-157
-160
-176
-204
-240
-278
-313
-342
-358
-362
-352
-329
-297
-261
-225
-194
-172
-161
-163
-177
-200
-230
-262
-293
-318
-335
-343
-340
-327
-307
-283
-256
-231
-210
-196
-191
-195
-206
-225
-246
-268
-287
-299
-303
-297
-281
-258
-231
-202
-176
-157
-145
-142
-147
-158
-171
-184
-192
-194
-186
-170
-147
-119
-89
-60
-35
-16
-5
-2
-5
-13
-23
-32
-37
-37
-31
-17
3
27
53
78
98
111
114
108
93
70
44
16
-7
-23
-28
-21
-3
27
64
104
143
176
199
210
207
190
163
128
91
57
31
16
15
29
56
93
135
177
214
241
254
254
239
212
179
144
112
88
75
75
87
108
134
159
177
184
175
149
107
52
-11
-75
-136
-185
-220
-236
-235
-217
-188
-152
-117
-87
-69
-65
-77
-104
-144
-192
-242
-290
-331
-361
-378
-380
-370
-351
-326
-301
-280
-266
-263
-272
-291
-318
-350
-382
-410
-430
-438
-435
-420
-395
-365
-332
-302
-279
-266
-264
-273
-293
-320
-350
-379
-403
-420
-427
-424
-413
-396
-378
-363
-353
-350
-354
-363
-372
-377
-369
-345
-297
-222
-120
9
163
337
529
736
954
1184
1428
1686
1962
2257
2574
2912
3269
3641
4022
4403
4777
5132
5458
5741
5971
6133
6217
6211
6109
5905
5602
5205
4730
4195
3626
3050
2496
1990
1554
1200
935
754
645
590
569
560
544
510
449
364
260
147
38
-56
-129
-175
-197
-198
-187
-173
-164
-167
-185
-219
-266
-320
-377
-430
-475
-508
-528
-537
-538
-532
-525
-519
-517
-522
-533
-550
-572
-598
-624
-650
-673
-690
-700
-704
-701
-691
-678
-664
-650
-640
-636
-638
-648
-664
-685
-707
-729
-746
-756
-758
-751
-735
-713
-687
-662
-639
-623
-615
-617
-627
-645
-666
-688
-708
-721
-725
-721
-707
-686
-660
-632
-606
-583
-567
-558
-557
-562
-573
-587
-603
-618
-631
-640
-645
-644
-639
-631
-620
-608
-598
-591
-590
-593
-603
-618
-636
-655
-672
-684
-689
-684
-671
-650
-624
-595
-568
-546
-532
-528
-533
-548
-569
-592
-614
-630
-637
-635
-622
-600
-573
-543
-517
-497
-486
-487
-499
-521
-548
-577
-604
-623
-633
-630
-616
-592
-559
-524
-489
-459
-437
-426
-427
-438
-457
-482
-509
-533
-550
-558
-556
-542
-518
-486
-450
-413
-378
-348
-326
-313
-309
-311
-319
-330
-341
-349
-352
-349
-338
-319
-294
-264
-233
-204
-179
-161
-151
-150
-154
-163
-171
-174
-170
-155
-129
-93
-50
-4
40
78
105
121
124
117
102
85
68
56
52
58
74
100
134
173
214
254
291
323
346
362
368
367
360
349
338
329
327
334
350
375
409
447
487
523
552
570
576
571
554
530
503
476
455
442
441
450
470
498
531
563
592
611
619
614
595
565
528
487
449
418
400
395
405
427
456
486
510
522
518
494
451
392
323
250
180
120
75
48
37
43
60
84
110
131
145
149
140
119
87
47
2
-44
-88
-127
-156
-176
-184
-183
-173
-160
-146
-137
-134
-142
-160
-189
-225
-264
-301
-333
-356
-366
-363
-349
-325
-297
-269
-246
-231
-228
-237
-256
-285
-318
-351
-379
-399
-407
-402
-384
-357
-323
-287
-255
-231
-219
-221
-236
-263
-298
-336
-372
-402
-420
-426
-418
-398
-371
-341
-311
-288
-275
-272
-279
-295
-315
-336
-352
-362
-362
-352
-333
-308
-281
-255
-235
-222
-219
-226
-241
-263
-289
-316
-341
-360
-373
-377
-372
-359
-340
-317
-291
-267
-246
-230
-222
-221
-228
-241
-258
-277
-295
-308
-314
-311
-297
-273
-240
-202
-164
-129
-102
-88
-90
-109
-141
-185
-234
-283
-324
-352
-364
-358
-336
-302
-262
-222
-188
-166
-157
-163
-181
-207
-237
-264
-285
-297
-299
-290
-274
-253
-231
-211
-196
-188
-187
-194
-208
-226
-247
-267
-285
-298
-304
-303
-294
-278
-257
-233
-209
-188
-174
-168
-171
-183
-202
-226
-251
-274
-292
-301
-301
-292
-274
-251
-226
-203
-184
-174
-172
-179
-195
-215
-238
-259
-275
-283
-281
-268
-246
-217
-185
-153
-127
-109
-103
-110
-129
-158
-193
-230
-264
-291
-307
-310
-302
-284
-259
-233
-210
-194
-187
-192
-207
-228
-252
-274
-289
-294
-286
-266
-236
-200
-163
-129
-106
-95
-100
-120
-155
-201
-253
-307
-357
-398
-426
-441
-439
-424
-397
-361
-321
-281
-247
-222
-209
-208
-221
-244
-274
-306
-336
-359
-371
-371
-357
-331
-297
-260
-223
-193
-172
-163
-168
-184
-208
-238
-267
-293
-311
-320
-318
-307
-289
-267
-245
-226
-214
-209
-213
-225
-242
-262
-280
-293
-299
-297
-285
-265
-240
-212
-185
-162
-146
-138
-139
-149
-165
-186
-208
-229
-245
-254
-255
-247
-232
-210
-183
-154
-126
-101
-82
-69
-64
-65
-71
-79
-86
-89
-88
-79
-65
-45
-23
-1
17
30
34
31
20
5
-13
-29
-41
-45
-42
-30
-10
15
44
72
99
121
137
145
145
138
125
106
85
64
44
29
20
20
28
46
72
103
137
170
198
216
223
216
196
164
125
83
44
13
-6
-12
-2
19
48
78
103
117
117
99
64
16
-40
-96
-146
-183
-204
-206
-191
-163
-127
-91
-61
-43
-42
-58
-91
-137
-192
-249
-302
-346
-377
-392
-393
-381
-361
-337
-314
-297
-290
-295
-310
-334
-364
-394
-421
-441
-451
-449
-437
-415
-386
-355
-324
-296
-275
-262
-258
-262
-274
-291
-311
-332
-351
-367
-377
-380
-378
-371
-360
-349
-341
-338
-341
-351
-367
-385
-400
-407
-400
-373
-320
-240
-131
6
167
349
546
755
974
1200
1436
1681
1941
2217
2514
2832
3171
3528
3897
4272
4640
4991
5311
5585
5799
5939
5995
5957
5819
5582
5251
4837
4357
3832
3288
2750
2243
1788
1400
1087
850
681
569
497
449
409
365
312
246
171
93
20
-42
-88
-116
-127
-125
-117
-110
-108
-117
-139
-172
-214
-261
-309
-352
-388
-416
-434
-446
-452
-457
-462
-471
-485
-504
-527
-553
-580
-606
-628
-644
-654
-655
-648
-634
-615
-594
-573
-556
-545
-542
-548
-563
-584
-608
-632
-653
-666
-670
-663
-646
-622
-594
-566
-543
-529
-527
-537
-560
-592
-630
-670
-706
-734
-752
-757
-749
-731
-704
-672
-639
-610
-586
-571
-566
-569
-580
-597
-617
-636
-651
-660
-660
-652
-636
-613
-585
-556
-529
-508
-495
-492
-500
-518
-543
-573
-604
-632
-654
-665
-666
-655
-635
-608
-579
-552
-530
-518
-517
-527
-546
-570
-595
-615
-627
-626
-613
-587
-552
-513
-473
-439
-414
-402
-404
-419
-443
-475
-508
-540
-564
-580
-584
-576
-557
-531
-499
-467
-437
-415
-403
-403
-415
-437
-467
-500
-531
-554
-566
-563
-545
-514
-473
-426
-379
-338
-307
-288
-282
-288
-301
-319
-336
-348
-351
-343
-324
-295
-259
-218
-178
-143
-117
-102
-100
-111
-133
-161
-192
-220
-239
-246
-238
-213
-174
-124
-69
-13
37
77
103
115
114
103
86
69
57
53
61
80
110
149
193
238
280
316
342
358
363
360
353
343
336
336
344
363
391
425
463
498
526
542
545
534
509
475
437
400
370
350
344
351
370
399
433
469
501
526
542
547
543
530
511
488
465
444
428
419
416
420
429
440
451
457
457
449
431
403
367
325
279
234
192
156
130
114
110
117
132
153
175
195
207
207
193
163
118
61
-2
-66
-123
-168
-195
-203
-193
-168
-134
-98
-69
-51
-50
-67
-100
-147
-200
-254
-300
-334
-352
-354
-340
-314
-281
-247
-215
-190
-174
-170
-176
-191
-214
-241
-269
-295
-316
-330
-334
-329
-315
-294
-269
-244
-224
-212
-212
-225
-250
-286
-327
-367
-402
-426
-437
-434
-418
-392
-362
-332
-307
-291
-284
-288
-299
-315
-332
-348
-358
-362
-358
-348
-333
-314
-295
-278
-263
-254
-251
-254
-264
-278
-294
-312
-328
-339
-344
-343
-333
-318
-297
-274
-251
-232
-218
-211
-212
-220
-233
-251
-269
-285
-297
-302
-300
-289
-272
-249
-223
-198
-177
-163
-160
-169
-190
-221
-259
-301
-341
-374
-395
-402
-393
-370
-334
-291
-248
-209
-181
-168
-172
-192
-224
-264
-305
-341
-367
-378
-374
-356
-326
-290
-254
-224
-205
-198
-204
-222
-248
-277
-305
-327
-340
-341
-331
-311
-284
-254
-224
-199
-180
-171
-171
-180
-196
-217
-239
-260
-276
-285
-287
-280
-265
-246
-223
-202
-184
-173
-170
-177
-192
-215
-242
-272
-299
-322
-336
-340
-332
-315
-288
-257
-223
-193
-169
-156
-155
-168
-191
-223
-258
-292
-318
-334
-336
-324
-300
-267
-230
-194
-165
-146
-140
-147
-165
-192
-223
-254
-281
-300
-311
-312
-304
-291
-274
-257
-244
-237
-237
-245
-259
-278
-300
-320
-337
-347
-349
-343
-329
-309
-285
-261
-238
-221
-209
-205
-209
-218
-233
-250
-269
-286
-299
-309
-312
-311
-303
-291
-277
-262
-249
-240
-237
-241
-253
-271
-293
-316
-336
-350
-355
-350
-334
-309
-279
-248
-219
-198
-188
-189
-201
-222
-249
-277
-303
-322
-333
-334
-327
-313
-295
-275
-258
-244
-234
-231
-231
-235
-241
-245
-248
-246
-239
-226
-209
-186
-160
-132
-102
-74
-49
-27
-12
-2
0
-4
-14
-29
-45
-61
-74
-83
-85
-81
-70
-54
-34
-12
10
28
43
52
56
56
52
48
44
42
44
50
59
72
85
98
106
109
105
92
72
46
17
-11
-34
-48
-51
-41
-18
15
54
96
133
162
179
182
169
145
112
74
38
8
-13
-23
-23
-14
0
14
24
25
16
-6
-39
-80
-125
-170
-210
-240
-257
-260
-248
-226
-197
-165
-137
-118
-111
-118
-140
-174
-217
-265
-312
-352
-381
-397
-399
-387
-365
-337
-308
-283
-266
-261
-268
-287
-316
-352
-389
-425
-454
-473
-480
-476
-461
-438
-410
-382
-357
-340
-332
-334
-345
-364
-386
-408
-426
-436
-437
-428
-411
-388
-363
-339
-320
-307
-301
-300
-300
-297
-283
-255
-207
-137
-41
79
222
388
572
774
992
1225
1473
1736
2013
2305
2611
2929
3257
3592
3928
4261
4582
4885
5158
5391
5571
5684
5719
5664
5514
5266
4925
4502
4015
3486
2942
2412
1921
1490
1135
861
666
540
469
434
415
396
365
315
246
161
68
-23
-104
-168
-211
-232
-235
-226
-211
-197
-191
-197
-217
-250
-293
-343
-394
-439
-475
-498
-506
-500
-482
-456
-429
-405
-390
-388
-402
-432
-476
-531
-590
-647
-697
-734
-754
-757
-743
-717
-681
-643
-608
-579
-562
-556
-562
-579
-601
-626
-650
-667
-676
-675
-664
-644
-619
-591
-564
-543
-531
-529
-538
-558
-586
-619
-654
-687
-713
-729
-735
-728
-710
-682
-648
-612
-579
-552
-535
-530
-538
-558
-587
-622
-658
-690
-714
-727
-728
-716
-694
-665
-632
-601
-575
-558
-551
-554
-566
-583
-603
-622
-635
-642
-639
-628
-610
-587
-564
-544
-531
-527
-533
-550
-575
-605
-637
-665
-685
-694
-689
-671
-642
-604
-561
-520
-484
-458
-444
-443
-455
-476
-502
-530
-555
-573
-581
-579
-566
-544
-516
-486
-457
-432
-416
-409
-412
-425
-445
-470
-496
-520
-537
-544
-540
-524
-497
-463
-424
-385
-352
-326
-312
-310
-319
-337
-360
-383
-402
-414
-414
-403
-380
-348
-309
-266
-224
-187
-158
-137
-127
-126
-134
-146
-159
-170
-175
-171
-156
-129
-93
-50
-3
43
83
114
132
137
130
115
96
78
65
63
74
97
132
174
218
259
293
315
323
319
304
283
260
241
230
231
245
272
309
353
398
441
477
503
518
520
512
497
476
455
436
421
413
413
419
430
446
463
478
489
494
489
475
451
418
379
337
296
260
232
216
212
219
235
256
276
291
295
288
267
234
193
148
104
66
38
21
15
19
30
43
54
58
54
40
15
-19
-58
-101
-142
-177
-205
-222
-228
-224
-211
-193
-174
-158
-149
-149
-159
-179
-207
-240
-274
-304
-327
-340
-342
-333
-316
-294
-270
-247
-229
-219
-217
-223
-236
-255
-276
-298
-318
-333
-341
-343
-337
-324
-306
-285
-264
-245
-233
-229
-235
-252
-279
-314
-353
-391
-423
-445
-452
-445
-421
-384
-339
-291
-246
-210
-189
-184
-197
-225
-263
-307
-349
-384
-407
-414
-407
-386
-355
-319
-285
-257
-239
-234
-241
-259
-284
-312
-337
-357
-367
-366
-355
-335
-309
-282
-257
-238
-227
-227
-237
-255
-279
-306
-332
-353
-368
-373
-368
-354
-332
-305
-277
-250
-229
-215
-211
-218
-233
-257
-284
-312
-338
-358
-370
-371
-363
-346
-322
-294
-268
-245
-229
-223
-228
-241
-262
-288
-313
-334
-348
-351
-343
-323
-296
-265
-234
-208
-191
-186
-195
-215
-245
-280
-315
-346
-369
-381
-380
-367
-345
-315
-283
-252
-228
-213
-210
-219
-239
-268
-303
-337
-368
-391
-402
-399
-381
-352
-314
-272
-232
-198
-177
-169
-177
-199
-232
-272
-313
-349
-376
-390
-390
-377
-352
-320
-285
-252
-225
-208
-202
-207
-222
-244
-270
-295
-316
-329
-332
-325
-309
-287
-261
-237
-218
-207
-207
-218
-239
-268
-300
-333
-360
-379
-387
-383
-367
-342
-311
-277
-245
-219
-201
-194
-198
-212
-234
-260
-287
-311
-329
-338
-337
-328
-313
-293
-272
-254
-241
-236
-239
-250
-267
-288
-310
-330
-345
-354
-356
-350
-338
-323
-305
-290
-278
-273
-276
-285
-302
-322
-344
-364
-379
-387
-386
-375
-355
-330
-300
-271
-247
-229
-220
-223
-236
-257
-285
-316
-345
-370
-387
-393
-387
-371
-345
-313
-277
-242
-213
-191
-179
-179
-188
-205
-226
-247
-263
-271
-267
-250
-222
-183
-139
-93
-51
-17
5
13
7
-11
-40
-74
-109
-139
-161
-171
-167
-150
-121
-83
-41
-1
35
61
77
80
73
58
38
18
2
-7
-7
0
15
33
50
63
69
66
54
35
10
-16
-40
-58
-67
-67
-57
-37
-11
20
54
88
120
147
168
180
181
172
150
119
79
35
-9
-50
-82
-104
-114
-114
-107
-97
-88
-85
-91
-107
-133
-166
-200
-233
-258
-273
-275
-265
-246
-221
-196
-175
-162
-162
-175
-201
-238
-282
-330
-376
-415
-444
-460
-463
-452
-431
-402
-371
-342
-320
-307
-305
-316
-336
-364
-394
-423
-446
-461
-465
-459
-443
-423
-400
-379
-364
-356
-358
-369
-386
-408
-431
-452
-467
-476
-477
-471
-457
-437
-411
-381
-347
-309
-266
-218
-164
-101
-29
55
154
271
410
576
771
998
1257
1547
1866
2206
2562
2926
3289
3645
3987
4311
4614
4890
5137
5349
5517
5634
5687
5666
5562
5367
5081
4708
4261
3758
3223
2684
2167
1699
1298
977
740
583
493
455
448
454
455
439
399
335
248
148
42
-61
-151
-224
-275
-305
-316
-313
-299
-282
-267
-259
-261
-274
-301
-338
-384
-436
-489
-540
-583
-617
-639
-649
-648
-639
-623
-606
-591
-580
-575
-577
-586
-599
-615
-632
-645
-655
-658
-656
-648
-636
-622
-610
-601
-599
-605
-619
-642
-671
-705
-740
-771
-796
-811
-814
-804
-782
-750
-712
-672
-634
-604
-584
-575
-579
-594
-616
-641
-665
-685
-695
-696
-687
-669
-646
-621
-598
-582
-574
-577
-591
-613
-641
-672
-702
-725
-741
-745
-738
-721
-694
-661
-627
-594
-568
-551
-546
-552
-569
-595
-624
-652
-676
-690
-692
-681
-658
-627
-592
-558
-531
-515
-511
-519
-538
-562
-587
-607
-618
-617
-604
-581
-552
-522
-495
-478
-472
-480
-499
-528
-563
-598
-629
-654
-670
-676
-671
-658
-637
-612
-583
-552
-522
-495
-471
-452
-440
-435
-437
-445
-457
-471
-484
-493
-496
-490
-476
-455
-429
-402
-377
-357
-345
-343
-350
-364
-382
-400
-414
-420
-416
-400
-373
-336
-294
-250
-208
-173
-147
-132
-127
-131
-142
-154
-164
-168
-163
-148
-122
-87
-44
4
51
95
132
159
174
178
171
157
138
120
105
99
104
121
150
188
233
278
319
353
376
386
385
373
355
335
316
304
299
305
321
345
375
407
439
466
485
495
495
485
465
439
410
382
358
343
338
344
362
388
418
448
471
483
482
466
436
395
349
302
261
231
213
210
219
237
258
278
290
292
279
253
214
165
111
57
8
-32
-60
-75
-76
-67
-50
-30
-10
4
9
3
-15
-43
-79
-120
-160
-196
-222
-238
-240
-230
-210
-184
-156
-132
-116
-112
-121
-143
-178
-220
-266
-310
-349
-377
-393
-395
-385
-364
-336
-305
-275
-250
-234
-227
-232
-248
-272
-302
-334
-364
-389
-404
-410
-404
-387
-362
-333
-304
-279
-262
-256
-262
-278
-303
-332
-361
-385
-400
-403
-393
-372
-341
-305
-269
-236
-212
-199
-199
-213
-237
-270
-306
-340
-369
-388
-394
-388
-371
-345
-315
-285
-261
-245
-240
-245
-260
-280
-301
-320
-332
-334
-326
-309
-286
-260
-237
-220
-213
-217
-231
-255
-284
-315
-343
-365
-378
-380
-372
-354
-329
-300
-271
-246
-228
-218
-219
-230
-249
-275
-303
-331
-355
-372
-378
-373
-358
-333
-302
-269
-238
-213
-197
-193
-201
-220
-246
-277
-307
-332
-348
-352
-345
-327
-301
-270
-239
-212
-192
-183
-184
-195
-214
-237
-262
-284
-300
-308
-307
-298
-281
-260
-238
-218
-203
-196
-198
-207
-224
-245
-268
-290
-306
-315
-315
-305
-285
-257
-224
-188
-153
-123
-102
-92
-95
-111
-139
-177
-220
-262
-301
-329
-345
-346
-332
-307
-274
-238
-206
-181
-167
-165
-177
-198
-225
-253
-278
-295
-304
-301
-289
-271
-248
-226
-208
-197
-195
-202
-217
-238
-262
-287
-308
-322
-329
-328
-317
-300
-278
-255
-234
-217
-206
-204
-209
-220
-237
-257
-276
-292
-304
-309
-307
-299
-285
-268
-249
-232
-218
-210
-210
-217
-230
-249
-271
-292
-310
-322
-325
-319
-303
-279
-250
-220
-192
-171
-160
-160
-172
-194
-225
-260
-294
-323
-344
-353
-350
-335
-312
-282
-252
-224
-204
-194
-196
-208
-228
-254
-280
-303
-317
-320
-311
-291
-263
-230
-199
-173
-158
-156
-169
-196
-234
-277
-322
-361
-391
-407
-409
-397
-372
-340
-304
-270
-240
-218
-204
-200
-203
-211
-223
-235
-247
-257
-264
-268
-271
-271
-269
-265
-260
-253
-246
-240
-236
-236
-239
-247
-258
-270
-281
-286
-283
-269
-242
-204
-156
-104
-52
-6
28
48
52
43
23
-2
-26
-43
-50
-44
-27
-2
28
57
80
94
96
87
70
48
25
7
-4
-4
7
29
61
99
139
178
212
238
253
257
247
227
197
161
123
89
61
43
39
49
72
105
145
186
223
252
269
273
264
245
218
187
156
129
110
100
99
107
122
140
158
173
182
181
170
148
116
76
34
-8
-46
-75
-93
-99
-95
-83
-67
-52
-42
-41
-52
-75
-109
-150
-193
-235
-270
-296
-309
-311
-302
-287
-270
-254
-243
-240
-246
-261
-284
-311
-339
-366
-387
-402
-407
-403
-389
-366
-337
-305
-273
-244
-223
-214
-217
-235
-267
-309
-357
-404
-445
-472
-481
-471
-443
-399
-347
-295
-250
-221
-213
-226
-259
-306
-359
-408
-441
-450
-430
-377
-291
-176
-39
114
277
444
615
789
971
1166
1382
1626
1903
2216
2566
2947
3354
3774
4197
4609
4996
5344
5643
5881
6051
6144
6157
6085
5928
5689
5373
4989
4552
4077
3584
3094
2625
2196
1819
1501
1246
1048
900
792
710
644
584
524
460
393
323
255
190
131
77
29
-15
-57
-98
-140
-182
-222
-259
-292
-318
-337
-351
-360
-368
-378
-391
-412
-439
-472
-511
-551
-589
-623
-649
-665
-671
-667
-655
-636
-613
-591
-571
-557
-550
-552
-563
-581
-604
-630
-656
-678
-693
-698
-693
-678
-655
-625
-594
-565
-542
-529
-529
-541
-564
-596
-632
-667
-697
-718
-726
-720
-703
-675
-642
-608
-579
-557
-547
-549
-563
-587
-616
-647
-675
-696
-707
-706
-694
-673
-645
-615
-586
-563
-549
-545
-552
-569
-592
-618
-644
-666
-679
-684
-678
-663
-641
-615
-588
-565
-549
-541
-543
-554
-573
-596
-621
-644
-661
-669
-668
-655
-632
-602
-567
-531
-498
-473
-457
-453
-460
-477
-500
-526
-551
-571
-582
-583
-574
-556
-532
-505
-480
-459
-446
-443
-448
-461
-481
-503
-525
-543
-555
-557
-550
-532
-505
-472
-434
-396
-362
-333
-314
-305
-307
-318
-336
-358
-380
-398
-408
-408
-397
-377
-349
-317
-286
-259
-240
-230
-230
-238
-251
-264
-275
-278
-270
-252
-223
-186
-146
-105
-68
-38
-17
-4
3
5
7
12
23
40
65
96
130
166
200
229
252
266
273
271
263
250
235
218
204
195
193
199
215
241
276
318
363
408
449
482
505
515
513
501
481
460
440
427
424
432
452
481
515
551
583
606
619
619
606
584
555
524
495
472
457
451
455
465
480
494
506
511
508
497
476
447
412
373
334
297
264
238
221
212
211
216
226
236
244
246
241
227
204
174
140
105
73
48
32
26
28
35
44
51
52
42
21
-11
-54
-103
-155
-204
-247
-279
-299
-306
-300
-284
-260
-233
-206
-184
-169
-164
-169
-184
-206
-234
-263
-288
-306
-314
-309
-293
-268
-236
-203
-174
-153
-144
-150
-169
-200
-238
-279
-318
-349
-368
-374
-366
-346
-316
-280
-244
-212
-187
-173
-170
-179
-197
-223
-253
-282
-307
-323
-330
-326
-311
-287
-259
-228
-201
-180
-168
-168
-178
-198
-224
-253
-282
-305
-321
-328
-324
-312
-293
-270
-247
-226
-211
-204
-206
-216
-233
-254
-275
-294
-308
-314
-310
-297
-276
-249
-219
-192
-171
-158
-158
-169
-192
-222
-257
-290
-317
-334
-338
-327
-305
-274
-239
-206
-180
-166
-166
-180
-206
-240
-277
-312
-340
-357
-361
-351
-330
-299
-262
-223
-186
-156
-134
-124
-126
-140
-166
-200
-240
-279
-315
-342
-356
-357
-343
-316
-282
-243
-207
-177
-159
-154
-163
-184
-213
-244
-274
-296
-308
-308
-295
-271
-241
-206
-173
-145
-127
-119
-124
-140
-165
-195
-226
-254
-275
-286
-284
-272
-249
-220
-189
-159
-135
-120
-114
-119
-132
-152
-176
-199
-219
-234
-242
-243
-238
-227
-213
-198
-185
-176
-172
-175
-184
-197
-213
-228
-240
-246
-244
-235
-218
-196
-172
-151
-137
-131
-137
-154
-180
-211
-244
-274
-296
-307
-305
-291
-267
-237
-203
-172
-148
-133
-129
-137
-156
-183
-216
-249
-280
-304
-319
-323
-314
-295
-266
-231
-195
-161
-135
-118
-114
-124
-144
-174
-208
-243
-272
-293
-303
-301
-287
-265
-238
-211
-188
-173
-167
-172
-187
-210
-238
-267
-293
-313
-325
-327
-318
-299
-272
-240
-205
-173
-146
-128
-121
-125
-140
-164
-193
-224
-251
-272
-283
-284
-275
-259
-238
-217
-199
-187
-185
-191
-205
-225
-246
-266
-281
-289
-287
-275
-254
-227
-194
-161
-129
-102
-81
-67
-61
-62
-66
-72
-77
-77
-70
-55
-32
-3
31
66
98
122
136
136
122
96
61
22
-15
-44
-61
-61
-43
-9
38
93
149
199
237
261
267
257
233
200
164
130
103
86
81
88
104
128
154
180
202
218
226
226
219
207
191
176
163
154
152
156
167
182
199
216
230
238
239
231
215
192
164
134
103
76
53
37
27
25
28
35
42
48
48
42
26
1
-32
-71
-113
-154
-188
-212
-224
-223
-210
-188
-164
-141
-126
-123
-134
-160
-198
-245
-295
-343
-383
-412
-428
-429
-418
-397
-371
-342
-316
-294
-279
-271
-270
-275
-284
-295
-308
-319
-328
-334
-337
-337
-336
-332
-329
-327
-327
-330
-337
-348
-363
-381
-399
-418
-434
-444
-447
-441
-424
-394
-352
-298
-233
-157
-72
22
123
234
357
495
653
836
1049
1297
1583
1907
2267
2657
3070
3494
3918
4330
4719
5075
5390
5659
5877
6040
6144
6184
6156
6054
5872
5609
5266
4850
4371
3849
3306
2767
2258
1802
1416
1111
890
745
665
632
627
630
627
607
562
494
405
302
193
87
-12
-96
-165
-216
-250
-270
-278
-278
-273
-267
-263
-264
-273
-291
-319
-356
-400
-448
-496
-539
-574
-599
-611
-610
-600
-583
-562
-543
-529
-522
-524
-534
-551
-572
-593
-613
-629
-638
-641
-637
-629
-617
-605
-595
-589
-588
-594
-606
-622
-642
-662
-680
-694
-702
-701
-693
-676
-654
-628
-601
-576
-555
-541
-534
-535
-544
-557
-574
-592
-609
-623
-633
-637
-634
-627
-614
-599
-583
-569
-558
-553
-556
-565
-581
-602
-625
-647
-665
-675
-675
-665
-646
-620
-591
-562
-537
-520
-512
-515
-526
-543
-562
-580
-593
-599
-596
-585
-566
-544
-519
-497
-478
-467
-462
-466
-475
-490
-507
-524
-539
-549
-552
-548
-537
-520
-498
-475
-454
-437
-427
-425
-432
-447
-467
-490
-510
-526
-533
-529
-516
-493
-464
-433
-403
-378
-363
-358
-364
-380
-403
-429
-453
-472
-482
-479
-465
-438
-401
-358
-312
-269
-233
-206
-190
-187
-194
-209
-228
-248
-263
-271
-268
-254
-228
-194
-154
-111
-71
-37
-12
3
8
3
-8
-21
-34
-41
-40
-30
-9
21
59
102
145
186
221
248
268
279
283
283
281
281
285
294
310
334
363
397
432
465
493
514
527
529
523
510
492
474
460
453
454
466
487
515
546
577
603
620
627
622
606
582
554
525
500
483
475
478
490
511
535
560
582
597
602
597
580
554
521
484
448
415
390
373
365
366
372
381
389
392
387
374
350
318
280
237
194
153
116
85
61
44
33
27
23
21
18
14
6
-7
-23
-44
-69
-96
-124
-150
-172
-190
-200
-203
-199
-189
-175
-160
-148
-140
-139
-146
-160
-182
-207
-233
-257
-276
-287
-289
-282
-266
-245
-221
-198
-179
-167
-164
-171
-186
-207
-232
-258
-280
-295
-301
-297
-283
-261
-234
-207
-183
-166
-159
-164
-178
-202
-230
-258
-282
-298
-303
-295
-275
-247
-213
-178
-147
-124
-113
-114
-128
-152
-184
-219
-252
-280
-300
-308
-304
-290
-268
-241
-214
-191
-174
-168
-173
-187
-210
-237
-265
-290
-308
-317
-315
-305
-286
-262
-235
-210
-188
-173
-164
-163
-169
-180
-197
-215
-233
-249
-261
-267
-266
-258
-244
-225
-204
-185
-171
-163
-164
-174
-191
-212
-234
-252
-262
-262
-252
-231
-203
-172
-142
-118
-104
-100
-107
-123
-145
-169
-191
-207
-216
-217
-209
-194
-176
-155
-136
-121
-111
-107
-111
-121
-138
-158
-180
-202
-219
-231
-235
-229
-215
-193
-167
-139
-112
-92
-79
-75
-80
-92
-109
-127
-141
-150
-150
-141
-123
-99
-71
-45
-23
-11
-12
-26
-54
-93
-140
-190
-237
-275
-301
-311
-304
-281
-245
-201
-154
-111
-76
-53
-45
-51
-69
-96
-127
-156
-180
-194
-195
-184
-162
-132
-97
-65
-38
-22
-19
-31
-56
-92
-135
-178
-218
-248
-265
-267
-255
-232
-200
-165
-131
-105
-88
-84
-93
-112
-140
-172
-204
-230
-248
-255
-250
-234
-208
-178
-147
-120
-101
-91
-93
-104
-123
-145
-166
-181
-189
-185
-172
-150
-123
-94
-69
-51
-43
-47
-62
-87
-120
-155
-191
-223
-247
-262
-266
-259
-242
-218
-190
-161
-135
-115
-105
-106
-117
-137
-163
-192
-218
-239
-251
-252
-243
-224
-198
-170
-143
-120
-106
-101
-106
-120
-141
-166
-192
-215
-233
-241
-240
-229
-208
-180
-148
-115
-85
-61
-46
-42
-47
-61
-79
-99
-117
-127
-128
-116
-94
-62
-23
17
56
89
112
125
128
122
109
93
78
66
60
60
68
82
102
125
149
172
192
208
217
220
216
207
194
179
165
155
152
157
170
191
217
245
269
287
294
289
272
244
209
173
142
120
112
121
147
186
234
284
331
366
386
387
369
334
288
237
188
147
120
109
113
132
160
191
219
239
246
238
216
181
138
92
48
11
-17
-33
-38
-32
-20
-5
9
19
21
14
-2
-27
-60
-98
-137
-175
-210
-238
-258
-269
-271
-265
-253
-236
-218
-201
-190
-186
-191
-206
-229
-260
-293
-325
-351
-366
-367
-353
-325
-286
-241
-198
-161
-138
-133
-146
-176
-219
-268
-316
-357
-383
-393
-387
-366
-336
-303
-275
-255
-247
-251
-266
-285
-302
-311
-304
-274
-220
-138
-29
106
265
444
641
854
1083
1329
1590
1869
2166
2481
2815
3167
3534
3911
4296
4679
5054
5408
5730
6005
6220
6360
6412
6367
6218
5965
5616
5183
4685
4145
3590
3048
2542
2094
1717
1417
1192
1034
929
859
807
757
699
625
535
432
323
218
125
50
-2
-33
-46
-46
-42
-40
-46
-66
-99
-144
-198
-254
-309
-357
-393
-416
-426
-426
-417
-405
-394
-387
-388
-397
-415
-442
-474
-509
-544
-575
-600
-617
-624
-622
-612
-597
-578
-560
-544
-534
-531
-535
-547
-564
-583
-602
-617
-625
-624
-614
-595
-569
-539
-511
-489
-475
-474
-487
-512
-548
-589
-631
-669
-697
-712
-712
-698
-671
-636
-597
-560
-529
-508
-499
-502
-516
-539
-565
-590
-611
-622
-622
-610
-587
-555
-519
-482
-450
-427
-416
-419
-436
-464
-500
-538
-573
-601
-617
-620
-609
-588
-558
-525
-494
-468
-452
-446
-450
-463
-482
-503
-521
-534
-539
-535
-522
-501
-476
-450
-425
-404
-390
-384
-387
-398
-415
-436
-459
-480
-498
-510
-513
-508
-495
-474
-448
-420
-394
-373
-359
-354
-358
-370
-388
-408
-425
-436
-437
-428
-408
-380
-346
-311
-279
-255
-242
-239
-248
-265
-286
-308
-325
-335
-335
-324
-302
-272
-237
-199
-161
-127
-98
-75
-60
-52
-50
-52
-58
-65
-72
-75
-74
-66
-51
-29
0
33
68
103
134
159
176
186
191
192
193
198
209
229
256
290
328
367
401
429
447
455
454
447
436
426
419
420
430
448
474
506
539
571
598
617
627
627
618
603
583
564
548
540
540
550
570
598
631
664
694
718
731
733
724
703
675
642
608
575
547
526
512
504
503
505
509
513
513
508
497
479
455
425
392
358
325
296
272
255
244
239
238
238
238
233
222
205
179
147
109
68
27
-11
-43
-67
-82
-85
-79
-65
-46
-26
-7
4
6
-3
-24
-55
-93
-133
-172
-204
-225
-234
-229
-213
-189
-161
-134
-113
-102
-103
-116
-141
-173
-211
-247
-279
-301
-311
-306
-288
-259
-221
-179
-139
-105
-81
-71
-76
-94
-123
-159
-198
-236
-267
-289
-301
-303
-296
-283
-266
-250
-236
-228
-225
-229
-238
-252
-266
-281
-292
-298
-297
-289
-275
-255
-231
-206
-183
-164
-151
-147
-151
-163
-181
-203
-226
-246
-262
-271
-272
-266
-254
-239
-222
-208
-198
-194
-197
-206
-219
-234
-249
-259
-263
-260
-249
-232
-210
-187
-164
-147
-137
-136
-144
-160
-183
-210
-236
-258
-272
-277
-271
-254
-229
-199
-167
-139
-118
-107
-108
-122
-146
-177
-210
-242
-267
-282
-285
-274
-252
-221
-185
-149
-118
-95
-83
-84
-95
-115
-139
-165
-187
-202
-208
-203
-189
-168
-142
-115
-93
-76
-69
-72
-83
-103
-127
-153
-177
-197
-210
-213
-206
-191
-167
-138
-108
-80
-58
-46
-45
-56
-79
-110
-146
-180
-209
-228
-233
-224
-201
-169
-131
-94
-63
-45
-41
-53
-79
-116
-160
-203
-241
-269
-283
-282
-269
-244
-212
-179
-148
-123
-107
-102
-108
-122
-142
-164
-186
-204
-214
-217
-212
-199
-179
-156
-131
-107
-86
-70
-61
-60
-66
-79
-98
-120
-144
-166
-184
-196
-201
-198
-190
-177
-162
-149
-141
-140
-148
-164
-186
-211
-235
-255
-267
-268
-259
-240
-214
-184
-156
-133
-118
-113
-118
-132
-150
-170
-187
-199
-202
-197
-182
-162
-137
-113
-93
-79
-75
-81
-98
-125
-160
-199
-240
-279
-311
-334
-346
-345
-330
-304
-270
-230
-191
-157
-132
-119
-119
-131
-152
-179
-206
-230
-244
-248
-239
-219
-191
-159
-127
-101
-83
-77
-83
-99
-123
-151
-177
-197
-207
-205
-191
-164
-128
-86
-43
-3
30
52
63
62
50
32
10
-11
-28
-37
-35
-23
-2
27
60
92
120
140
148
145
130
107
78
49
25
10
7
19
45
83
130
181
232
277
313
336
344
338
318
289
253
216
181
153
134
127
132
148
171
199
225
248
262
265
258
242
219
193
170
152
143
144
155
175
198
223
244
257
259
251
231
201
166
128
92
62
40
29
27
35
48
64
79
89
91
82
63
34
-2
-43
-84
-122
-154
-177
-189
-192
-185
-172
-157
-142
-131
-128
-134
-152
-179
-213
-252
-289
-323
-347
-358
-357
-343
-319
-289
-258
-231
-213
-207
-213
-232
-259
-291
-322
-349
-368
-376
-372
-357
-335
-307
-279
-254
-236
-226
-227
-238
-260
-288
-322
-357
-389
-414
-427
-426
-408
-371
-315
-243
-157
-59
46
158
275
399
533
683
854
1054
1287
1558
1868
2214
2592
2992
3404
3819
4224
4609
4966
5288
5568
5801
5980
6099
6151
6129
6026
5836
5560
5199
4763
4268
3732
3181
2639
2131
1679
1297
993
770
619
528
483
466
460
453
436
405
358
299
233
163
96
33
-23
-71
-113
-149
-181
-208
-231
-251
-266
-277
-285
-293
-301
-312
-329
-351
-380
-414
-450
-486
-517
-542
-557
-562
-558
-546
-530
-513
-500
-493
-495
-507
-527
-553
-583
-613
-638
-656
-663
-659
-645
-622
-594
-565
-538
-518
-507
-507
-517
-537
-563
-592
-619
-641
-655
-659
-651
-633
-606
-575
-543
-514
-492
-480
-480
-492
-514
-543
-574
-604
-629
-644
-648
-641
-624
-600
-574
-548
-527
-513
-509
-513
-525
-543
-563
-583
-599
-609
-611
-605
-591
-570
-545
-519
-494
-475
-463
-462
-470
-488
-512
-539
-564
-583
-591
-586
-569
-540
-503
-464
-428
-400
-384
-382
-396
-422
-458
-497
-536
-569
-591
-601
-597
-581
-554
-520
-483
-448
-416
-392
-378
-373
-378
-390
-406
-424
-441
-453
-459
-457
-447
-432
-413
-393
-375
-362
-355
-355
-361
-372
-383
-393
-397
-394
-383
-363
-336
-306
-276
-249
-228
-215
-212
-216
-228
-242
-258
-271
-278
-279
-272
-257
-235
-206
-173
-136
-98
-60
-25
6
31
49
59
61
56
47
37
30
29
38
56
86
124
167
210
250
281
302
311
310
302
291
281
277
283
300
328
365
409
455
498
535
563
579
584
578
563
543
521
501
486
479
481
493
515
545
578
612
641
662
672
669
653
626
593
557
524
500
486
485
496
517
544
571
593
607
608
594
568
531
486
439
394
355
325
305
296
297
303
313
322
326
323
310
288
255
215
169
121
75
35
3
-19
-30
-31
-24
-12
0
10
14
8
-7
-31
-63
-99
-136
-169
-193
-207
-208
-197
-175
-148
-118
-92
-74
-69
-79
-104
-142
-190
-241
-290
-332
-362
-376
-373
-355
-325
-288
-250
-216
-191
-178
-180
-194
-219
-250
-282
-310
-330
-339
-336
-322
-298
-269
-238
-209
-187
-172
-167
-172
-184
-202
-223
-244
-263
-278
-288
-292
-292
-288
-281
-275
-269
-266
-266
-271
-279
-291
-304
-316
-327
-333
-333
-326
-313
-294
-269
-243
-217
-194
-177
-168
-167
-176
-193
-216
-242
-268
-291
-308
-317
-317
-307
-291
-269
-247
-228
-215
-211
-216
-229
-249
-272
-294
-310
-316
-312
-295
-267
-232
-194
-158
-130
-113
-110
-121
-146
-180
-221
-261
-296
-322
-335
-335
-322
-299
-268
-234
-202
-174
-155
-147
-149
-160
-179
-204
-229
-254
-273
-285
-288
-282
-267
-245
-220
-194
-170
-153
-144
-145
-156
-174
-197
-222
-243
-258
-264
-258
-241
-215
-183
-149
-118
-93
-78
-75
-84
-104
-132
-165
-198
-226
-247
-257
-255
-243
-222
-195
-167
-141
-121
-109
-108
-115
-130
-150
-172
-191
-205
-211
-209
-199
-182
-161
-139
-119
-105
-98
-100
-111
-131
-157
-186
-215
-240
-258
-267
-265
-251
-229
-199
-167
-138
-114
-101
-100
-113
-138
-171
-209
-246
-278
-299
-308
-302
-284
-256
-222
-188
-159
-139
-130
-135
-151
-178
-210
-244
-274
-296
-308
-308
-296
-273
-244
-211
-179
-152
-134
-127
-130
-144
-167
-195
-223
-250
-269
-280
-280
-270
-253
-230
-207
-187
-175
-174
-184
-206
-237
-272
-308
-339
-361
-371
-367
-349
-320
-284
-244
-207
-176
-154
-145
-147
-159
-180
-205
-231
-253
-269
-277
-275
-264
-245
-223
-199
-177
-161
-153
-155
-167
-187
-215
-245
-275
-300
-318
-326
-322
-307
-283
-252
-219
-188
-161
-143
-135
-136
-147
-163
-180
-196
-204
-203
-191
-168
-134
-94
-51
-10
26
54
71
77
72
60
42
21
2
-14
-25
-29
-27
-18
-4
13
30
46
59
68
71
70
65
58
51
48
51
62
81
108
141
176
211
242
263
274
272
257
231
198
161
127
98
80
75
85
107
141
181
222
260
288
302
301
283
251
209
161
114
73
44
29
30
47
75
110
147
178
200
207
197
170
129
77
20
-35
-83
-119
-139
-141
-128
-102
-69
-35
-6
11
13
-3
-37
-85
-143
-204
-262
-311
-346
-365
-367
-355
-333
-307
-281
-262
-251
-252
-264
-285
-311
-340
-365
-384
-394
-393
-382
-361
-335
-306
-280
-260
-250
-251
-265
-290
-324
-362
-398
-429
-450
-458
-453
-434
-407
-375
-344
-319
-305
-304
-317
-339
-367
-392
-407
-404
-377
-321
-235
-119
23
187
367
559
759
966
1181
1408
1652
1918
2210
2533
2886
3267
3671
4088
4508
4917
5302
5649
5942
6169
6318
6380
6347
6217
5989
5670
5270
4805
4295
3764
3235
2733
2278
1884
1560
1307
1118
982
884
808
739
666
583
489
386
281
182
98
32
-13
-37
-46
-45
-44
-49
-64
-94
-137
-191
-252
-313
-369
-415
-448
-467
-473
-469
-460
-448
-440
-437
-442
-456
-478
-505
-535
-565
-592
-613
-626
-631
-628
-619
-606
-591
-577
-567
-561
-562
-570
-584
-603
-625
-647
-667
-683
-692
-693
-685
-670
-649
-624
-599
-578
-563
-558
-563
-578
-601
-630
-661
-688
-708
-718
-714
-698
-669
-632
-590
-549
-512
-485
-471
-470
-483
-508
-541
-578
-613
-642
-661
-668
-662
-647
-623
-596
-570
-549
-536
-533
-539
-553
-572
-592
-610
-622
-627
-623
-612
-595
-575
-554
-535
-521
-513
-512
-517
-527
-541
-557
-571
-581
-584
-580
-568
-548
-521
-492
-464
-440
-424
-418
-424
-442
-468
-500
-532
-561
-581
-589
-585
-567
-539
-503
-464
-427
-397
-376
-368
-373
-389
-414
-444
-474
-500
-518
-525
-520
-502
-474
-439
-401
-365
-335
-314
-305
-307
-319
-338
-360
-381
-396
-402
-397
-380
-353
-319
-281
-244
-212
-186
-171
-164
-166
-174
-183
-191
-193
-186
-170
-144
-109
-69
-26
16
54
84
104
114
115
109
97
85
77
74
81
99
128
166
212
261
309
351
385
408
419
419
409
393
375
359
348
346
353
370
395
426
460
494
523
546
562
570
570
566
560
555
552
555
563
578
597
618
639
658
670
676
672
659
638
610
578
543
509
478
452
433
421
417
419
425
433
440
442
437
424
401
369
331
290
249
213
184
166
159
161
171
184
197
205
206
196
175
145
108
67
28
-7
-34
-52
-60
-60
-55
-47
-41
-38
-44
-58
-80
-110
-144
-180
-213
-239
-257
-264
-260
-247
-226
-202
-178
-157
-143
-138
-142
-155
-176
-202
-231
-260
-286
-308
-323
-331
-331
-324
-310
-292
-271
-250
-231
-218
-212
-214
-224
-242
-266
-291
-314
-331
-339
-336
-322
-298
-268
-236
-207
-186
-176
-180
-196
-221
-252
-283
-308
-322
-323
-309
-283
-248
-211
-176
-150
-137
-139
-156
-185
-222
-262
-298
-326
-342
-343
-330
-304
-269
-229
-189
-153
-127
-112
-110
-121
-144
-174
-209
-244
-273
-294
-304
-301
-286
-262
-231
-200
-172
-152
-143
-148
-165
-193
-228
-265
-299
-325
-339
-340
-327
-302
-270
-233
-198
-170
-150
-142
-145
-158
-179
-202
-225
-242
-252
-253
-244
-227
-203
-177
-151
-128
-113
-106
-109
-121
-142
-167
-195
-222
-244
-258
-263
-257
-241
-217
-187
-157
-128
-106
-92
-89
-96
-112
-135
-160
-185
-205
-216
-218
-208
-188
-161
-129
-97
-69
-49
-39
-42
-57
-82
-113
-145
-175
-197
-208
-206
-191
-167
-136
-103
-75
-56
-50
-58
-80
-112
-150
-189
-223
-248
-259
-255
-237
-208
-172
-133
-98
-70
-52
-48
-56
-75
-103
-135
-168
-198
-221
-235
-240
-234
-219
-197
-172
-146
-124
-109
-103
-108
-122
-146
-176
-207
-236
-258
-271
-273
-262
-241
-213
-182
-151
-127
-111
-106
-113
-130
-155
-184
-212
-236
-253
-259
-255
-241
-219
-191
-162
-136
-115
-103
-101
-109
-127
-152
-179
-205
-226
-238
-240
-231
-212
-186
-157
-130
-108
-95
-94
-104
-124
-153
-185
-216
-243
-262
-272
-271
-260
-242
-220
-197
-176
-160
-151
-150
-156
-167
-181
-196
-207
-214
-214
-206
-192
-173
-151
-131
-114
-103
-101
-107
-122
-144
-171
-199
-226
-247
-260
-264
-258
-242
-218
-188
-156
-125
-100
-82
-75
-79
-93
-114
-140
-165
-186
-198
-199
-187
-163
-128
-86
-40
4
42
72
93
103
105
100
92
84
77
75
78
85
95
108
121
132
139
143
142
137
128
117
104
92
82
77
76
83
96
117
143
173
205
236
261
279
286
283
269
248
221
195
172
157
153
160
177
203
234
264
291
309
317
314
300
278
251
223
197
177
164
159
163
173
186
201
213
220
220
211
193
166
132
94
56
21
-7
-26
-34
-32
-20
-3
15
31
40
38
23
-5
-44
-90
-139
-186
-225
-253
-269
-271
-263
-247
-228
-212
-201
-200
-210
-229
-257
-289
-321
-349
-369
-378
-376
-362
-340
-311
-280
-251
-227
-211
-204
-208
-222
-243
-268
-295
-319
-337
-348
-349
-340
-324
-303
-281
-261
-247
-243
-250
-267
-294
-325
-356
-381
-391
-383
-351
-292
-205
-92
44
201
373
558
752
956
1172
1403
1652
1926
2229
2562
2926
3318
3731
4156
4581
4992
5375
5714
5998
6213
6350
6401
6361
6229
6004
5694
5307
4858
4363
3844
3323
2822
2361
1957
1619
1350
1147
1000
896
819
754
691
620
539
451
360
273
198
138
94
66
49
35
20
-3
-37
-82
-136
-193
-249
-298
-334
-356
-363
-357
-343
-326
-311
-303
-306
-323
-353
-394
-444
-498
-550
-596
-632
-655
-663
-657
-638
-610
-579
-548
-523
-507
-503
-510
-528
-554
-584
-614
-639
-657
-665
-662
-650
-631
-608
-584
-563
-547
-539
-539
-547
-560
-575
-590
-602
-608
-607
-599
-585
-567
-549
-533
-523
-519
-524
-536
-553
-574
-595
-613
-627
-635
-636
-630
-617
-599
-577
-553
-527
-502
-481
-464
-455
-455
-465
-483
-509
-538
-567
-591
-607
-611
-602
-582
-552
-519
-487
-462
-448
-448
-460
-484
-514
-545
-571
-589
-593
-585
-564
-535
-501
-467
-438
-417
-407
-408
-420
-439
-462
-485
-504
-518
-522
-518
-504
-484
-459
-433
-410
-392
-381
-379
-386
-399
-417
-437
-456
-470
-478
-479
-473
-460
-442
-420
-397
-375
-355
-341
-331
-329
-332
-339
-350
-360
-367
-368
-359
-340
-309
-269
-222
-174
-129
-94
-72
-66
-77
-102
-135
-172
-205
-227
-234
-224
-196
-154
-102
-46
7
52
85
104
110
105
93
79
68
63
68
84
111
147
190
237
283
326
363
392
412
425
430
430
428
425
424
426
433
445
462
482
504
526
545
559
568
570
565
555
542
527
514
506
505
513
530
556
588
622
655
682
700
707
701
683
655
621
586
553
528
511
506
511
525
544
565
581
591
589
575
548
510
462
410
356
307
266
235
217
211
215
226
240
252
257
251
234
204
163
115
63
13
-30
-63
-82
-88
-81
-64
-41
-17
4
18
22
15
-3
-29
-60
-93
-124
-149
-165
-170
-166
-153
-134
-114
-97
-87
-88
-100
-124
-159
-200
-244
-284
-318
-339
-345
-337
-314
-281
-241
-201
-165
-138
-124
-125
-140
-166
-199
-235
-268
-292
-306
-305
-291
-265
-232
-195
-161
-133
-116
-112
-120
-140
-169
-203
-238
-268
-292
-306
-310
-303
-288
-266
-240
-215
-194
-179
-173
-177
-191
-212
-238
-264
-287
-303
-308
-302
-285
-257
-224
-190
-159
-136
-125
-127
-143
-169
-203
-238
-272
-297
-312
-314
-304
-283
-255
-223
-193
-168
-153
-149
-156
-175
-201
-232
-263
-289
-308
-315
-310
-292
-263
-227
-188
-150
-117
-94
-83
-84
-97
-119
-147
-177
-204
-225
-237
-238
-229
-211
-188
-163
-141
-124
-116
-119
-132
-153
-181
-210
-237
-258
-270
-270
-258
-236
-207
-173
-141
-113
-94
-86
-90
-105
-128
-157
-187
-213
-233
-242
-241
-229
-207
-179
-148
-119
-95
-79
-74
-80
-95
-118
-144
-170
-192
-206
-209
-202
-184
-159
-131
-103
-81
-70
-70
-84
-110
-145
-186
-225
-260
-284
-295
-292
-274
-244
-207
-167
-130
-99
-80
-74
-81
-101
-130
-163
-195
-223
-240
-246
-237
-216
-185
-148
-110
-75
-50
-36
-36
-49
-74
-108
-147
-185
-219
-244
-259
-263
-257
-241
-221
-198
-177
-162
-153
-153
-162
-177
-197
-219
-237
-251
-256
-251
-237
-213
-184
-152
-120
-94
-76
-68
-72
-88
-114
-147
-183
-218
-249
-271
-283
-283
-273
-253
-227
-200
-174
-155
-144
-144
-154
-172
-197
-223
-248
-267
-276
-274
-261
-237
-206
-170
-136
-107
-89
-84
-93
-116
-149
-189
-228
-262
-285
-294
-286
-264
-231
-191
-153
-121
-101
-98
-111
-139
-179
-223
-267
-304
-328
-337
-328
-304
-267
-223
-176
-132
-97
-73
-63
-66
-81
-104
-131
-157
-178
-191
-194
-188
-173
-154
-132
-111
-94
-81
-75
-73
-74
-76
-77
-75
-69
-59
-45
-27
-5
18
42
66
88
106
119
126
126
118
104
84
63
44
31
27
36
58
91
133
178
223
261
288
302
300
285
260
229
196
167
145
133
131
139
155
175
198
218
234
244
246
242
233
220
205
193
184
180
183
191
204
220
236
250
259
260
255
242
222
198
172
148
126
109
99
95
96
101
108
113
114
110
99
81
55
24
-11
-46
-79
-108
-129
-143
-147
-144
-136
-124
-113
-107
-107
-117
-137
-166
-203
-245
-287
-325
-356
-375
-382
-375
-357
-329
-296
-263
-233
-212
-201
-201
-213
-233
-257
-283
-305
-320
-326
-323
-311
-292
-271
-250
-233
-223
-222
-231
-248
-272
-300
-331
-360
-387
-407
-420
-424
-417
-399
-369
-328
-274
-210
-136
-52
41
144
258
386
532
700
896
1125
1389
1691
2030
2401
2798
3212
3634
4051
4454
4833
5179
5486
5746
5955
6107
6195
6214
6156
6017
5792
5484
5097
4642
4135
3598
3055
2530
2047
1625
1277
1008
817
694
625
595
583
576
561
529
478
409
327
237
148
66
-5
-61
-100
-125
-136
-137
-133
-127
-123
-125
-135
-155
-186
-226
-275
-330
-385
-439
-486
-523
-548
-560
-560
-548
-529
-506
-483
-463
-450
-446
-451
-465
-487
-513
-542
-569
-591
-605
-612
-609
-598
-581
-562
-545
-533
-529
-535
-551
-576
-608
-641
-671
-695
-707
-707
-695
-671
-640
-606
-574
-547
-531
-526
-532
-548
-571
-596
-619
-637
-645
-642
-629
-607
-579
-549
-521
-498
-485
-482
-491
-509
-534
-563
-590
-612
-625
-627
-618
-599
-573
-543
-513
-488
-472
-467
-475
-495
-524
-560
-597
-631
-658
-674
-676
-664
-639
-605
-564
-522
-483
-451
-430
-420
-423
-436
-456
-480
-504
-524
-537
-541
-536
-522
-502
-477
-451
-426
-406
-392
-386
-388
-397
-412
-430
-448
-463
-473
-475
-469
-454
-432
-406
-377
-349
-327
-312
-307
-312
-325
-345
-368
-390
-407
-415
-413
-400
-377
-346
-312
-277
-248
-226
-215
-214
-223
-237
-253
-266
-271
-265
-247
-216
-177
-133
-88
-48
-18
0
6
-1
-17
-39
-63
-83
-95
-98
-89
-67
-33
10
60
114
167
216
257
289
308
316
313
302
288
274
266
266
278
302
338
382
430
479
522
557
579
589
587
574
555
533
512
496
488
490
502
523
551
583
616
647
671
686
692
687
672
651
626
601
580
566
561
564
576
592
611
627
638
640
631
612
584
548
510
471
436
408
389
379
377
382
391
399
404
402
389
363
326
277
220
159
99
46
3
-25
-38
-36
-23
-3
18
36
44
40
23
-7
-45
-88
-131
-168
-195
-210
-211
-202
-184
-162
-140
-122
-113
-113
-123
-142
-169
-200
-232
-262
-287
-305
-315
-315
-307
-292
-272
-248
-224
-204
-188
-181
-182
-194
-214
-240
-270
-298
-322
-338
-344
-340
-325
-304
-281
-259
-242
-236
-239
-253
-275
-302
-329
-351
-365
-369
-362
-344
-318
-288
-257
-229
-206
-191
-186
-188
-197
-212
-228
-244
-256
-264
-266
-262
-252
-237
-219
-201
-185
-173
-167
-167
-175
-190
-210
-234
-258
-281
-300
-313
-320
-321
-316
-308
-298
-289
-284
-283
-287
-296
-308
-321
-333
-342
-344
-339
-326
-307
-282
-257
-232
-213
-200
-197
-203
-218
-240
-265
-290
-312
-327
-333
-330
-317
-298
-274
-249
-226
-209
-200
-199
-206
-218
-234
-250
-262
-269
-267
-257
-239
-213
-184
-154
-127
-105
-91
-87
-93
-109
-133
-162
-194
-226
-253
-273
-285
-286
-278
-261
-238
-211
-185
-163
-147
-140
-141
-151
-168
-188
-207
-223
-230
-228
-215
-193
-163
-131
-101
-78
-67
-71
-89
-120
-162
-208
-252
-290
-316
-328
-326
-310
-285
-256
-226
-200
-181
-172
-171
-179
-191
-207
-223
-237
-247
-252
-250
-242
-229
-210
-189
-166
-145
-128
-117
-115
-122
-139
-162
-189
-217
-241
-257
-263
-258
-242
-218
-191
-164
-143
-131
-130
-142
-164
-193
-226
-257
-283
-299
-303
-295
-276
-248
-216
-184
-156
-137
-128
-130
-144
-166
-194
-223
-251
-273
-286
-290
-283
-267
-245
-219
-194
-172
-157
-151
-155
-169
-190
-216
-244
-269
-289
-300
-302
-292
-274
-249
-221
-194
-172
-159
-155
-162
-179
-202
-229
-255
-275
-285
-284
-271
-246
-213
-176
-138
-106
-84
-73
-76
-92
-117
-149
-181
-210
-231
-240
-237
-221
-195
-162
-125
-89
-57
-32
-17
-10
-11
-18
-29
-39
-46
-47
-41
-27
-6
22
52
83
110
131
142
142
130
108
77
43
9
-20
-39
-45
-36
-12
25
71
121
170
211
239
252
249
230
198
159
117
79
49
31
27
37
59
90
125
160
190
213
225
226
215
195
169
139
110
86
69
62
65
77
96
117
138
153
159
154
137
110
75
36
-2
-35
-60
-76
-82
-80
-72
-62
-53
-47
-47
-53
-67
-86
-109
-135
-161
-186
-207
-224
-236
-242
-244
-242
-239
-237
-239
-245
-258
-278
-304
-333
-363
-390
-411
-423
-424
-413
-393
-364
-332
-300
-274
-255
-247
-251
-265
-287
-314
-341
-364
-379
-383
-376
-358
-332
-301
-270
-243
-227
-221
-228
-246
-271
-298
-319
-330
-323
-293
-239
-159
-56
70
212
369
537
715
902
1101
1315
1546
1799
2077
2382
2712
3067
3442
3830
4222
4607
4974
5307
5595
5823
5978
6050
6030
5915
5704
5404
5025
4582
4095
3585
3075
2588
2142
1752
1425
1164
966
821
717
641
580
524
467
404
337
269
205
148
103
69
45
28
12
-8
-37
-76
-126
-183
-244
-304
-357
-399
-428
-443
-447
-443
-434
-426
-423
-425
-436
-455
-479
-505
-532
-556
-573
-582
-582
-573
-556
-533
-507
-482
-462
-449
-446
-453
-471
-496
-526
-557
-583
-602
-611
-609
-596
-575
-550
-523
-499
-482
-475
-477
-490
-510
-536
-565
-593
-616
-634
-643
-644
-637
-623
-603
-581
-559
-539
-524
-516
-514
-518
-529
-543
-558
-571
-580
-583
-578
-567
-549
-528
-507
-489
-479
-480
-491
-514
-545
-581
-618
-649
-670
-677
-668
-645
-610
-566
-521
-481
-450
-432
-430
-442
-467
-499
-535
-568
-596
-614
-622
-618
-606
-585
-559
-530
-501
-474
-451
-433
-423
-418
-421
-428
-439
-451
-463
-471
-474
-472
-463
-450
-435
-421
-409
-403
-405
-413
-428
-448
-468
-487
-500
-505
-502
-489
-468
-440
-409
-377
-348
-324
-307
-298
-296
-300
-309
-319
-328
-332
-330
-320
-301
-273
-240
-203
-168
-137
-114
-104
-106
-120
-143
-172
-201
-224
-236
-234
-215
-180
-132
-76
-18
36
79
108
122
121
108
88
66
50
44
52
74
111
159
213
269
320
363
393
410
412
402
384
362
340
324
315
318
331
355
386
422
458
490
516
534
541
538
527
511
493
475
463
458
463
478
501
532
566
599
628
647
654
648
629
599
562
522
484
452
430
418
418
425
437
449
458
459
451
432
403
367
326
284
246
213
189
174
168
170
177
187
196
202
201
192
174
146
112
72
31
-7
-40
-65
-81
-87
-84
-77
-68
-61
-59
-63
-77
-98
-126
-157
-189
-218
-241
-257
-264
-262
-252
-234
-212
-187
-163
-142
-127
-120
-122
-134
-156
-186
-220
-255
-288
-312
-327
-329
-318
-295
-265
-230
-197
-170
-152
-147
-156
-176
-205
-240
-274
-303
-324
-333
-330
-316
-293
-266
-238
-214
-197
-190
-194
-207
-229
-254
-280
-302
-315
-319
-312
-294
-269
-238
-207
-181
-162
-154
-158
-173
-197
-227
-257
-284
-303
-312
-309
-295
-273
-246
-218
-193
-174
-164
-164
-174
-191
-214
-239
-263
-284
-298
-305
-303
-293
-275
-251
-225
-199
-175
-158
-150
-152
-163
-184
-210
-239
-266
-286
-297
-296
-283
-260
-230
-198
-169
-147
-136
-139
-154
-179
-211
-243
-271
-289
-296
-289
-268
-238
-203
-167
-136
-114
-105
-110
-128
-157
-192
-229
-263
-290
-305
-308
-299
-278
-248
-214
-179
-148
-125
-111
-108
-117
-134
-158
-186
-213
-235
-251
-257
-254
-242
-223
-200
-175
-154
-137
-129
-130
-139
-157
-180
-206
-230
-251
-263
-267
-261
-245
-222
-195
-167
-143
-125
-117
-119
-132
-153
-179
-208
-234
-253
-264
-263
-252
-231
-203
-173
-143
-119
-103
-98
-105
-124
-151
-184
-218
-249
-273
-287
-289
-278
-257
-229
-196
-165
-138
-121
-115
-121
-139
-166
-199
-232
-261
-282
-292
-288
-273
-246
-214
-180
-148
-125
-112
-112
-125
-148
-179
-212
-243
-267
-282
-286
-280
-265
-244
-221
-201
-186
-179
-182
-193
-211
-232
-253
-270
-280
-282
-274
-257
-234
-208
-182
-158
-142
-133
-133
-142
-157
-176
-198
-218
-236
-248
-255
-255
-249
-237
-221
-202
-183
-165
-151
-143
-143
-151
-168
-192
-220
-250
-277
-298
-308
-308
-297
-276
-249
-220
-194
-176
-168
-172
-187
-212
-241
-271
-296
-313
-316
-307
-284
-251
-211
-169
-132
-104
-89
-90
-107
-137
-176
-220
-261
-294
-313
-316
-302
-272
-230
-181
-131
-86
-52
-31
-24
-32
-49
-73
-97
-117
-128
-127
-113
-88
-52
-12
30
67
97
114
118
110
90
63
33
4
-17
-29
-28
-14
12
47
86
126
160
186
200
202
192
171
144
115
89
68
57
57
68
89
116
146
173
193
204
202
187
161
128
92
58
33
19
20
36
65
103
145
184
215
235
239
229
205
171
133
95
63
40
28
28
37
54
73
91
102
104
94
72
38
-4
-51
-99
-143
-179
-204
-217
-218
-208
-190
-168
-146
-129
-120
-121
-134
-157
-189
-226
-265
-303
-334
-357
-369
-369
-358
-339
-315
-289
-266
-249
-241
-244
-256
-278
-304
-332
-357
-376
-385
-384
-372
-351
-325
-297
-272
-253
-243
-244
-254
-274
-300
-330
-360
-386
-407
-419
-420
-411
-392
-363
-325
-279
-228
-171
-110
-45
26
103
190
290
406
542
702
889
1104
1349
1623
1924
2248
2592
2950
3316
3684
4045
4394
4721
5018
5277
5488
5642
5728
5738
5665
5505
5259
4929
4526
4064
3562
3043
2531
2049
1617
1252
962
749
608
529
495
489
493
491
473
432
367
283
185
83
-14
-98
-164
-209
-233
-239
-232
-217
-200
-188
-182
-188
-206
-234
-273
-318
-367
-415
-458
-494
-519
-533
-536
-529
-516
-498
-481
-468
-463
-467
-480
-502
-531
-562
-593
-618
-635
-642
-637
-621
-598
-569
-539
-514
-496
-490
-496
-514
-542
-577
-615
-649
-675
-689
-688
-672
-643
-603
-559
-515
-478
-453
-443
-450
-473
-509
-554
-600
-644
-678
-699
-706
-698
-677
-648
-615
-583
-555
-537
-528
-531
-542
-559
-579
-599
-614
-623
-624
-617
-603
-584
-563
-544
-529
-520
-520
-529
-545
-566
-590
-612
-629
-638
-638
-626
-604
-574
-538
-502
-468
-441
-423
-416
-421
-436
-460
-488
-517
-543
-563
-574
-575
-566
-548
-523
-496
-470
-448
-433
-426
-429
-439
-454
-470
-485
-494
-495
-488
-471
-447
-419
-391
-366
-348
-339
-341
-352
-372
-397
-425
-451
-473
-488
-493
-489
-476
-455
-427
-395
-363
-332
-306
-288
-279
-279
-287
-301
-317
-331
-339
-339
-327
-304
-270
-230
-187
-146
-112
-87
-74
-73
-81
-95
-111
-125
-133
-132
-122
-101
-72
-36
3
42
78
110
135
153
164
169
169
165
161
159
161
169
183
205
233
266
300
332
360
380
390
391
383
370
354
340
333
336
350
376
413
457
502
545
579
601
608
600
577
543
502
461
423
393
375
369
376
393
417
443
468
487
497
496
484
462
433
399
365
335
310
294
288
290
300
313
326
337
341
337
323
300
268
232
192
153
117
86
62
45
33
27
22
18
12
1
-15
-36
-61
-89
-118
-144
-164
-177
-181
-175
-162
-142
-120
-99
-84
-78
-83
-98
-124
-158
-195
-232
-263
-287
-299
-299
-288
-267
-241
-214
-188
-170
-160
-161
-172
-192
-218
-246
-271
-291
-302
-302
-290
-270
-244
-215
-189
-169
-160
-162
-176
-201
-233
-268
-301
-329
-348
-356
-352
-337
-313
-283
-252
-222
-198
-180
-170
-170
-177
-191
-208
-228
-246
-261
-270
-273
-269
-259
-244
-226
-207
-192
-181
-178
-183
-196
-216
-240
-266
-290
-308
-317
-317
-306
-286
-259
-230
-201
-178
-163
-159
-165
-180
-202
-227
-251
-269
-279
-277
-265
-244
-216
-186
-157
-134
-119
-115
-122
-138
-160
-186
-211
-232
-246
-249
-243
-227
-205
-178
-152
-130
-115
-111
-119
-138
-166
-200
-236
-267
-291
-303
-302
-286
-259
-225
-187
-151
-122
-105
-100
-107
-126
-153
-183
-211
-233
-246
-248
-238
-219
-193
-163
-135
-110
-94
-87
-91
-104
-124
-150
-176
-200
-219
-230
-232
-224
-209
-188
-164
-140
-119
-104
-96
-97
-107
-124
-147
-173
-197
-219
-233
-240
-237
-224
-203
-177
-148
-120
-98
-84
-81
-88
-106
-132
-162
-193
-220
-240
-248
-245
-229
-204
-173
-139
-108
-85
-72
-71
-83
-105
-134
-165
-194
-216
-228
-229
-219
-200
-178
-155
-137
-128
-130
-144
-170
-205
-245
-285
-320
-347
-362
-362
-348
-322
-286
-244
-202
-164
-135
-118
-115
-125
-147
-178
-212
-245
-272
-289
-295
-289
-271
-244
-213
-180
-152
-132
-122
-124
-138
-163
-194
-228
-261
-288
-305
-310
-302
-281
-250
-213
-175
-140
-112
-96
-91
-98
-115
-139
-165
-191
-212
-226
-233
-232
-225
-215
-203
-194
-188
-188
-194
-205
-221
-239
-256
-270
-279
-280
-274
-259
-239
-215
-190
-168
-153
-148
-153
-169
-194
-226
-261
-293
-319
-335
-338
-327
-303
-268
-226
-182
-141
-107
-84
-74
-78
-92
-115
-142
-167
-187
-197
-194
-178
-149
-111
-68
-23
17
50
72
82
82
71
55
36
18
4
-3
-1
9
27
52
79
107
133
153
165
168
162
149
129
106
84
66
55
55
65
85
115
150
186
220
247
264
269
261
242
214
181
147
118
97
88
92
110
139
176
215
252
281
298
300
287
261
225
184
145
113
92
85
92
112
139
169
195
212
215
201
171
128
75
18
-36
-80
-111
-126
-123
-106
-79
-47
-17
5
14
6
-18
-57
-108
-164
-220
-270
-309
-335
-347
-345
-333
-314
-293
-274
-260
-255
-258
-270
-288
-311
-335
-357
-373
-381
-381
-370
-351
-325
-296
-267
-243
-227
-221
-229
-248
-277
-313
-350
-385
-411
-426
-429
-418
-395
-366
-334
-304
-280
-266
-261
-264
-272
-279
-280
-266
-234
-178
-94
17
155
319
505
711
933
1171
1423
1688
1968
2262
2571
2896
3235
3588
3949
4313
4674
5020
5342
5626
5858
6024
6111
6108
6008
5809
5514
5132
4679
4177
3651
3126
2628
2179
1795
1484
1247
1079
965
890
836
785
727
652
558
449
332
217
113
28
-33
-68
-82
-78
-67
-55
-52
-60
-85
-124
-175
-235
-295
-352
-401
-438
-461
-472
-473
-465
-454
-443
-435
-434
-441
-456
-481
-512
-547
-582
-615
-641
-657
-663
-656
-639
-614
-584
-555
-531
-517
-513
-523
-543
-573
-607
-639
-666
-682
-684
-672
-647
-614
-577
-542
-515
-501
-501
-515
-542
-576
-613
-645
-669
-680
-678
-662
-636
-604
-571
-542
-521
-510
-511
-523
-544
-571
-600
-628
-651
-668
-676
-675
-664
-644
-618
-587
-555
-525
-501
-486
-482
-489
-507
-534
-565
-597
-623
-641
-647
-640
-621
-592
-559
-527
-499
-482
-477
-484
-502
-528
-557
-583
-603
-612
-610
-595
-571
-539
-506
-474
-447
-429
-421
-424
-436
-456
-481
-507
-530
-547
-556
-555
-543
-520
-488
-450
-410
-373
-343
-323
-316
-323
-344
-376
-415
-455
-493
-521
-538
-541
-530
-507
-475
-439
-405
-375
-355
-344
-344
-353
-366
-381
-393
-397
-391
-374
-345
-307
-264
-218
-176
-141
-117
-105
-106
-118
-138
-161
-183
-199
-205
-197
-177
-144
-102
-53
-4
41
79
105
119
122
114
100
83
69
59
59
70
91
123
162
205
249
290
325
350
366
373
371
365
356
349
347
353
368
394
428
468
510
551
585
610
621
620
605
579
546
509
474
445
425
416
418
429
448
470
492
510
520
521
512
495
471
444
417
394
377
369
371
381
397
415
432
444
447
439
419
388
347
301
254
210
173
145
128
123
126
136
148
158
163
158
142
115
78
34
-14
-61
-102
-134
-152
-157
-148
-129
-103
-76
-52
-37
-35
-45
-69
-104
-144
-187
-226
-257
-278
-287
-285
-272
-253
-231
-209
-191
-180
-176
-182
-196
-218
-245
-275
-305
-331
-351
-361
-360
-349
-328
-301
-272
-245
-225
-216
-220
-236
-264
-299
-335
-367
-390
-400
-394
-374
-342
-303
-263
-227
-200
-186
-186
-199
-223
-253
-286
-316
-339
-353
-356
-348
-330
-306
-279
-252
-229
-213
-207
-210
-224
-246
-273
-303
-331
-353
-366
-369
-359
-339
-310
-277
-244
-217
-200
-195
-204
-225
-256
-291
-327
-356
-375
-381
-373
-353
-323
-288
-253
-222
-200
-190
-192
-205
-228
-256
-287
-314
-336
-349
-350
-340
-319
-289
-253
-215
-180
-150
-130
-122
-127
-143
-169
-199
-229
-255
-270
-272
-259
-233
-197
-155
-115
-83
-63
-59
-73
-103
-143
-189
-234
-270
-292
-298
-287
-260
-223
-180
-138
-102
-78
-68
-72
-89
-116
-148
-180
-208
-228
-238
-237
-225
-206
-181
-156
-134
-119
-112
-117
-131
-154
-181
-209
-234
-251
-258
-252
-234
-207
-173
-138
-106
-83
-72
-76
-93
-122
-160
-201
-240
-272
-293
-301
-295
-277
-249
-215
-180
-149
-124
-109
-106
-113
-131
-155
-181
-207
-228
-240
-241
-231
-210
-183
-152
-122
-98
-85
-84
-96
-120
-153
-192
-230
-265
-292
-308
-314
-308
-294
-273
-249
-224
-201
-183
-170
-165
-167
-177
-193
-214
-238
-262
-283
-298
-306
-304
-292
-274
-250
-226
-205
-190
-185
-190
-204
-225
-250
-274
-293
-303
-303
-290
-268
-238
-206
-176
-152
-138
-136
-147
-170
-201
-235
-268
-295
-311
-314
-303
-279
-246
-209
-173
-144
-125
-120
-130
-153
-187
-226
-265
-299
-324
-337
-336
-323
-299
-268
-234
-202
-176
-159
-153
-158
-174
-197
-225
-253
-278
-297
-306
-306
-295
-277
-252
-225
-199
-177
-162
-155
-155
-163
-175
-188
-198
-202
-197
-182
-156
-121
-78
-32
13
52
82
100
104
97
80
57
33
12
-2
-7
-2
13
35
60
86
110
128
140
145
145
140
133
125
120
117
120
127
139
157
177
199
221
241
257
266
267
260
244
222
196
169
145
128
119
121
135
158
188
223
256
284
304
311
305
286
256
219
179
141
111
91
85
92
112
140
171
200
221
228
219
192
150
97
38
-20
-69
-105
-125
-126
-111
-84
-52
-20
4
15
9
-14
-52
-101
-154
-206
-249
-279
-293
-290
-272
-244
-212
-181
-157
-145
-147
-165
-197
-238
-285
-331
-373
-404
-422
-425
-412
-387
-352
-312
-271
-234
-207
-192
-192
-205
-232
-266
-305
-342
-371
-389
-392
-382
-360
-330
-298
-270
-251
-245
-252
-271
-296
-319
-332
-327
-296
-234
-140
-14
141
320
518
730
954
1188
1436
1698
1979
2281
2607
2957
3327
3713
4107
4501
4883
5244
5572
5855
6081
6240
6320
6312
6210
6009
5711
5323
4859
4340
3789
3234
2704
2223
1811
1479
1231
1060
953
892
855
824
782
720
635
528
408
285
172
77
6
-38
-58
-59
-51
-40
-36
-44
-67
-105
-154
-212
-271
-327
-375
-413
-438
-451
-455
-451
-444
-437
-433
-435
-443
-458
-479
-504
-531
-556
-577
-592
-599
-597
-587
-571
-552
-533
-518
-509
-508
-516
-533
-556
-582
-609
-632
-647
-652
-646
-630
-605
-574
-542
-512
-490
-478
-477
-489
-510
-538
-570
-600
-626
-643
-649
-646
-632
-611
-585
-558
-533
-512
-498
-491
-492
-500
-514
-532
-551
-568
-582
-590
-592
-588
-578
-564
-550
-537
-529
-528
-533
-546
-563
-582
-600
-613
-619
-615
-601
-578
-548
-515
-483
-456
-436
-426
-426
-437
-456
-481
-508
-533
-552
-563
-564
-553
-531
-502
-468
-434
-404
-382
-370
-370
-382
-404
-432
-462
-489
-509
-519
-517
-504
-480
-449
-414
-380
-351
-331
-321
-322
-334
-354
-379
-404
-427
-441
-445
-435
-411
-375
-330
-280
-232
-189
-159
-143
-145
-162
-193
-232
-274
-311
-339
-352
-349
-330
-298
-258
-214
-174
-140
-118
-106
-106
-113
-124
-134
-139
-135
-121
-96
-63
-23
20
61
98
127
146
156
155
147
134
120
108
101
104
118
143
180
225
275
327
376
418
449
468
474
468
455
438
421
409
406
413
432
461
497
536
573
604
626
635
631
616
591
561
531
505
487
480
486
503
530
563
597
627
650
661
659
645
619
587
551
518
491
475
471
479
499
526
556
584
604
613
606
582
542
488
425
359
296
241
199
172
161
163
175
191
206
213
209
192
161
120
71
22
-24
-61
-84
-94
-89
-72
-48
-20
7
27
36
33
16
-13
-52
-96
-142
-183
-216
-237
-245
-240
-223
-198
-169
-141
-119
-107
-107
-119
-141
-173
-208
-243
-274
-297
-309
-310
-298
-277
-249
-218
-188
-162
-144
-136
-139
-152
-173
-199
-227
-252
-270
-280
-281
-271
-254
-232
-208
-187
-172
-164
-166
-177
-195
-218
-242
-263
-279
-286
-284
-272
-251
-224
-194
-166
-144
-131
-130
-142
-166
-200
-241
-283
-321
-350
-367
-369
-358
-334
-302
-265
-230
-201
-183
-176
-182
-199
-224
-253
-281
-304
-317
-319
-307
-284
-251
-213
-173
-137
-107
-88
-81
-86
-102
-125
-153
-181
-206
-225
-235
-237
-229
-213
-192
-169
-145
-125
-110
-103
-103
-112
-127
-146
-166
-185
-198
-203
-199
-186
-165
-140
-113
-89
-71
-62
-63
-73
-90
-112
-135
-155
-169
-175
-173
-163
-147
-127
-106
-88
-75
-68
-69
-77
-92
-113
-136
-160
-181
-197
-206
-206
-198
-180
-156
-129
-102
-79
-63
-56
-61
-76
-99
-128
-157
-183
-201
-209
-206
-191
-167
-138
-108
-81
-61
-52
-54
-68
-90
-118
-147
-174
-194
-206
-207
-199
-182
-161
-139
-119
-105
-98
-100
-110
-128
-149
-171
-190
-204
-210
-207
-196
-178
-156
-132
-111
-95
-87
-88
-99
-118
-143
-172
-201
-227
-247
-258
-259
-251
-236
-214
-190
-168
-150
-139
-136
-143
-157
-177
-199
-219
-234
-241
-238
-226
-205
-178
-149
-122
-100
-86
-83
-90
-107
-132
-162
-193
-222
-245
-260
-266
-262
-250
-231
-209
-187
-168
-155
-150
-154
-166
-184
-204
-224
-240
-248
-247
-237
-218
-192
-163
-136
-113
-99
-95
-103
-122
-151
-184
-220
-252
-278
-294
-298
-289
-270
-242
-209
-175
-145
-123
-110
-108
-117
-134
-158
-184
-209
-228
-240
-243
-236
-220
-196
-168
-139
-111
-88
-71
-62
-61
-65
-74
-83
-89
-90
-83
-66
-40
-6
32
71
106
133
149
152
141
119
89
56
23
-4
-22
-28
-21
-2
26
60
97
131
159
179
189
190
182
169
153
139
129
128
135
151
176
206
238
267
290
303
303
291
268
237
201
166
137
118
112
120
142
174
213
253
289
317
332
333
320
294
260
221
183
151
127
115
114
122
138
156
172
182
182
171
148
115
74
29
-16
-57
-90
-114
-128
-131
-125
-114
-100
-88
-80
-78
-87
-104
-132
-166
-204
-243
-279
-308
-327
-335
-331
-317
-295
-269
-243
-221
-207
-202
-208
-224
-247
-274
-302
-327
-345
-354
-353
-343
-325
-302
-278
-256
-241
-233
-234
-244
-261
-283
-305
-326
-341
-348
-348
-341
-330
-317
-304
-295
-291
-290
-292
-290
-281
-259
-216
-150
-57
65
215
391
590
810
1049
1306
1579
1870
2178
2504
2848
3206
3577
3954
4331
4701
5055
5384
5677
5925
6116
6240
6286
6245
6108
5874
5543
5125
4633
4089
3519
2951
2415
1936
1534
1220
995
852
775
745
738
734
716
672
599
500
384
261
145
46
-30
-80
-106
-112
-107
-100
-97
-105
-125
-158
-203
-254
-308
-360
-405
-441
-467
-481
-486
-483
-473
-461
-449
-440
-437
-442
-455
-476
-504
-537
-570
-600
-624
-638
-641
-633
-615
-592
-566
-543
-526
-520
-524
-538
-561
-588
-616
-640
-656
-663
-658
-642
-618
-588
-557
-527
-504
-489
-485
-492
-509
-534
-564
-595
-623
-645
-657
-658
-648
-627
-599
-568
-536
-510
-491
-484
-488
-502
-524
-550
-578
-602
-619
-627
-626
-615
-598
-575
-552
-530
-512
-501
-498
-503
-515
-532
-551
-571
-588
-599
-602
-597
-582
-561
-534
-505
-478
-458
-446
-445
-455
-474
-500
-527
-552
-570
-578
-574
-558
-533
-502
-471
-442
-421
-409
-409
-419
-437
-460
-484
-504
-518
-524
-519
-506
-484
-456
-425
-394
-366
-342
-326
-317
-315
-321
-334
-351
-370
-390
-406
-417
-421
-416
-401
-377
-346
-311
-274
-241
-214
-196
-190
-195
-211
-235
-261
-286
-305
-314
-309
-292
-262
-223
-180
-137
-99
-71
-55
-51
-58
-73
-90
-105
-114
-111
-96
-69
-31
13
60
104
143
171
189
197
196
189
181
175
176
184
202
228
263
302
342
380
412
436
450
452
445
431
412
393
378
371
375
391
419
456
501
547
589
624
647
657
651
633
605
572
538
509
489
481
485
501
526
557
589
618
639
651
650
638
615
585
550
516
486
462
447
440
439
443
447
448
443
429
404
369
325
277
227
181
142
113
96
91
96
107
122
135
143
142
131
109
78
40
-1
-42
-80
-110
-130
-141
-142
-134
-121
-106
-91
-79
-75
-78
-91
-111
-138
-169
-201
-230
-253
-267
-272
-267
-253
-232
-209
-187
-169
-158
-157
-166
-184
-209
-237
-265
-289
-306
-314
-311
-298
-278
-252
-226
-203
-187
-180
-184
-198
-220
-247
-276
-301
-318
-326
-323
-309
-286
-259
-231
-206
-189
-181
-185
-200
-223
-253
-285
-315
-339
-355
-361
-354
-336
-308
-273
-236
-201
-172
-153
-147
-156
-178
-211
-252
-294
-332
-361
-377
-377
-362
-333
-294
-252
-210
-176
-153
-143
-148
-165
-191
-222
-253
-278
-294
-297
-289
-269
-242
-211
-182
-160
-148
-150
-164
-190
-223
-258
-290
-314
-326
-324
-308
-280
-243
-203
-163
-129
-104
-89
-85
-91
-106
-125
-147
-169
-187
-200
-206
-205
-198
-184
-167
-149
-131
-118
-111
-111
-120
-136
-158
-181
-203
-220
-228
-226
-214
-193
-165
-134
-105
-81
-65
-60
-65
-81
-103
-130
-156
-179
-195
-203
-201
-190
-171
-147
-122
-98
-79
-68
-65
-73
-90
-114
-143
-172
-199
-219
-230
-230
-221
-202
-178
-153
-129
-113
-105
-108
-122
-146
-176
-210
-242
-268
-286
-292
-285
-266
-237
-202
-164
-129
-101
-84
-81
-92
-116
-149
-187
-224
-255
-275
-281
-272
-250
-217
-180
-144
-115
-97
-94
-105
-129
-163
-200
-237
-268
-288
-296
-290
-272
-246
-214
-182
-153
-132
-119
-117
-125
-142
-164
-188
-211
-229
-241
-243
-237
-222
-201
-176
-151
-128
-111
-102
-101
-110
-128
-151
-178
-206
-230
-249
-260
-262
-254
-239
-219
-197
-177
-162
-156
-159
-172
-193
-219
-247
-271
-289
-296
-292
-277
-252
-221
-187
-156
-130
-114
-107
-110
-122
-139
-160
-179
-194
-204
-206
-200
-186
-168
-145
-122
-101
-82
-69
-61
-58
-59
-62
-66
-67
-63
-53
-36
-12
17
51
85
116
142
159
165
160
146
123
96
70
47
31
27
34
53
81
116
153
187
216
236
245
243
232
213
190
166
145
129
120
119
125
137
152
168
182
193
198
198
191
179
164
148
133
122
115
115
121
133
149
167
186
201
213
217
214
203
186
163
137
111
87
68
55
48
48
53
60
68
72
70
61
42
15
-20
-59
-99
-136
-167
-189
-202
-204
-198
-186
-171
-157
-148
-146
-153
-169
-193
-222
-253
-283
-308
-325
-334
-332
-321
-304
-281
-258
-238
-224
-218
-222
-235
-257
-283
-311
-336
-356
-366
-366
-354
-331
-302
-269
-237
-211
-195
-191
-199
-220
-251
-286
-321
-351
-369
-373
-360
-328
-279
-214
-135
-47
49
152
260
377
505
648
813
1005
1228
1486
1781
2113
2478
2869
3281
3702
4123
4532
4918
5271
5580
5837
6032
6159
6211
6182
6070
5871
5589
5230
4802
4320
3803
3271
2746
2249
1801
1414
1098
855
682
570
505
473
459
450
436
411
372
321
261
196
131
69
14
-34
-75
-108
-137
-160
-181
-197
-211
-222
-230
-237
-244
-254
-267
-286
-313
-346
-386
-430
-475
-517
-551
-575
-588
-588
-578
-560
-539
-519
-506
-502
-510
-530
-559
-594
-630
-661
-682
-689
-680
-656
-618
-573
-526
-482
-449
-431
-431
-449
-483
-530
-583
-637
-684
-721
-742
-747
-734
-707
-671
-629
-589
-556
-534
-525
-530
-548
-574
-604
-632
-652
-662
-657
-639
-610
-573
-533
-497
-469
-453
-452
-465
-490
-523
-559
-593
-619
-633
-634
-621
-597
-565
-529
-495
-467
-449
-441
-445
-459
-480
-505
-529
-548
-561
-565
-559
-544
-523
-497
-472
-449
-432
-423
-425
-436
-455
-481
-508
-532
-551
-560
-558
-543
-517
-482
-445
-408
-377
-356
-347
-351
-368
-393
-423
-453
-479
-496
-501
-493
-473
-443
-406
-366
-328
-296
-274
-262
-264
-276
-297
-322
-348
-369
-381
-383
-371
-347
-312
-270
-225
-183
-149
-126
-116
-119
-134
-158
-185
-211
-229
-237
-230
-208
-173
-127
-76
-23
24
63
89
103
105
98
85
72
62
58
64
80
105
137
172
208
241
269
289
301
306
306
301
297
295
297
306
322
344
372
402
433
463
487
506
517
522
519
511
500
489
480
475
478
489
510
539
576
617
659
697
727
745
749
738
712
676
632
588
548
518
500
496
504
523
548
574
595
608
609
598
573
538
496
452
410
374
347
333
330
337
352
368
382
389
384
366
333
288
236
180
127
82
50
32
29
38
54
74
90
100
99
87
63
31
-5
-42
-76
-103
-122
-131
-132
-127
-116
-105
-94
-88
-88
-96
-111
-133
-160
-191
-221
-248
-269
-281
-282
-271
-249
-220
-186
-151
-120
-98
-88
-91
-108
-136
-172
-212
-251
-284
-306
-315
-311
-294
-266
-232
-195
-159
-130
-109
-100
-101
-114
-135
-164
-196
-228
-257
-281
-297
-304
-303
-294
-279
-261
-244
-230
-221
-220
-226
-238
-253
-269
-281
-286
-281
-265
-240
-208
-172
-138
-110
-91
-85
-93
-111
-138
-169
-198
-221
-234
-235
-224
-202
-173
-142
-111
-87
-72
-69
-77
-96
-122
-152
-182
-207
-225
-233
-231
-219
-198
-172
-144
-117
-95
-80
-75
-80
-94
-115
-140
-165
-187
-201
-205
-198
-178
-149
-114
-76
-41
-15
0
0
-14
-41
-78
-120
-162
-198
-225
-239
-241
-231
-212
-186
-158
-132
-111
-98
-94
-99
-111
-128
-148
-167
-181
-189
-187
-176
-156
-129
-98
-68
-41
-23
-16
-22
-39
-66
-100
-135
-166
-190
-203
-203
-193
-172
-146
-118
-91
-69
-54
-46
-45
-50
-58
-68
-78
-85
-91
-94
-95
-94
-92
-89
-86
-84
-84
-86
-94
-106
-123
-145
-169
-195
-218
-236
-246
-246
-235
-215
-188
-157
-127
-103
-88
-84
-92
-111
-137
-167
-194
-215
-226
-224
-209
-183
-149
-113
-79
-53
-38
-36
-48
-72
-103
-137
-170
-197
-215
-221
-217
-202
-181
-156
-132
-112
-100
-97
-103
-117
-139
-166
-193
-219
-239
-250
-252
-242
-222
-193
-159
-124
-92
-68
-56
-57
-72
-98
-132
-168
-201
-225
-235
-231
-212
-181
-142
-101
-66
-41
-30
-35
-56
-90
-132
-176
-216
-249
-268
-274
-266
-245
-215
-180
-144
-110
-82
-61
-49
-46
-51
-63
-79
-96
-112
-124
-129
-125
-112
-88
-57
-21
15
48
72
85
85
72
50
24
-2
-21
-28
-20
2
38
83
129
170
201
217
215
197
167
129
91
58
37
31
41
65
101
144
189
230
263
284
292
287
271
246
216
185
155
131
115
107
110
121
141
166
193
221
245
262
270
269
257
237
212
185
162
145
139
144
161
185
212
238
258
265
257
235
199
153
104
56
16
-14
-30
-32
-24
-7
13
32
46
52
49
37
18
-6
-32
-59
-84
-105
-122
-133
-140
-143
-144
-143
-142
-143
-148
-157
-171
-191
-214
-240
-266
-288
-303
-308
-304
-288
-264
-233
-202
-173
-151
-140
-140
-153
-175
-204
-235
-265
-288
-304
-310
-306
-294
-276
-255
-234
-218
-208
-206
-212
-226
-243
-262
-276
-281
-271
-242
-190
-114
-15
106
245
397
560
732
912
1100
1301
1519
1757
2021
2312
2630
2973
3335
3710
4089
4462
4817
5144
5432
5670
5846
5950
5972
5905
5744
5490
5149
4732
4256
3744
3219
2709
2234
1815
1463
1184
974
826
725
658
607
563
514
459
396
330
265
208
161
126
103
87
74
58
35
1
-43
-96
-154
-211
-262
-302
-327
-338
-336
-323
-306
-290
-279
-278
-291
-316
-353
-398
-446
-493
-533
-563
-579
-581
-570
-547
-518
-486
-457
-434
-421
-419
-428
-446
-470
-495
-517
-532
-536
-528
-508
-479
-445
-410
-381
-362
-357
-368
-394
-434
-483
-536
-586
-629
-659
-673
-669
-649
-615
-572
-525
-481
-444
-420
-411
-418
-439
-471
-508
-546
-578
-600
-609
-603
-586
-558
-526
-494
-467
-450
-445
-452
-469
-494
-523
-551
-574
-590
-597
-595
-584
-566
-543
-518
-491
-466
-443
-425
-411
-403
-400
-404
-414
-429
-446
-463
-478
-488
-491
-486
-474
-456
-436
-417
-402
-394
-395
-405
-423
-445
-467
-486
-498
-500
-493
-477
-455
-429
-404
-384
-372
-367
-372
-385
-402
-421
-439
-451
-455
-449
-434
-410
-379
-346
-314
-286
-265
-255
-255
-265
-283
-305
-326
-342
-349
-345
-329
-301
-265
-224
-183
-146
-117
-99
-93
-98
-112
-131
-152
-171
-183
-187
-180
-162
-135
-100
-60
-19
21
54
79
95
100
96
86
72
60
52
52
62
84
116
156
199
242
280
310
328
336
333
322
307
294
286
287
299
323
359
402
449
496
537
568
586
590
580
557
526
491
457
429
410
404
411
431
460
494
528
558
580
589
586
570
543
508
470
433
402
380
368
368
377
394
415
436
452
459
456
439
410
369
319
265
211
162
122
95
82
84
97
119
143
165
178
179
166
139
100
53
5
-39
-74
-96
-104
-98
-84
-64
-44
-29
-23
-28
-44
-70
-101
-135
-167
-194
-213
-224
-226
-220
-209
-195
-180
-167
-159
-158
-164
-178
-199
-225
-254
-283
-307
-323
-326
-316
-293
-257
-214
-170
-130
-101
-88
-95
-122
-166
-221
-281
-338
-384
-412
-422
-411
-382
-342
-297
-253
-217
-194
-187
-194
-214
-244
-278
-310
-337
-354
-359
-352
-334
-307
-273
-238
-206
-180
-163
-158
-165
-183
-208
-238
-266
-289
-302
-303
-292
-269
-237
-201
-167
-139
-122
-118
-127
-148
-178
-213
-248
-278
-301
-314
-315
-307
-291
-270
-247
-225
-207
-195
-190
-192
-199
-211
-226
-240
-252
-260
-262
-258
-247
-232
-214
-194
-177
-163
-156
-157
-165
-180
-200
-224
-247
-267
-282
-289
-288
-278
-261
-238
-213
-189
-169
-156
-152
-158
-173
-196
-223
-251
-275
-292
-298
-292
-274
-244
-206
-164
-125
-92
-70
-64
-73
-97
-133
-176
-220
-260
-290
-307
-308
-293
-266
-232
-195
-161
-137
-125
-127
-143
-170
-203
-236
-265
-284
-290
-283
-262
-232
-196
-159
-128
-104
-93
-95
-109
-133
-164
-197
-229
-254
-270
-277
-272
-257
-236
-210
-184
-161
-144
-135
-136
-145
-162
-183
-205
-226
-243
-253
-255
-250
-239
-224
-206
-190
-178
-172
-173
-181
-196
-217
-240
-263
-282
-295
-301
-297
-285
-266
-242
-217
-192
-173
-160
-155
-159
-170
-188
-209
-230
-250
-265
-274
-275
-268
-255
-238
-219
-201
-186
-179
-179
-188
-204
-227
-251
-275
-294
-306
-309
-301
-284
-259
-232
-204
-180
-164
-156
-159
-172
-193
-218
-246
-271
-291
-302
-304
-294
-274
-247
-215
-182
-153
-132
-122
-126
-142
-170
-207
-245
-281
-309
-324
-324
-309
-281
-244
-204
-167
-137
-120
-117
-127
-148
-176
-205
-229
-244
-247
-236
-211
-176
-134
-89
-48
-13
13
28
32
28
20
9
0
-4
-2
7
21
38
55
69
78
79
72
57
36
13
-10
-29
-41
-44
-37
-20
7
40
78
117
154
186
211
225
228
221
203
178
148
118
91
70
60
60
71
91
117
145
171
190
199
198
185
162
133
101
70
45
29
24
30
46
69
97
123
145
158
158
145
118
81
35
-14
-62
-103
-134
-153
-158
-152
-136
-115
-93
-75
-63
-61
-70
-89
-117
-152
-191
-230
-265
-294
-315
-326
-328
-321
-309
-293
-277
-265
-259
-261
-271
-288
-310
-333
-353
-368
-373
-369
-355
-332
-305
-277
-252
-234
-225
-226
-237
-257
-281
-308
-332
-353
-367
-373
-372
-364
-352
-338
-323
-309
-298
-287
-278
-267
-253
-233
-203
-160
-102
-26
72
191
333
498
687
898
1129
1379
1646
1929
2226
2536
2858
3190
3529
3874
4219
4556
4877
5171
5423
5619
5745
5787
5735
5584
5332
4988
4563
4077
3555
3022
2506
2032
1618
1279
1020
837
720
655
622
603
581
545
488
409
311
205
99
3
-74
-128
-158
-167
-160
-145
-129
-121
-125
-144
-177
-222
-274
-327
-375
-415
-442
-456
-458
-450
-436
-422
-411
-408
-414
-431
-457
-490
-527
-563
-594
-616
-627
-626
-614
-593
-566
-538
-512
-491
-479
-477
-485
-502
-525
-553
-581
-606
-626
-639
-642
-636
-621
-600
-574
-548
-524
-507
-498
-499
-511
-533
-561
-592
-622
-646
-661
-664
-655
-634
-604
-568
-533
-501
-478
-465
-465
-476
-498
-526
-557
-586
-610
-626
-632
-628
-615
-595
-570
-544
-521
-503
-492
-490
-497
-511
-531
-551
-570
-583
-587
-581
-565
-540
-509
-477
-449
-429
-420
-425
-442
-471
-506
-542
-575
-599
-611
-609
-593
-564
-528
-487
-449
-416
-393
-382
-384
-397
-420
-448
-478
-505
-524
-534
-533
-521
-500
-471
-439
-408
-381
-362
-353
-354
-365
-383
-405
-429
-449
-464
-470
-466
-453
-431
-402
-371
-340
-313
-293
-282
-280
-287
-301
-319
-336
-349
-355
-349
-332
-304
-267
-224
-181
-141
-110
-89
-80
-83
-95
-112
-131
-147
-155
-153
-139
-113
-77
-33
13
60
101
134
157
168
168
159
145
128
114
106
107
119
143
175
214
256
296
330
354
367
368
358
340
319
299
285
281
290
312
346
388
434
478
515
540
550
546
527
498
463
426
395
373
362
365
380
404
434
465
492
512
522
519
504
479
447
412
378
350
331
323
328
342
363
386
406
418
419
405
377
336
286
231
178
131
94
69
57
56
63
74
86
94
96
90
75
53
26
-5
-36
-64
-88
-106
-117
-122
-120
-114
-105
-97
-92
-91
-98
-112
-134
-163
-196
-231
-264
-291
-310
-319
-316
-303
-282
-255
-228
-203
-185
-177
-179
-191
-212
-238
-266
-290
-308
-317
-316
-306
-287
-263
-237
-212
-192
-179
-173
-176
-187
-204
-227
-251
-275
-297
-314
-326
-331
-330
-323
-312
-300
-287
-278
-273
-274
-281
-293
-309
-325
-338
-347
-349
-342
-326
-303
-276
-247
-220
-198
-184
-180
-185
-200
-221
-245
-268
-287
-297
-299
-289
-271
-245
-217
-191
-170
-160
-161
-176
-202
-235
-272
-307
-335
-351
-353
-341
-316
-282
-243
-205
-172
-148
-136
-136
-148
-169
-197
-227
-257
-282
-299
-306
-303
-290
-267
-238
-205
-172
-143
-121
-110
-111
-124
-146
-176
-208
-238
-261
-274
-275
-264
-242
-214
-185
-158
-139
-131
-134
-148
-171
-199
-225
-247
-259
-260
-248
-226
-196
-162
-129
-100
-81
-73
-77
-93
-119
-151
-185
-218
-244
-262
-268
-263
-247
-223
-194
-163
-135
-112
-98
-93
-98
-112
-132
-155
-179
-200
-215
-225
-228
-225
-217
-206
-196
-187
-183
-184
-191
-204
-222
-242
-262
-279
-290
-294
-288
-273
-251
-222
-190
-159
-133
-113
-104
-106
-119
-140
-167
-196
-224
-247
-262
-266
-261
-246
-224
-199
-175
-155
-143
-141
-148
-165
-189
-217
-243
-265
-280
-285
-280
-266
-246
-225
-205
-190
-184
-188
-201
-222
-248
-274
-297
-313
-319
-314
-299
-275
-246
-215
-187
-165
-152
-150
-158
-175
-199
-226
-254
-278
-297
-307
-308
-300
-283
-259
-230
-201
-175
-154
-141
-139
-149
-169
-198
-231
-265
-294
-315
-322
-315
-295
-264
-227
-189
-157
-136
-128
-135
-157
-189
-228
-268
-303
-330
-345
-348
-339
-320
-294
-265
-237
-211
-192
-180
-177
-182
-195
-214
-235
-256
-273
-283
-285
-276
-259
-234
-204
-175
-150
-134
-128
-134
-151
-176
-206
-235
-258
-273
-275
-264
-240
-206
-166
-123
-82
-48
-22
-6
0
-3
-11
-21
-29
-32
-27
-15
5
29
56
80
98
108
107
95
74
47
19
-7
-25
-33
-29
-13
15
51
92
134
172
203
224
235
234
224
207
184
159
135
115
102
96
99
110
129
153
180
208
232
252
263
266
260
247
228
205
182
160
143
131
124
123
125
129
134
138
139
138
134
127
118
108
97
86
74
63
51
40
27
14
-2
-20
-41
-65
-92
-121
-151
-179
-202
-219
-228
-229
-221
-208
-190
-173
-160
-155
-161
-178
-206
-243
-286
-330
-370
-403
-424
-432
-426
-407
-379
-345
-310
-278
-253
-239
-237
-246
-266
-294
-324
-354
-379
-395
-400
-393
-374
-346
-312
-278
-247
-225
-213
-216
-232
-260
-298
-340
-381
-415
-436
-438
-417
-372
-303
-210
-98
32
175
329
493
666
853
1056
1280
1531
1813
2127
2475
2851
3251
3664
4079
4483
4864
5209
5506
5746
5920
6022
6047
5993
5857
5641
5351
4992
4575
4116
3632
3140
2662
2214
1813
1470
1190
973
814
704
630
581
545
513
477
434
383
326
265
202
139
78
18
-40
-96
-151
-202
-249
-289
-320
-340
-351
-352
-347
-339
-333
-332
-341
-361
-392
-433
-479
-526
-569
-603
-626
-635
-631
-616
-592
-564
-538
-516
-504
-503
-514
-538
-571
-609
-649
-685
-713
-730
-732
-721
-698
-666
-630
-595
-566
-546
-538
-542
-557
-578
-602
-625
-642
-651
-650
-640
-623
-601
-579
-559
-545
-539
-542
-553
-571
-594
-618
-641
-660
-673
-678
-675
-664
-646
-624
-601
-579
-561
-550
-547
-551
-563
-581
-601
-621
-637
-647
-649
-642
-626
-604
-579
-553
-530
-514
-507
-510
-523
-544
-570
-599
-625
-646
-657
-658
-646
-624
-594
-560
-524
-492
-468
-454
-452
-461
-479
-503
-528
-551
-568
-575
-571
-557
-533
-503
-471
-440
-415
-398
-391
-394
-407
-427
-452
-478
-501
-518
-528
-528
-518
-498
-472
-440
-408
-377
-352
-334
-325
-326
-335
-351
-370
-390
-406
-415
-416
-407
-390
-364
-334
-302
-270
-242
-221
-207
-200
-201
-208
-218
-229
-238
-242
-241
-232
-215
-192
-164
-134
-104
-77
-55
-39
-30
-26
-26
-27
-25
-18
-4
20
53
93
139
185
229
265
291
305
306
296
278
256
236
223
220
230
253
287
329
374
417
453
478
489
486
471
447
420
393
373
362
363
377
402
435
471
507
537
558
568
565
551
528
499
468
439
416
402
398
405
421
442
466
488
504
509
501
480
446
402
353
302
255
217
191
179
180
192
212
233
251
262
262
248
223
188
146
103
63
29
4
-10
-15
-13
-8
-3
-1
-6
-20
-43
-73
-109
-148
-186
-220
-248
-267
-276
-275
-265
-248
-227
-206
-187
-173
-168
-171
-183
-204
-229
-257
-282
-302
-312
-311
-299
-276
-245
-212
-180
-155
-141
-141
-155
-182
-220
-264
-307
-346
-374
-391
-393
-383
-364
-338
-311
-287
-270
-263
-266
-279
-301
-327
-355
-380
-399
-410
-411
-401
-383
-357
-328
-298
-271
-251
-239
-238
-246
-262
-284
-308
-331
-348
-356
-353
-339
-315
-283
-246
-209
-175
-150
-136
-135
-146
-167
-196
-230
-263
-292
-313
-325
-326
-318
-302
-281
-258
-238
-222
-214
-214
-222
-236
-255
-275
-295
-310
-320
-322
-315
-301
-281
-256
-230
-207
-187
-175
-172
-178
-192
-212
-234
-256
-273
-283
-283
-274
-256
-233
-208
-185
-167
-158
-159
-168
-185
-206
-226
-243
-254
-255
-248
-232
-210
-185
-160
-139
-123
-116
-116
-125
-140
-160
-182
-202
-219
-230
-234
-230
-220
-205
-187
-168
-153
-143
-139
-143
-155
-172
-195
-219
-242
-261
-273
-278
-273
-260
-240
-213
-184
-155
-129
-110
-99
-99
-108
-126
-150
-177
-202
-222
-234
-237
-230
-215
-195
-174
-155
-144
-141
-148
-164
-187
-213
-239
-260
-274
-278
-273
-258
-237
-211
-185
-161
-142
-131
-128
-134
-148
-168
-192
-217
-240
-258
-269
-271
-264
-248
-226
-200
-175
-154
-143
-143
-155
-179
-211
-247
-283
-312
-331
-336
-327
-305
-274
-240
-206
-179
-162
-158
-165
-184
-209
-236
-260
-278
-286
-282
-268
-244
-214
-182
-152
-128
-113
-110
-118
-138
-168
-203
-241
-277
-307
-328
-337
-335
-321
-298
-269
-238
-208
-183
-167
-159
-161
-172
-189
-209
-231
-249
-263
-270
-269
-261
-248
-231
-213
-197
-186
-181
-185
-196
-214
-236
-260
-282
-299
-308
-307
-295
-274
-245
-212
-179
-148
-123
-107
-101
