-56
18
-392
44
1485
2604
3701
4668
3927
2326
1472
910
370
242
337
-47
-492
-189
-230
-631
-369
-169
-417
-531
-395
-456
-597
-287
-250
-549
-378
-344
-665
-608
-359
-519
-648
-322
-255
-505
-308
-128
-281
-197
59
-69
-246
60
83
-179
73
287
-29
-73
168
31
29
282
189
61
244
305
111
138
454
315
4
339
296
-101
191
329
-57
-147
230
91
-293
-24
19
-265
-84
55
-283
-216
109
-167
-311
161
80
-337
-71
146
-98
-165
49
-25
-166
80
110
-70
-67
-35
-47
-7
168
-14
-196
154
132
-201
-21
219
-90
-69
306
31
-190
112
168
-71
-33
224
78
-114
234
198
-85
295
459
155
270
444
202
182
507
503
352
446
475
259
134
258
140
-58
153
130
-208
-100
-15
-327
-220
99
-163
-285
-90
-530
-488
961
2331
3326
4225
3847
2324
1260
811
375
50
-110
-454
-736
-406
-245
-662
-617
-315
-530
-624
-332
-317
-618
-560
-262
-419
-527
-274
-450
-637
-322
-399
-667
-460
-441
-617
-436
-219
-365
-500
-217
-189
-425
-126
71
-289
-203
147
-35
-200
2
-53
-288
55
242
-244
-154
213
-34
-147
138
160
-191
-6
174
-314
-304
102
-54
-260
-65
-80
-329
-157
40
-301
-274
86
-146
-209
73
-108
-256
-23
84
-211
-215
148
4
-287
-34
99
-154
-85
53
-183
-143
186
-18
-230
59
91
-252
-71
125
-292
-270
135
-104
-322
76
-15
-402
-155
131
-119
-172
213
58
-231
129
109
-268
211
488
78
255
474
122
46
266
154
-112
-61
82
-189
-285
43
-136
-383
-98
-68
-324
-128
35
-432
-525
381
1299
2488
4325
4672
3362
2361
1515
609
389
398
-154
-517
-200
-212
-626
-496
-232
-544
-597
-298
-443
-613
-279
-219
-610
-437
-225
-541
-483
-171
-317
-505
-165
-137
-469
-251
-115
-494
-437
-16
-177
-338
-132
-145
-331
-55
180
-182
-151
131
-32
-128
61
-12
-198
22
185
-64
-6
330
89
-153
215
151
-235
-12
138
-215
-255
125
6
-238
68
-43
-318
3
70
-216
-120
94
-54
-227
-11
61
-279
-91
138
-246
-175
129
-120
-215
4
0
-167
-64
103
-146
-127
166
-75
-209
101
-33
-290
-51
0
-248
-109
135
-140
-275
34
-88
-346
-103
113
-60
-36
204
-4
-124
211
202
-36
271
489
128
149
362
89
-119
113
-36
-394
-144
-56
-385
-363
-265
-525
-581
-285
-246
-519
-563
-321
262
1606
3335
4343
4087
3152
2069
796
165
50
-711
-1246
-1050
-1272
-1617
-1492
-1550
-1721
-1451
-1257
-1471
-1398
-1071
-1359
-1590
-1110
-1148
-1537
-1232
-984
-1330
-1304
-908
-1166
-1337
-866
-1005
-1382
-999
-824
-1207
-1075
-786
-1053
-1075
-740
-848
-945
-607
-532
-820
-787
-476
-668
-860
-503
-499
-748
-443
-283
-636
-552
-184
-522
-743
-311
-460
-776
-471
-456
-817
-704
-409
-606
-733
-505
-596
-692
-465
-437
-680
-563
-256
-534
-682
-380
-463
-631
-379
-294
-624
-592
-257
-392
-550
-324
-351
-607
-413
-212
-552
-517
-169
-400
-543
-261
-349
-620
-395
-236
-577
-594
-209
-399
-532
-177
-315
-497
-198
-117
-371
-200
46
-248
-267
150
110
-140
92
204
-98
-68
115
-225
-469
-150
-211
-580
-352
-240
-641
-533
-132
-358
-585
-230
-284
-757
-580
140
983
2442
4180
4292
3072
2196
1266
335
258
129
-472
-542
-338
-628
-805
-511
-592
-898
-581
-373
-743
-736
-526
-642
-649
-322
-413
-741
-528
-365
-512
-489
-250
-400
-518
-137
-188
-526
-250
-36
-393
-252
222
-8
-143
268
293
-13
162
446
164
103
437
169
-21
356
284
46
362
376
-187
16
444
5
-197
25
-12
-164
24
238
-55
24
319
29
-93
322
355
70
252
362
75
171
490
240
174
590
427
47
394
559
185
297
542
290
174
503
415
91
342
528
234
179
443
262
102
460
378
59
378
436
75
204
405
187
124
405
288
61
352
491
283
404
632
347
238
712
597
304
690
849
405
352
700
316
106
432
184
-105
135
268
-58
-42
277
-27
-213
246
205
-301
-181
490
1270
2743
4457
4599
3564
2654
1604
803
807
528
-91
-117
80
-237
-443
-87
-162
-402
-174
-89
-348
-310
-40
-323
-443
-62
-197
-415
-67
-9
-360
-261
-11
-208
-276
41
-52
-357
-13
108
-372
-128
270
-116
-223
145
66
-149
122
232
-78
-106
168
106
-21
296
223
-79
227
306
61
211
293
8
-41
246
139
-194
21
79
-218
-21
195
-85
-162
125
9
-231
63
157
-180
-97
189
4
-201
78
111
-186
82
215
-191
-6
279
-163
-219
208
98
-147
102
129
-230
-154
73
-58
-142
153
51
-285
7
107
-235
-110
127
-155
-220
126
-60
-402
-86
-32
-303
-91
87
-92
-45
316
199
-206
43
298
57
226
491
196
153
493
278
-71
175
136
-230
-116
24
-264
-374
-15
-82
-433
-115
-93
-446
-190
-179
-525
3
1411
2756
3864
4543
3857
2344
1436
980
467
200
144
-246
-545
-375
-379
-573
-471
-319
-587
-734
-379
-342
-620
-459
-315
-552
-439
-256
-575
-548
-198
-365
-599
-402
-257
-390
-302
-101
-372
-482
-92
-164
-423
-103
8
-389
-183
210
-167
-210
199
-68
-339
48
132
-181
29
251
-49
-123
170
154
-114
97
199
-204
-136
137
-113
-249
95
-98
-515
-60
134
-326
-186
170
-220
-299
125
-127
-321
5
5
-237
-137
19
-167
-229
42
-59
-299
-48
61
-130
-53
107
-136
-215
140
7
-299
47
160
-231
-116
38
-200
-233
23
-18
-323
24
113
-290
-73
156
-129
-230
87
-45
-343
-60
44
-138
27
244
39
-144
108
178
46
381
424
82
273
491
190
-8
251
106
-294
-82
-9
-373
-211
31
-329
-406
-16
-137
-445
-149
-97
-715
-371
902
1862
3288
4719
4255
2869
2076
1225
515
449
255
-282
-451
-248
-445
-742
-461
-274
-582
-546
-314
-590
-691
-327
-391
-638
-373
-275
-544
-511
-262
-501
-586
-160
-301
-508
-221
-241
-512
-307
-114
-362
-325
-48
-138
-307
-29
-13
-297
-38
52
-259
-260
-17
-87
-313
-97
10
-228
-114
118
-94
-164
173
17
-318
-88
24
-258
-177
20
-308
-399
-25
-94
-377
-123
32
-315
-235
95
-205
-332
6
-59
-338
-171
-15
-268
-152
5
-342
-216
178
-94
-352
14
130
-241
-178
75
-197
-248
35
-195
-334
-14
-60
-307
-131
53
-199
-299
24
-133
-398
-30
24
-254
-96
56
-233
-288
-1
-197
-292
128
140
-150
30
276
-28
-82
329
253
45
417
478
26
129
375
29
-129
114
-89
-447
-176
24
-313
-250
-49
-375
-342
42
-122
-416
-282
70
676
2108
3879
4499
3880
2876
1641
675
614
400
-286
-234
-47
-500
-518
-145
-462
-744
-317
-372
-821
-505
-255
-640
-677
-352
-521
-805
-517
-401
-750
-586
-200
-502
-619
-172
-219
-433
-154
-129
-443
-260
-12
-237
-290
-51
-114
-317
8
151
-223
-66
190
-119
-88
247
117
-92
187
272
-54
79
282
-31
-99
219
35
-279
-28
115
-241
-217
117
-77
-190
48
-113
-255
66
79
-193
-37
126
-151
-128
132
-115
-178
173
61
-274
-36
231
-67
-104
211
-15
-281
121
249
-202
-110
183
-184
-183
232
-2
-248
80
70
-254
-32
91
-233
-209
87
-26
-279
25
81
-330
-134
129
-221
-201
245
94
-173
124
182
-123
62
396
203
-31
339
395
59
288
292
-120
-43
58
-318
-362
-49
-224
-452
-147
-132
-445
-196
28
-360
-543
-333
21
949
2719
4208
4209
3427
2512
1170
438
655
224
-341
-218
-265
-542
-482
-315
-539
-665
-416
-449
-682
-463
-326
-676
-532
-216
-658
-630
-116
-392
-636
-288
-242
-530
-373
-151
-435
-551
-154
-94
-453
-234
-46
-390
-299
-4
-230
-245
156
21
-285
-12
91
-196
-55
123
-188
-182
225
90
-186
101
131
-181
-97
23
-190
-211
22
-155
-331
-74
-58
-337
-213
-3
-327
-369
22
-94
-357
-106
-22
-391
-305
75
-105
-261
38
-66
-359
-25
118
-260
-142
115
-183
-209
97
-81
-277
47
100
-281
-170
137
-166
-269
50
-153
-404
-74
82
-255
-225
43
-188
-298
11
-180
-424
17
96
-316
-218
74
-267
-318
46
-156
-312
-46
79
-185
-136
243
-45
-153
257
152
57
415
438
24
21
186
-41
-71
91
-223
-477
-246
-185
-482
-398
-51
-320
-539
-115
-149
-495
-400
-195
446
1950
3557
4294
3957
3107
1819
597
584
522
-218
-312
-187
-574
-731
-384
-424
-655
-406
-364
-683
-605
-357
-526
-627
-382
-403
-618
-444
-388
-635
-437
-241
-523
-567
-295
-347
-482
-239
-121
-436
-371
-90
-324
-336
9
-71
-313
-121
-4
-206
-98
70
-55
-137
74
18
-249
38
192
-73
41
205
-126
-248
25
-84
-367
-52
114
-299
-261
16
-243
-397
2
-68
-512
-202
-76
-408
-122
95
-294
-350
-3
-223
-457
-98
-5
-329
-254
4
-265
-287
39
-119
-330
-171
-34
-190
-105
94
-211
-299
6
-93
-278
-69
61
-246
-260
80
-225
-375
59
-87
-439
-112
96
-253
-202
80
-270
-382
80
-48
-323
22
26
-386
-130
140
-212
-180
115
-130
-284
50
183
-43
52
286
35
-113
251
317
49
410
534
7
202
490
59
-93
172
-36
-358
-119
-92
-400
-193
10
-353
-356
-15
-163
-393
-301
-89
649
2087
3622
4413
3983
3118
1959
705
643
686
-62
-241
-152
-439
-518
-317
-423
-682
-419
-276
-561
-430
-221
-569
-733
-317
-352
-640
-254
-119
-491
-421
-188
-395
-466
-117
-233
-558
-208
-87
-482
-324
12
-181
-334
-67
-40
-226
36
82
-228
-19
230
-95
-174
186
64
-161
136
214
-73
58
266
-32
-144
88
36
-211
-88
124
-157
-167
142
-185
-341
35
-86
-308
-130
-57
-249
-208
-15
-245
-246
65
-136
-332
43
63
-324
-136
138
-172
-222
97
-17
-214
37
152
-232
-244
125
-95
-275
94
-6
-335
-64
51
-313
-135
139
-293
-290
158
-90
-365
-73
-38
-311
-197
34
-175
-412
-121
-109
-403
-57
85
-288
-183
7
-287
-360
-47
-124
-379
-104
32
-290
-167
138
-106
-175
95
-107
-176
245
313
62
214
415
58
-62
299
60
-392
-132
20
-354
-312
-48
-315
-406
-136
-230
-481
-191
-41
-659
-505
638
1672
3091
4544
4266
2867
2116
1281
379
409
340
-342
-569
-291
-454
-697
-461
-402
-689
-612
-342
-607
-690
-322
-441
-677
-425
-314
-637
-551
-238
-552
-647
-243
-312
-528
-299
-184
-537
-458
-71
-326
-436
-45
-74
-354
-196
2
-207
-156
114
-171
-244
158
50
-247
-24
131
-121
-25
241
6
-107
155
70
-218
77
191
-256
-145
76
-218
-283
50
-39
-364
-101
35
-324
-203
109
-155
-275
4
-40
-256
-88
-36
-194
36
125
-215
-228
179
90
-212
18
189
-126
-216
132
-12
-209
111
-33
-412
15
148
-371
-156
180
-152
-257
111
6
-351
-149
58
-216
-189
33
-238
-277
30
-15
-227
-33
118
-303
-339
44
-170
-286
20
-92
-372
-98
108
-288
-274
166
-59
-298
137
160
-167
133
336
27
145
483
182
-14
297
179
-117
33
77
-255
-336
-100
-197
-355
-79
-128
-527
-274
-100
-630
-752
-462
-188
742
2522
3926
4249
3799
2618
1223
623
613
115
-406
-288
-351
-655
-488
-350
-657
-693
-433
-590
-830
-447
-255
-588
-449
-366
-726
-705
-577
-915
-1140
-888
-894
-1120
-893
-818
-1122
-1012
-727
-917
-1030
-700
-737
-907
-540
-377
-607
-420
-174
-444
-603
-468
-525
-703
-512
-409
-724
-626
-361
-575
-695
-368
-491
-809
-423
-357
-746
-736
-607
-732
-778
-501
-650
-952
-621
-510
-850
-715
-496
-811
-849
-449
-516
-705
-413
-288
-502
-385
-130
-321
-372
-102
-120
-325
-188
5
-259
-291
44
-184
-368
17
-28
-336
-200
8
-194
-274
-4
-136
-296
11
-41
-412
-249
-13
-317
-352
-39
-205
-371
-119
-155
-420
-170
-2
-407
-326
49
-280
-425
-29
-152
-537
-306
-11
-259
-180
136
-156
-298
30
32
-191
85
280
-23
164
389
-40
-186
92
-32
-412
-245
-38
-423
-396
-133
-436
-445
-117
-237
-540
-283
-222
-653
14
1581
2645
3800
4607
3502
1960
1258
780
300
64
16
-365
-622
-327
-430
-809
-528
-347
-707
-714
-484
-492
-530
-504
-519
-659
-487
-312
-586
-564
-353
-520
-541
-214
-293
-604
-337
-53
-390
-405
56
-144
-385
32
-29
-357
-70
82
-204
-132
116
-49
-152
58
-19
-254
-17
159
-157
-143
256
90
-94
312
215
-264
-18
195
-134
-86
158
-88
-255
110
103
-218
-7
113
-174
-93
199
-62
-287
200
217
-215
19
129
-120
-75
202
70
-190
134
109
-167
110
169
-79
-31
159
30
-153
129
111
-215
2
154
-100
-5
103
-195
-232
127
154
-180
-45
116
-209
-204
113
-89
-278
90
81
-326
-80
161
-275
-232
101
-157
-290
25
8
-277
-75
167
-84
-77
279
74
-137
199
284
36
131
495
272
88
421
169
-166
46
-30
-372
-231
-37
-356
-411
-99
-193
-375
-137
-108
-535
-540
-77
475
1708
3425
4351
4061
3230
2067
805
532
604
-107
-366
-199
-563
-605
-322
-499
-725
-562
-444
-666
-686
-364
-503
-720
-401
-354
-661
-551
-305
-553
-616
-263
-344
-584
-445
-344
-410
-237
-132
-409
-375
-28
-297
-500
-4
-38
-410
-44
72
-306
-190
53
-62
-171
92
106
-220
-16
257
-59
-75
257
6
-277
-59
12
-210
-101
75
-216
-273
32
-154
-403
-121
-65
-364
-191
82
-258
-349
93
-49
-320
-42
-84
-300
-31
157
-195
-292
84
-58
-348
4
79
-327
-96
164
-166
-141
127
-101
-284
67
62
-308
-38
152
-312
-274
112
-137
-305
47
-57
-345
-17
163
-236
-300
76
-40
-334
-37
55
-284
-93
39
-350
-211
84
-209
-302
34
-46
-266
59
240
-102
-148
226
67
-121
338
329
45
329
407
59
40
228
-2
-286
-204
-200
-396
-244
-13
-367
-471
-104
-235
-473
-171
-216
-674
25
1482
2568
3859
4703
3645
2156
1464
763
355
293
-15
-440
-554
-284
-479
-814
-412
-340
-698
-464
-239
-584
-658
-338
-450
-685
-383
-319
-629
-398
-214
-495
-510
-321
-434
-561
-282
-243
-556
-374
-107
-328
-320
-1
-126
-357
-74
-45
-427
-271
32
-235
-255
72
-72
-249
-26
56
-146
-13
240
8
-126
159
40
-262
-3
51
-307
-176
61
-258
-330
21
-136
-365
-60
-14
-347
-233
39
-198
-312
-58
-138
-278
-55
-21
-278
-166
27
-259
-241
125
-41
-299
29
45
-322
-80
84
-111
-154
-34
2
-188
-53
66
-208
-135
133
-89
-234
84
-77
-401
3
128
-312
-178
103
-260
-249
153
-54
-307
1
70
-284
-212
71
-139
-261
93
138
-117
102
260
-95
55
382
134
146
533
384
111
400
391
-23
60
191
-206
-322
8
-85
-438
-412
-479
-870
-711
-478
-830
-899
-742
-654
126
1771
3412
4077
3659
2633
1209
264
269
-26
-702
-689
-585
-1015
-925
-677
-1088
-1059
-691
-919
-1198
-828
-625
-1004
-848
-582
-896
-908
-551
-656
-940
-640
-520
-810
-690
-483
-686
-717
-339
-427
-734
-452
-301
-595
-508
-219
-454
-521
-133
-244
-460
-176
-112
-395
-265
-55
-345
-386
1
-55
-285
6
16
-349
-226
36
-278
-520
-66
-89
-442
-183
-98
-488
-376
-45
-426
-506
-70
-217
-480
-162
-73
-495
-320
51
-198
-280
-86
-210
-304
-29
43
-286
-218
134
-91
-278
44
20
-292
-92
64
-276
-142
242
-145
-316
57
-50
-285
-92
45
-251
-188
141
-126
-253
-2
-56
-239
-133
31
-108
-101
-30
-201
-147
125
13
-233
58
260
-49
-2
253
-12
13
486
396
130
364
441
81
110
405
128
-159
107
55
-298
-78
77
-287
-262
-5
-179
-174
155
-69
-469
9
1079
2181
3705
4961
4230
2763
2009
1078
407
505
214
-367
-334
-139
-344
-575
-210
-122
-527
-307
-203
-559
-462
-181
-409
-609
-214
-220
-571
-248
-143
-544
-310
53
-325
-453
-115
-183
-320
-13
84
-206
-147
116
-48
-213
143
189
-170
22
265
-46
1
289
56
-8
176
91
4
205
381
86
82
381
-19
-154
296
148
-132
80
146
-150
-138
62
-101
-174
160
101
-296
-31
141
-262
-129
154
-111
-158
170
99
-170
87
264
-72
-25
269
-83
-240
244
187
-128
67
176
-1
-13
158
62
-100
135
97
-316
-26
293
-100
-74
257
16
-260
34
76
-227
36
196
-130
-101
156
-51
-207
36
13
-92
184
289
-23
46
324
134
92
411
318
130
441
476
63
133
358
76
-62
63
-78
-310
-109
28
-277
-253
7
-154
-344
-66
-120
-574
-199
730
1748
3442
4780
4280
2996
2142
1226
457
461
317
-272
-374
-169
-394
-597
-293
-284
-591
-402
-284
-664
-499
-47
-355
-553
-233
-270
-503
-283
-78
-382
-420
-113
-284
-432
-126
-180
-446
-132
135
-265
-302
161
-121
-318
180
84
-213
61
198
-52
-40
180
6
-68
275
278
-78
71
347
-11
-22
350
115
-138
157
159
-311
-77
247
-133
-159
122
-34
-292
-37
115
-152
-84
143
-68
-108
131
-76
-169
233
211
-170
28
299
38
35
368
217
55
321
373
118
269
573
230
159
542
296
56
387
404
85
285
454
111
170
446
260
112
389
375
17
285
500
-19
60
553
155
-81
450
389
-41
231
445
75
155
548
379
248
538
466
165
442
672
367
456
839
563
281
627
633
211
324
432
-12
46
330
-19
-114
260
174
-148
83
194
-210
-183
156
481
1444
3185
4533
4439
3761
2903
1463
781
967
516
-76
-5
-77
-366
-152
-20
-370
-355
-39
-252
-484
-146
-72
-478
-255
21
-377
-357
-6
-196
-353
3
-24
-377
-130
83
-205
-235
66
-38
-312
54
177
-122
73
252
-35
-31
313
164
-32
169
119
-99
142
470
213
-11
337
317
52
348
365
9
118
297
7
-70
227
-11
-262
132
212
-132
-67
181
-53
-157
129
-30
-151
214
176
-281
-72
225
-156
-165
189
35
-218
33
123
-194
-39
203
-195
-174
278
10
-304
61
203
-198
-84
182
-86
-90
153
-84
-238
86
8
-296
-17
164
-195
-165
122
-106
-292
44
23
-337
-64
116
-222
-210
17
-178
-275
90
42
-283
-108
59
-204
-95
311
128
-131
197
284
-41
192
468
241
148
274
127
-21
211
122
-245
-107
75
-304
-347
-83
-329
-339
-29
-119
-350
-224
-270
-475
385
1984
3167
4163
4441
3350
1961
1137
803
381
44
4
-367
-625
-387
-392
-684
-562
-333
-627
-635
-311
-495
-671
-431
-299
-545
-523
-280
-573
-624
-214
-411
-637
-289
-299
-593
-389
-88
-327
-435
-127
-169
-345
-65
55
-365
-249
141
-169
-237
126
-17
-234
21
99
-228
-131
131
-78
-44
254
75
-156
36
90
-174
-105
60
-251
-314
-2
-128
-323
-105
-92
-373
-286
-29
-233
-284
53
-126
-417
-99
4
-341
-159
85
-234
-243
90
-104
-317
3
-3
-276
-124
94
-180
-211
152
-100
-272
64
6
-266
-59
97
-237
-192
52
-60
-188
-78
3
-333
-189
160
-196
-301
14
-143
-332
13
40
-333
-192
58
-240
-271
86
-101
-377
-59
-19
-327
-131
67
-153
-116
206
69
-181
36
147
-22
198
471
193
99
385
238
-116
94
107
-347
-243
17
-290
-348
1
-196
-494
-265
-131
-296
-317
-264
-40
969
2619
3980
4449
3942
2708
1353
714
690
255
-134
-76
-382
-569
-275
-358
-660
-502
-350
-572
-570
-292
-344
-540
-353
-225
-566
-463
-120
-443
-440
-120
-316
-458
-208
-139
-371
-260
-43
-304
-327
40
-79
-335
9
106
-280
-61
216
-90
-88
250
74
-203
141
268
-62
88
259
-26
47
361
195
-111
110
255
-249
-203
179
-102
-172
116
-1
-290
-44
98
-242
-113
129
-153
-248
93
-45
-344
17
126
-248
-154
144
-71
-207
37
-64
-276
66
209
-155
-149
97
-38
-140
168
99
-226
-4
118
-205
-72
189
-141
-231
110
16
-271
9
124
-324
-143
158
-252
-266
143
50
-171
44
113
-227
-129
158
-133
-183
129
-12
-174
50
105
-195
-216
196
124
-47
301
157
-201
232
476
110
276
651
291
104
471
256
-86
209
159
-235
-118
29
-271
-293
81
-122
-344
-30
30
-213
-354
-267
301
1535
3230
4476
4504
3746
2563
1231
745
822
273
-205
-83
-261
-536
-280
-208
-566
-490
-259
-465
-471
-147
-323
-579
-226
-141
-454
-302
-69
-361
-410
-86
-253
-440
-114
-42
-388
-273
37
-158
-276
46
-16
-287
31
156
-159
-4
258
-37
-87
261
143
-116
162
262
-70
67
382
107
-12
369
283
-12
224
263
-119
-29
185
-156
-220
131
-2
-281
1
114
-221
-75
103
-241
-257
162
58
-296
-39
114
-177
-55
114
-184
-233
60
-55
-312
-60
18
-404
-476
-269
-455
-647
-423
-396
-522
-221
-62
-334
-334
-74
-264
-397
-80
-189
-484
-135
-25
-555
-521
-151
-309
-488
-431
-642
-839
-609
-603
-897
-775
-457
-705
-893
-504
-592
-888
-582
-337
-633
-586
-244
-558
-644
-267
-317
-477
-203
-118
-552
-471
-120
-484
-717
-431
-565
-885
-653
-526
-914
-790
-463
-750
-830
-457
-479
-935
-891
-440
204
1779
3629
4264
3660
2677
1460
396
277
191
-453
-587
-417
-811
-957
-598
-753
-1065
-746
-670
-1044
-867
-615
-916
-942
-557
-646
-901
-632
-517
-849
-674
-394
-709
-748
-364
-503
-767
-405
-308
-603
-440
-182
-425
-508
-175
-294
-449
-103
-127
-531
-313
30
-269
-362
-24
-90
-309
-32
92
-236
-110
134
-171
-275
-8
-122
-391
-133
-81
-444
-351
-103
-294
-423
-115
-92
-410
-277
-153
-431
-319
-50
-310
-385
-23
-172
-473
-221
-72
-302
-184
70
-216
-256
34
-127
-297
-67
43
-242
-256
32
-129
-293
19
-56
-346
-88
-5
-288
-151
124
-186
-413
-16
42
-231
-62
42
-270
-201
86
-219
-353
26
-3
-273
-80
33
-270
-273
29
-170
-228
259
176
-119
109
231
-97
23
394
181
138
495
351
80
275
258
-27
-19
144
-124
-304
-74
-217
-371
-67
19
-313
-302
71
-111
-534
-271
404
1368
3056
4504
4379
3329
2392
1257
554
737
354
-350
-148
-39
-545
-474
-210
-523
-577
-248
-349
-602
-370
-228
-528
-474
-192
-470
-582
-129
-249
-583
-341
-172
-419
-280
52
-309
-380
55
-100
-380
-5
202
-79
69
400
143
60
452
370
102
345
500
260
295
526
315
259
678
559
257
528
595
340
381
601
419
200
521
423
65
372
506
121
174
521
275
85
458
419
106
392
445
-28
216
588
270
183
504
414
156
382
511
202
234
486
218
135
547
353
16
401
476
147
303
457
168
112
416
316
22
282
429
49
91
425
205
-11
314
330
17
231
251
-49
214
428
166
61
292
240
-24
187
317
-15
87
422
137
8
391
365
147
398
460
201
434
689
469
440
737
625
146
310
533
51
19
367
57
-134
163
-15
-239
83
162
-118
20
161
-275
-212
938
2175
3303
4695
4759
3235
2196
1505
672
475
525
64
-371
-135
-41
-476
-395
-48
-310
-474
-169
-309
-561
-173
-83
-412
-334
-141
-285
-408
-213
-215
-413
-221
-100
-341
-271
-25
-247
-358
0
-50
-354
-91
127
-223
-185
180
-65
-159
201
100
-64
159
146
-105
28
319
129
-70
267
271
-57
144
270
-130
-177
167
5
-195
74
44
-276
-45
66
-312
-150
141
-102
-240
23
0
-236
-15
103
-197
-185
53
-91
-232
78
93
-230
-70
108
-114
-112
158
-7
-181
144
109
-203
14
154
-144
-104
173
-42
-176
150
-8
-277
31
91
-258
-172
104
-115
-208
116
29
-287
-61
80
-287
-195
102
-165
-297
69
25
-325
-8
79
-401
-217
162
-183
-363
139
242
-123
30
220
-94
3
359
147
106
470
316
-7
255
247
-171
-49
100
-279
-457
-146
-157
-540
-295
-33
-429
-352
50
-333
-690
110
1180
2219
3948
4803
3668
2570
1772
612
365
478
-98
-545
-352
-287
-623
-618
-356
-499
-672
-387
-411
-683
-437
-302
-634
-585
-275
-472
-590
-310
-366
-706
-479
-153
-449
-496
-160
-367
-561
-187
-234
-531
-242
-57
-441
-345
17
-246
-335
34
-69
-389
-17
175
-272
-207
117
-165
-236
166
123
-205
-22
138
-248
-197
59
-219
-336
-58
-157
-451
-117
-8
-421
-300
-2
-282
-413
-106
-161
-380
-168
-101
-417
-251
56
-226
-371
-6
-92
-395
-90
-26
-298
-125
116
-145
-302
54
-19
-371
-140
74
-267
-249
104
-161
-325
14
-73
-377
-141
41
-228
-209
23
-261
-385
14
-37
-404
-201
-3
-307
-252
-23
-296
-426
-117
-102
-344
-241
-102
-223
-159
23
-199
-295
8
-94
-280
27
183
-70
-102
137
89
-61
208
355
149
291
369
-113
-110
278
-80
-387
-81
-188
-557
-276
-154
-518
-397
-73
-354
-597
-263
-379
-435
786
2300
3528
4436
4089
2710
1522
952
576
116
-47
-161
-523
-606
-366
-526
-835
-545
-485
-781
-510
-325
-694
-661
-339
-585
-677
-264
-394
-669
-440
-392
-633
-540
-263
-527
-719
-260
-288
-642
-362
-170
-443
-334
1
-382
-562
4
-53
-392
-127
-7
-253
-163
71
-214
-316
67
24
-167
1
113
-96
-129
132
-31
-245
-10
-105
-345
-80
-79
-429
-293
-4
-260
-405
-31
-114
-440
-249
-64
-292
-319
49
-185
-459
-77
-113
-354
-103
-42
-337
-211
117
-182
-359
65
-25
-396
-145
-161
-777
-926
-665
-819
-1011
-754
-783
-1060
-828
-735
-1034
-897
-630
-876
-1035
-688
-693
-1014
-782
-596
-973
-918
-544
-726
-952
-655
-585
-936
-708
-491
-994
-889
-389
-636
-778
-373
-383
-725
-495
-291
-550
-438
-114
-275
-359
-66
-143
-393
-281
-283
-578
-571
-280
-568
-902
-532
-474
-792
-579
-434
-740
-635
-337
-659
-886
-62
1150
2397
4020
4486
3088
1864
1224
376
41
151
-276
-762
-516
-368
-829
-775
-437
-696
-886
-568
-495
-846
-669
-408
-697
-669
-379
-598
-756
-345
-325
-674
-474
-332
-696
-572
-169
-465
-664
-288
-270
-543
-386
-196
-434
-436
-83
-263
-408
10
-44
-329
-68
84
-242
-226
85
-134
-228
193
145
-191
32
184
-211
-197
96
-184
-352
-25
-128
-434
-140
16
-361
-344
0
-177
-415
-73
9
-285
-118
44
-230
-241
95
-73
-285
79
99
-268
-108
143
-147
-160
122
-106
-200
121
-58
-283
71
167
-148
-125
106
-99
-253
47
21
-274
-62
162
-148
-186
108
-57
-283
-52
-11
-216
58
222
-218
-173
225
-33
-200
123
55
-202
51
253
11
66
355
138
-2
428
406
104
438
568
57
160
565
215
-52
116
22
-227
-98
32
-170
-185
-6
-127
-240
40
16
-378
-157
701
1682
3158
4730
4508
2961
1987
1219
590
577
374
-248
-289
-41
-338
-478
-154
-199
-643
-443
-2
-395
-559
-94
-261
-480
-118
-176
-530
-282
-93
-453
-339
-29
-305
-431
-67
-32
-363
-99
148
-223
-198
143
27
-152
121
160
-114
125
325
-19
-26
268
64
-52
211
256
34
99
336
156
146
376
132
-57
271
214
-118
52
237
-49
-78
217
-21
-185
73
52
-123
21
112
-103
-50
176
-7
-197
134
157
-172
104
283
-93
-17
374
25
-165
260
167
-129
60
232
-103
-162
228
106
-126
207
184
-184
88
250
-107
-71
217
22
-201
141
237
-145
-28
146
-169
-140
183
19
-222
33
122
-162
10
201
-104
-107
201
145
21
213
128
-31
276
458
236
309
614
334
124
343
195
-81
31
131
-166
-208
87
-160
-344
31
-86
-380
-50
25
-434
-377
292
1121
2442
4058
4517
3444
2445
1658
582
379
571
-7
-452
-249
-269
-556
-352
-254
-628
-508
-230
-423
-524
-269
-301
-596
-417
-280
-535
-417
-94
-298
-481
-200
-208
-473
-334
-132
-361
-347
-27
-208
-432
-154
-34
-235
-52
132
-228
-170
209
11
-57
200
99
-109
99
235
-68
-37
298
122
-134
72
102
-127
-16
0
-290
-273
-10
-276
-555
-153
-148
-532
-312
-80
-403
-442
-127
-185
-529
-379
-107
-362
-238
-29
-410
-373
-36
-336
-508
-53
-18
-320
-138
4
-252
-344
-74
-137
-325
65
10
-444
-42
181
-255
-178
86
-131
-260
64
26
-302
-93
71
-206
-157
124
-70
-259
-12
2
-267
-48
148
-177
-140
152
-9
-240
1
82
-207
5
308
64
69
288
55
42
402
363
203
485
574
191
177
407
160
-99
96
20
-309
-97
60
-332
-346
100
-28
-413
-41
39
-548
-233
762
1720
3254
4729
4312
2932
2232
1248
372
535
412
-275
-390
-180
-411
-578
-331
-354
-671
-472
-169
-451
-548
-222
-362
-598
-240
-191
-565
-364
-140
-480
-463
-125
-270
-496
-293
-165
-363
-211
-45
-358
-224
149
-86
-216
97
86
-195
32
285
-6
43
368
216
76
362
423
176
367
609
371
339
591
355
170
500
457
129
310
412
89
169
436
155
-12
410
386
-6
283
445
22
128
474
249
117
409
356
55
280
456
103
116
452
272
178
450
295
30
272
489
207
129
308
218
181
417
370
42
176
397
149
84
367
233
-4
257
347
32
154
336
43
90
344
106
-47
224
192
-19
169
315
-6
4
361
115
-104
222
195
-72
184
317
104
263
503
178
97
525
388
205
600
755
368
333
593
300
92
244
-9
-435
-409
-282
-515
-542
-292
-519
-683
-293
-303
-725
-635
-203
535
2107
3807
4314
3434
2409
1389
368
268
275
-358
-581
-329
-624
-867
-592
-556
-868
-804
-605
-836
-830
-501
-669
-885
-536
-525
-855
-639
-429
-754
-718
-328
-554
-740
-350
-374
-642
-452
-370
-546
-428
-143
-361
-527
-110
-105
-435
-212
23
-294
-294
97
-107
-321
3
-45
-308
15
208
-132
-98
180
48
-244
-171
22
-206
-136
40
-338
-346
-20
-188
-354
-43
-86
-374
-168
-48
-334
-334
-56
-155
-262
26
26
-360
-174
62
-342
-296
81
-103
-255
14
10
-281
-145
80
-148
-149
152
-31
-271
5
70
-257
-110
77
-197
-46
284
-100
-302
69
54
-206
-90
62
-142
-143
65
-146
-245
82
9
-270
-47
115
-169
-198
140
-24
-312
73
143
-237
-25
275
33
63
359
57
-110
361
404
147
436
619
235
137
395
180
-89
98
-37
-329
-94
64
-216
-211
33
-237
-338
-16
-6
-406
-406
459
1390
2754
4383
4438
3061
1991
1212
464
507
412
-155
-177
-114
-391
-470
-170
-212
-565
-345
-73
-420
-459
-108
-371
-482
-46
-115
-436
-280
3
-247
-336
44
-136
-383
-79
-56
-284
-78
108
-176
-150
273
24
-366
47
116
-270
38
303
-66
-60
325
98
-164
225
288
-71
100
369
102
83
377
99
-81
251
161
-117
68
166
-160
-149
162
-24
-240
69
79
-211
-6
184
-67
-83
187
0
-203
118
113
-243
-26
271
-37
-51
283
41
-125
199
161
-104
79
240
-80
-103
260
91
-103
184
175
-129
37
251
-75
-57
315
41
-197
217
155
-185
60
243
4
-54
127
-16
-120
198
185
-159
-3
253
-9
-95
250
124
-73
252
321
60
195
358
118
282
511
288
273
550
521
150
194
413
65
-124
163
15
-231
45
-88
-458
-150
41
-267
-262
18
-145
-507
-91
774
1662
3278
4508
3741
2273
1530
699
122
406
205
-407
-307
-176
-614
-582
-208
-461
-666
-265
-270
-685
-403
-211
-620
-598
-260
-372
-537
-228
-215
-595
-395
-33
-334
-426
-58
-232
-472
-108
-69
-406
-158
12
-273
-153
106
-66
-193
109
58
-227
42
208
-91
-134
209
113
-114
227
249
-91
76
224
-110
-146
286
56
-379
17
57
-427
-208
24
-303
-265
50
-149
-348
4
15
-320
-76
123
-231
-223
29
-57
-170
11
80
-260
-92
161
-193
-243
85
-41
-308
20
134
-223
-97
192
-160
-276
90
-109
-285
91
73
-267
-94
74
-258
-245
101
-133
-291
48
-46
-321
-150
11
-138
-194
29
-108
-383
-8
63
-280
-78
89
-145
-114
185
78
-159
104
257
4
170
521
263
77
287
61
-138
168
65
-403
-205
10
-391
-425
-64
-236
-553
-181
-117
-454
-288
-296
-455
428
2034
3274
4079
3957
2586
1241
687
585
195
-245
-122
-300
-639
-395
-326
-705
-636
-368
-637
-670
-304
-491
-723
-355
-348
-709
-507
-256
-558
-558
-114
-230
-476
-183
-94
-317
-153
21
-244
-192
185
30
-149
151
185
-115
106
404
49
17
417
271
69
289
296
152
304
443
216
172
519
344
88
444
444
-16
146
441
90
-14
307
173
-78
237
276
-66
109
327
103
104
338
151
-68
136
166
-70
56
313
105
-51
227
90
-90
283
266
-25
176
340
104
-18
199
163
-123
175
290
-86
70
239
-47
-91
193
141
-77
130
174
-169
-37
235
-30
-122
180
78
-222
67
155
-211
-15
209
-254
-228
286
59
-181
95
119
-145
-14
341
143
13
407
223
-35
447
417
45
452
639
33
-93
102
-398
-656
-328
-432
-852
-729
-456
-808
-966
-530
-600
-976
-622
-411
-980
-1020
-216
578
1877
3713
4027
2743
1708
741
-83
86
96
-655
-829
-521
-822
-1097
-755
-720
-1010
-855
-693
-946
-900
-570
-814
-1024
-705
-653
-910
-730
-492
-766
-804
-501
-590
-805
-489
-386
-772
-565
-291
-593
-550
-224
-431
-701
-372
-108
-389
-376
-134
-317
-307
-33
-188
-370
-111
-128
-371
-190
6
-265
-339
-38
-334
-657
-275
-263
-698
-548
-330
-697
-703
-365
-542
-768
-528
-438
-750
-620
-353
-722
-730
-318
-597
-779
-398
-455
-705
-521
-329
-587
-649
-292
-426
-671
-307
-211
-595
-430
-143
-446
-516
-196
-305
-494
-166
-157
-599
-350
-17
-441
-558
-179
-281
-546
-243
-169
-570
-407
-142
-454
-431
-36
-200
-513
-194
-107
-459
-295
-52
-260
-302
-75
-241
-361
98
237
-167
-85
166
-89
-56
355
314
139
404
409
-12
89
226
-179
-140
83
-182
-364
-152
-45
-311
-244
-12
-293
-371
-26
-140
-564
-114
953
1862
3401
4518
3508
2039
1288
540
103
331
215
-397
-403
-183
-439
-510
-273
-341
-580
-376
-242
-590
-504
-131
-385
-492
-104
-244
-531
-215
-76
-443
-364
32
-146
-353
-7
-25
-348
-27
78
-312
-110
159
-44
-106
158
104
-202
86
254
-72
79
220
-91
-44
278
175
4
260
390
101
129
348
72
-50
248
112
-156
130
239
-133
-100
189
-154
-306
190
85
-277
-24
117
-88
-23
187
-51
-221
94
67
-141
191
219
-147
-74
134
33
-77
160
160
-150
41
281
-62
-57
270
-8
-81
291
94
-229
52
152
-175
-52
232
-10
-110
92
-26
-218
10
121
-216
-115
157
-116
-159
159
0
-237
78
119
-223
-39
284
111
6
277
184
-78
266
470
177
293
567
229
44
383
259
-65
33
2
-236
-167
18
-187
-306
17
-44
-373
-78
37
-375
-458
0
783
1916
3545
4327
3370
2197
1335
323
211
573
6
-330
-28
-282
-585
-267
-206
-558
-428
-127
-400
-561
-261
-325
-538
-237
-164
-505
-335
-45
-286
-405
-82
-98
-405
-213
-69
-294
-297
-74
-110
-291
-1
-17
-331
-53
145
-179
-135
218
-24
-179
139
107
-225
-33
238
-53
-9
302
19
-107
302
155
-259
-18
129
-156
-63
140
-255
-405
2
-111
-359
-39
41
-292
-188
83
-179
-350
-61
-127
-414
-156
63
-273
-257
128
-159
-341
15
-108
-302
-39
63
-224
-194
67
-98
-243
-14
3
-304
-156
71
-225
-215
46
-114
-261
9
17
-315
-150
29
-233
-153
67
-226
-276
76
-31
-280
-46
20
-308
-145
136
-256
-299
230
121
-180
141
228
-26
79
288
264
174
466
439
20
196
258
-120
-64
63
-266
-351
-95
-189
-417
-139
-31
-383
-268
-11
-371
-641
-117
651
1619
3298
4336
3473
2243
1465
463
175
510
111
-472
-361
-249
-592
-567
-276
-549
-703
-351
-510
-734
-342
-250
-587
-574
-328
-393
-493
-223
-266
-506
-150
12
-368
-267
132
-53
-307
44
171
-70
212
255
-37
236
525
276
110
377
368
211
380
422
147
152
476
331
235
602
523
187
356
498
259
326
564
285
95
318
237
64
233
319
49
112
415
105
-88
336
279
-95
169
317
-28
143
507
176
-44
336
350
-13
176
407
86
41
284
108
30
246
177
24
287
456
85
50
337
133
-49
273
266
-68
99
305
18
-32
193
31
-89
280
296
-66
218
418
-73
-104
318
103
-133
216
227
-196
-45
276
-37
-30
383
259
90
380
354
82
368
586
414
415
536
315
103
399
309
-192
-50
143
-307
-261
172
-85
-297
-59
-61
-385
-351
-437
-945
-363
890
1841
3076
4036
3163
1308
594
316
-205
-316
-364
-773
-1096
-822
-809
-1277
-1081
-790
-1005
-1025
-779
-913
-1120
-880
-901
-1077
-817
-731
-1051
-939
-534
-631
-738
-365
-300
-595
-411
-150
-463
-528
-25
-135
-497
-82
56
-261
-37
205
-140
-112
307
30
-165
282
299
6
161
340
85
88
477
370
116
360
364
21
230
339
-345
-483
-38
-368
-783
-412
-222
-586
-527
-385
-750
-614
-257
-606
-746
-299
-314
-619
-406
-272
-523
-517
-314
-432
-595
-304
-229
-554
-383
-207
-529
-483
-242
-437
-606
-386
-285
-545
-411
-234
-490
-488
-223
-376
-541
-230
-272
-567
-388
-192
-463
-486
-124
-342
-576
-185
-219
-530
-287
-132
-475
-402
-33
-278
-464
-125
-43
-298
-117
135
-179
-168
182
-9
-92
317
430
140
156
301
-4
-194
44
-88
-426
-187
-92
-453
-297
-43
-417
-440
-78
-315
-453
-147
-345
-360
863
2344
3382
4099
3661
1958
728
596
389
-8
-48
-110
-388
-422
-229
-401
-604
-314
-288
-628
-465
-195
-465
-481
-135
-403
-622
-138
-107
-504
-294
14
-344
-425
-16
-139
-358
-100
-28
-258
-75
46
-288
-54
299
-12
-129
180
211
-80
115
327
-9
37
340
182
23
246
309
154
273
389
136
176
448
106
-151
219
231
-146
27
197
-201
-142
271
86
-153
139
224
-148
-55
227
-110
-120
300
116
-210
27
199
-77
55
363
67
-59
308
170
-120
191
275
-120
-4
343
56
-68
196
36
-48
289
333
-49
-16
309
72
-136
166
109
-177
124
264
-87
-53
250
37
-177
138
247
-82
51
296
-20
39
407
195
22
342
313
163
489
571
214
308
561
328
185
347
210
-132
10
140
-164
-185
59
-190
-301
61
-122
-347
-2
42
-372
-249
654
1653
3014
4434
3967
2322
1499
827
216
347
345
-280
-491
-103
-219
-507
-280
-244
-623
-455
-145
-506
-517
-183
-397
-507
-159
-197
-508
-350
-113
-329
-366
-82
-192
-410
-160
-37
-343
-257
49
-186
-297
116
83
-219
146
312
5
219
540
276
124
419
386
132
326
489
264
322
521
326
237
523
358
13
387
563
100
114
398
113
8
282
159
-83
133
300
15
114
376
66
-108
224
281
93
245
306
35
34
355
190
-44
305
247
-79
173
371
43
-20
351
125
-19
421
184
-217
168
297
-102
-32
228
33
-29
195
67
-197
52
225
-28
55
297
67
-190
174
236
-199
53
283
-83
-12
234
-73
-202
149
192
53
251
303
-147
-175
170
7
-60
216
227
-48
7
209
-108
-136
156
-233
-531
-173
-248
-605
-318
-210
-546
-435
-196
-435
-487
-309
-692
-524
961
2379
3334
3786
2908
1369
415
189
-35
-569
-614
-609
-1052
-1040
-743
-939
-1153
-891
-846
-1101
-884
-707
-1002
-929
-720
-955
-1042
-675
-674
-928
-590
-415
-706
-537
-237
-420
-512
-165
-120
-399
-213
50
-181
-207
61
-102
-162
159
162
-166
-54
204
-62
46
336
34
-64
357
390
6
228
430
51
81
419
205
-34
190
74
-178
48
164
-23
20
163
-32
-111
125
86
-159
86
244
-197
-66
250
-13
-140
157
153
-250
-10
304
-68
-75
183
-48
-106
205
147
-119
115
294
-68
-109
306
134
-157
217
183
-142
114
232
-41
9
229
-18
-207
225
187
-255
54
287
-29
-75
37
-193
-343
-90
-146
-386
-162
-77
-337
-238
143
-18
-195
252
153
-217
211
450
146
268
671
407
22
412
433
-46
159
183
-289
-146
74
-206
-359
-21
43
-344
-282
-341
-890
-959
-590
-245
779
2608
3833
3612
2627
1683
560
-65
132
-320
-842
-599
-777
-1137
-840
-735
-1144
-1111
-772
-957
-1140
-774
-714
-1023
-637
-368
-795
-749
-422
-615
-743
-340
-278
-625
-416
-83
-350
-358
-26
-239
-347
32
21
-258
-9
164
-98
-9
282
180
14
253
261
-62
155
358
95
129
406
269
98
312
273
17
202
408
78
-5
327
113
-154
122
146
-125
14
216
-245
-562
-323
-548
-649
-240
-340
-641
-383
-80
-261
-321
-166
-495
-748
-333
-389
-820
-542
-367
-757
-647
-313
-520
-687
-405
-291
-554
-437
-274
-613
-606
-281
-503
-626
-318
-401
-662
-549
-358
-501
-614
-311
-360
-580
-271
-285
-600
-387
-207
-497
-483
-201
-398
-601
-232
-189
-495
-335
-155
-292
-246
4
-134
-258
168
289
-56
107
300
-119
-210
18
-264
-376
-132
-379
-740
-368
-159
-567
-475
-215
-404
-507
-405
-451
-675
-194
1138
2279
3643
4550
3358
1842
1278
548
98
143
-102
-469
-524
-387
-603
-812
-495
-464
-764
-547
-390
-701
-657
-335
-470
-682
-435
-389
-673
-453
-192
-532
-521
-142
-409
-654
-158
-127
-570
-317
-50
-322
-375
4
-22
-331
-57
60
-255
-93
148
-145
-165
240
5
-247
73
91
-56
150
289
52
-6
244
167
-138
-17
52
-247
-114
144
-183
-286
131
-112
-519
54
222
-245
-109
87
-167
-145
133
-84
-194
68
-92
-295
-42
117
-167
-247
95
-8
-205
70
97
-118
22
161
-81
-154
133
51
-235
57
198
-226
-79
146
-288
-248
166
47
-277
-35
88
-255
-21
213
-155
-207
128
25
-239
-27
140
-75
-38
198
-62
-99
321
141
-115
307
510
141
266
600
242
45
295
193
-72
123
157
-243
-237
-26
-284
-400
0
-154
-411
23
45
-362
-340
-164
261
1596
3387
4429
4167
3205
1991
842
592
588
-15
-280
-71
-302
-639
-353
-158
-600
-576
-152
-404
-561
-182
-281
-562
-311
-190
-481
-441
-183
-406
-436
-98
-321
-647
-227
31
-301
-212
74
-253
-360
87
-43
-320
13
51
-293
-55
195
-119
-186
142
69
-220
111
288
-164
12
428
177
188
527
339
95
261
362
208
252
465
118
-44
411
343
48
321
341
53
260
468
183
55
389
334
31
347
521
46
152
538
120
-4
454
309
0
305
373
72
198
455
179
28
421
251
-36
365
394
-71
101
419
35
-47
305
118
-88
179
237
-19
-16
212
26
-110
224
118
-201
129
245
-199
-13
269
-84
-83
194
53
1
302
351
38
110
434
255
200
516
488
333
559
469
21
147
280
-91
-198
91
-17
-186
82
72
-330
-189
59
-191
-161
-7
-171
200
1760
3351
4070
4175
3486
2102
1012
791
598
130
51
-52
-495
-414
-115
-421
-536
-216
-304
-545
-286
-167
-566
-513
-155
-394
-474
-195
-333
-564
-234
-48
-449
-402
-111
-262
-379
-97
-87
-416
-167
5
-367
-287
72
-159
-306
85
72
-264
0
180
-150
-77
170
-56
-161
124
53
-161
60
176
-103
-102
148
-36
-209
71
-87
-437
-146
-22
-402
-285
8
-315
-406
-80
-172
-404
-185
-69
-289
-197
48
-224
-366
0
-98
-484
-124
118
-398
-276
115
-254
-323
36
-128
-376
-116
25
-281
-242
-21
-351
-486
-162
-284
-563
-496
-319
-408
-506
-252
-432
-581
-204
-342
-640
-329
-214
-530
-498
-224
-380
-578
-184
-184
-470
-163
-96
-471
-362
59
-103
-249
139
66
-236
112
327
29
130
465
161
-91
231
146
-222
1
-36
-571
-338
-93
-855
-1185
-827
-997
-1249
-1098
-955
-1158
-1349
-864
-97
1111
2871
3703
3102
2102
1062
-122
-359
-107
-866
-1219
-842
-1143
-1434
-1123
-1049
-1364
-1307
-976
-1118
-1363
-1023
-984
-1387
-1089
-796
-1190
-1151
-768
-1035
-1155
-599
-549
-851
-508
-288
-607
-529
-130
-312
-477
-124
-111
-303
-39
110
-218
-97
236
-12
-102
253
198
-104
184
397
26
99
493
262
43
404
382
-8
264
419
-42
98
383
27
-76
183
100
-110
129
257
-131
-77
266
1
-169
206
209
-83
148
250
-163
-124
279
126
-75
245
226
-43
165
305
-17
-6
338
188
3
189
173
21
275
350
-33
3
311
115
-40
300
221
-32
183
341
77
33
307
21
-94
332
233
-162
41
371
-24
-482
-422
-486
-660
-454
-416
-672
-417
-190
-583
-615
-172
-322
-514
-143
-169
-330
-2
26
-495
-422
-110
-496
-672
-489
-555
-774
-618
-498
-918
-762
-332
-667
-887
-429
-548
-1114
-443
772
1735
3333
4437
3361
1874
1359
571
-91
65
-177
-743
-763
-558
-795
-935
-510
-656
-982
-643
-557
-918
-823
-447
-758
-920
-497
-571
-804
-571
-453
-733
-722
-413
-551
-780
-404
-229
-635
-535
-235
-487
-490
-150
-333
-505
-102
-145
-448
-150
3
-326
-238
119
-148
-409
9
9
-259
115
144
-149
-56
203
37
-324
21
125
-371
-181
55
-318
-299
11
-205
-375
31
58
-350
-156
41
-329
-259
41
-190
-302
72
29
-330
-122
61
-187
-130
145
-98
-251
132
100
-252
26
237
-201
-157
234
1
-231
161
187
-169
38
204
-129
-113
192
-23
-156
154
47
-250
62
181
-278
-207
245
-35
-248
152
50
-254
-20
229
37
-33
217
108
-76
223
312
34
247
554
275
156
408
230
-2
209
146
-239
-107
63
-292
-281
-36
-219
-341
-96
-72
-339
-186
-145
-498
121
1679
3163
4289
4561
3391
1778
1113
930
398
-12
45
-229
-542
-249
-295
-653
-459
-224
-481
-621
-350
-365
-549
-263
-202
-546
-377
-107
-484
-540
-120
-321
-526
-164
-186
-500
-250
-4
-280
-338
-25
-72
-278
42
109
-226
-34
238
-28
-115
122
-55
-196
189
319
-49
161
378
-26
107
383
179
13
231
266
-113
50
148
-129
-19
152
-47
-329
-91
123
-187
-85
205
-126
-201
131
-48
-239
50
79
-184
-46
209
-42
-168
129
37
-228
86
211
-156
-52
211
-4
-32
254
146
-107
103
225
-54
-52
213
20
-223
136
117
-205
49
108
-205
-74
209
-73
-279
15
-10
-201
6
86
-213
-147
155
-145
-242
166
62
-158
148
264
-119
58
516
288
200
579
582
305
433
453
74
274
499
-7
-32
326
15
-211
201
321
19
152
281
-76
24
250
-123
144
1532
3044
4176
4568
3662
2005
909
542
188
-235
-306
-408
-753
-693
-550
-917
-948
-501
-689
-1000
-652
-624
-989
-773
-586
-907
-844
-435
-580
-881
-592
-538
-884
-680
-400
-714
-742
-331
-515
-807
-409
-233
-554
-451
-91
-280
-279
129
-34
-260
16
75
-196
-44
167
-130
-183
48
-156
-399
-71
16
-413
-167
-12
-561
-434
-65
-277
-470
-301
-251
-567
-463
-109
-399
-541
-104
-143
-310
-152
-139
-257
-96
16
-305
-207
130
-105
-227
90
74
-232
-175
174
-60
-220
210
46
-324
-4
197
-178
-75
278
-129
-241
257
129
-212
61
138
-247
-94
189
-104
-136
149
-18
-240
28
154
-187
-128
184
-56
-259
-58
-328
-606
-320
-343
-536
-320
-1
-127
-170
271
159
-143
350
533
191
440
690
297
243
586
365
-22
193
300
-98
-72
202
-127
-197
205
1
-266
106
199
-227
-266
94
610
1919
3769
4738
4360
3468
2397
1114
730
912
372
-9
190
-42
-327
-36
-115
-465
-140
17
-312
-235
37
-132
-337
-93
-4
-306
-174
176
-99
-219
84
-82
-343
64
231
-197
-34
263
-45
-103
227
144
-24
230
256
-60
125
433
176
103
337
189
38
365
449
82
187
478
233
99
393
193
-146
43
-84
-673
-613
-134
-464
-535
-40
-281
-487
-142
-89
-370
-301
-118
-470
-566
-263
-433
-704
-354
-208
-597
-512
-181
-274
-249
10
-189
-438
-138
-18
-325
-175
35
-333
-270
121
-134
-313
111
182
-215
-158
147
-34
-151
213
110
-265
51
158
-214
-31
232
-56
-210
132
57
-201
140
169
-167
-49
151
51
-36
146
91
-130
187
254
-59
158
476
218
115
412
370
253
508
658
438
459
631
344
157
382
301
50
161
187
-147
-35
190
-177
-166
235
58
-175
93
22
-426
168
1638
2775
4095
4946
3989
2579
1711
1053
599
482
322
-139
-267
-29
-225
-509
-197
-67
-452
-361
-82
-335
-486
-131
-47
-408
-275
-109
-372
-306
-38
-279
-384
3
-45
-304
-143
20
-207
-222
84
-91
-115
255
3
-239
123
230
-152
-66
364
204
-19
312
266
-61
230
307
60
222
513
209
33
421
213
-134
139
212
-120
1
315
3
-194
185
103
-226
75
197
-162
-97
122
22
-114
0
8
-263
-59
111
-169
-39
197
-75
-185
111
30
-239
50
189
-167
-85
219
-21
-223
107
82
-194
66
206
-108
-75
186
-84
-202
194
109
-303
-98
194
-185
-179
260
31
-260
22
108
-306
-187
177
-49
-148
87
-87
-253
85
13
-251
-30
86
-185
-136
139
32
-83
140
189
-88
57
322
72
-207
-98
-137
-328
-146
-219
-526
-309
-248
-663
-657
-497
-789
-913
-567
-667
-1067
-699
-416
-824
-796
-523
-1041
-1129
85
1273
2466
3992
4032
2492
1377
780
109
-215
-131
-458
-1070
-803
-556
-1018
-1006
-660
-894
-1073
-689
-718
-1043
-763
-559
-974
-923
-590
-847
-896
-502
-658
-973
-634
-526
-877
-703
-321
-622
-850
-433
-402
-720
-505
-334
-615
-494
-141
-420
-552
-142
-173
-455
-258
-158
-460
-258
2
-271
-285
44
-1
-333
-162
19
-277
-306
-90
-305
-480
-59
-139
-587
-357
-256
-474
-247
1
-295
-441
-128
-263
-509
-138
-22
-410
-351
14
-231
-420
-38
-75
-388
-144
46
-268
-204
160
-38
-287
0
2
-357
-147
96
-240
-239
76
-121
-337
-136
-65
-354
-173
67
-281
-250
2
-199
-322
-31
-91
-404
-140
49
-281
-295
42
-181
-439
-88
-67
-339
-70
106
-292
-265
76
-86
-151
225
253
-153
-38
284
-20
87
452
192
213
452
326
55
127
227
-191
-212
111
-119
-345
-72
47
-317
-229
54
-371
-402
35
-228
-203
1070
2462
3622
4650
4208
2572
1531
1063
565
191
22
-147
-391
-374
-311
-474
-523
-308
-370
-642
-320
-237
-560
-311
-137
-479
-477
-167
-352
-493
-88
-99
-501
-265
-44
-402
-298
124
-139
-387
-1
58
-226
-35
138
-96
-64
229
81
-194
152
285
-88
107
370
6
67
458
147
-23
309
249
6
221
362
40
-71
117
30
-172
77
92
-216
-3
168
-115
-184
66
-107
-294
60
42
-307
-105
70
-194
-80
235
-119
-302
86
24
-163
99
159
-90
-74
86
21
-98
99
78
-228
-14
96
-211
-80
212
70
-141
-10
98
-141
-20
252
-139
-198
99
-176
-282
52
60
-289
-150
141
-192
-224
110
-100
-261
119
85
-248
48
235
-134
-29
312
86
-94
268
377
30
231
552
261
127
264
55
-6
218
12
-322
-214
-8
-199
-213
30
-218
-413
-80
-82
-385
-361
-366
-50
1200
2908
4109
4236
3456
2164
998
600
609
78
-315
-98
-339
-712
-419
-350
-678
-448
-259
-702
-704
-210
-339
-657
-319
-251
-672
-480
-181
-493
-590
-217
-293
-586
-271
-186
-576
-334
-54
-339
-422
-179
-220
-392
-90
-148
-457
-122
29
-313
-261
124
-46
-342
41
-59
-657
-299
74
-173
-150
112
92
-143
-31
68
-242
-134
23
-297
-220
70
-169
-454
-301
-296
-472
-281
-41
-238
-265
73
-193
-476
-63
54
-342
-256
100
-100
-109
169
-71
-180
213
198
-155
118
333
24
82
291
71
-84
195
271
7
156
365
5
-63
308
127
-176
206
286
-87
85
292
42
-19
197
197
-24
100
243
-74
135
455
-7
-92
247
93
-36
245
305
36
218
481
223
235
446
292
183
509
555
243
531
778
374
285
608
381
-18
250
302
-142
97
326
-119
-104
227
15
-203
96
120
-260
-144
614
1514
2835
4349
4236
2864
2065
1176
226
243
181
-429
-643
-357
-586
-977
-587
-453
-802
-711
-573
-810
-760
-339
-410
-646
-391
-384
-798
-580
-232
-549
-503
-95
-224
-452
-131
-18
-377
-255
78
-172
-201
95
-161
-235
195
200
-89
15
164
-9
57
342
142
-83
131
180
-31
101
379
117
-55
314
155
-193
218
304
-152
-68
167
-149
-220
172
18
-311
-45
-5
-237
4
140
-203
-174
137
63
-133
52
292
-147
-195
282
1
-164
260
123
-211
153
299
-71
73
262
15
2
292
283
11
241
375
-101
-1
387
63
-73
278
207
-51
122
224
17
133
332
88
40
308
74
-197
171
226
-120
74
298
21
-24
141
-11
-37
236
170
-55
159
393
166
37
312
248
112
453
440
108
430
764
369
255
631
418
-3
197
218
-171
-96
102
-163
-270
-185
-500
-746
-424
-300
-740
-823
-414
184
1351
3110
4176
3696
2803
1796
467
181
321
-345
-746
-557
-710
-1021
-750
-695
-1038
-890
-636
-892
-993
-660
-752
-983
-763
-658
-889
-752
-480
-773
-819
-423
-431
-538
-378
-341
-546
-398
-81
-325
-376
-8
-136
-357
-71
24
-124
-1
180
-25
-183
236
255
-178
95
403
34
54
400
103
-47
299
249
55
245
318
-19
-39
211
-24
-144
287
168
-191
111
191
-75
21
207
-24
-147
229
187
-134
101
125
-63
118
223
90
38
254
138
-192
171
297
-170
-57
283
68
-12
305
116
-147
209
315
-58
12
272
2
-152
117
67
-127
122
198
-115
-8
200
-113
-132
243
72
-283
-27
166
-383
-435
-168
-584
-566
-219
-416
-665
-474
-289
-645
-634
-304
-541
-530
-172
-356
-564
-224
-166
-440
-224
124
-155
-215
162
-212
-486
-45
-88
-535
-451
-309
-676
-757
-430
-522
-774
-525
-362
-636
-567
-307
-720
-895
211
1591
2839
4309
4256
2561
1560
861
106
104
135
-364
-733
-563
-523
-781
-717
-449
-712
-893
-567
-653
-814
-501
-460
-769
-643
-361
-672
-766
-326
-378
-701
-533
-285
-594
-637
-268
-399
-493
-324
-515
-577
-218
-151
-416
-360
-51
-229
-366
-43
-81
-307
-116
-42
-332
-201
66
-173
-187
174
58
-284
-43
201
-147
-236
72
-159
-352
50
-52
-452
-193
-47
-368
-225
86
-283
-509
-37
3
-382
-128
5
-346
-150
78
-237
-237
46
-98
-286
-68
73
-185
-146
110
-137
-304
80
78
-290
-40
163
-197
-82
171
-169
-182
116
-71
-280
57
154
-252
-141
141
-157
-250
60
-75
-354
-5
187
-203
-180
92
-114
-205
91
-3
-311
-67
126
-215
-136
190
-65
-92
343
247
-129
124
334
81
235
546
350
172
421
282
-67
216
230
-208
-154
10
-171
-178
73
-122
-363
-107
-76
-276
-191
-69
-206
476
2219
3690
4441
4400
3267
1668
933
925
466
-71
14
-155
-526
-244
-142
-486
-474
-260
-321
-428
-202
-358
-603
-188
-105
-486
-375
-120
-299
-374
-105
-150
-383
-149
-46
-366
-272
48
-146
-258
-29
-123
-278
18
170
-75
-11
202
-70
-147
265
172
-115
133
333
-21
-89
281
131
27
366
275
-117
187
385
-117
-63
287
14
-200
49
-4
-239
-49
38
-284
-172
209
-127
-306
154
63
-276
-60
71
-186
-63
225
-29
-150
198
42
-256
115
181
-190
-31
309
0
-271
178
108
-276
138
219
-218
-57
220
-95
-195
91
-56
-232
3
80
-268
-206
164
-117
-243
86
-42
-339
-58
178
-232
-181
164
-237
-352
142
43
-313
-17
268
10
24
269
53
-53
270
324
167
380
414
-40
3
335
31
-190
44
-133
-406
-156
-44
-389
-395
-54
-289
-451
7
-150
-779
-430
657
1632
3180
4597
4028
2627
1845
930
178
322
208
-420
-469
-235
-492
-674
-352
-392
-712
-457
-287
-691
-641
-279
-557
-674
-247
-335
-729
-442
-207
-576
-511
-194
-345
-364
-129
-98
-254
-63
124
-156
-78
233
-73
-188
318
262
-67
181
305
-43
105
454
190
-23
281
319
-42
183
402
84
133
380
34
-160
161
27
-259
-63
-23
-325
-332
-82
-212
-360
-16
-174
-533
-247
-272
-636
-516
-157
-372
-577
-113
-135
-457
-190
-68
-346
-255
71
-71
-178
32
-64
-136
110
115
-118
-79
159
-50
-242
199
177
-278
11
223
-147
-66
240
-44
-291
111
123
-299
58
280
-141
-57
235
30
-88
190
81
-133
182
161
-170
116
355
47
-8
379
359
50
256
457
278
361
629
451
263
515
460
158
330
346
-4
17
134
-65
-158
105
75
-279
-36
181
-217
-233
-264
-660
-132
1270
2606
3703
4273
3474
2046
1143
597
196
-100
-143
-383
-783
-629
-575
-861
-716
-519
-767
-841
-611
-663
-857
-691
-524
-742
-566
-219
-581
-653
-185
-258
-496
-274
-143
-451
-299
69
-246
-431
-187
-306
-530
-169
45
-190
-166
77
-44
-200
207
234
-139
134
268
-83
43
279
75
40
354
335
11
123
352
50
-65
221
-12
-189
200
149
-212
-8
148
-280
-214
224
-53
-248
135
74
-268
-67
113
-96
-59
105
-65
-44
282
101
-154
116
194
-71
-13
287
55
-108
221
101
-93
136
200
20
59
222
33
-109
154
76
-174
131
197
-139
-10
121
-171
-113
191
73
-213
-23
167
-162
-152
186
38
-143
155
77
-249
-19
123
-74
-25
255
121
-75
281
243
-185
239
591
168
370
710
277
72
396
310
-107
42
151
-206
-188
91
-199
-366
-76
-340
-671
-367
-247
-845
-959
-217
549
1839
3745
4405
3417
2511
1521
318
116
289
-336
-917
-498
-572
-1023
-688
-617
-954
-861
-610
-831
-921
-560
-717
-1085
-770
-542
-814
-838
-553
-655
-752
-368
-376
-603
-268
-155
-522
-427
-10
-121
-359
-36
-18
-262
27
137
-160
-86
257
60
-42
326
198
-88
115
293
81
82
432
265
56
392
372
-8
189
410
-101
-86
431
189
-138
114
95
-204
129
94
-442
-308
-114
-322
-519
-330
-275
-516
-336
-241
-484
-417
-162
-298
-576
-276
-202
-611
-284
-78
-487
-360
-35
-294
-488
-149
-143
-435
-271
-90
-449
-508
-88
-324
-583
-219
-219
-497
-246
-144
-579
-392
-31
-344
-518
-223
-149
-476
-320
-61
-476
-438
-50
-327
-491
-118
-229
-618
-180
67
-285
-156
134
-64
-287
74
135
-120
209
278
-105
-19
225
-116
-366
-20
-171
-593
-365
-194
-442
-370
-94
-417
-585
-112
-148
-598
-501
-179
388
1817
3606
4448
3865
2860
1677
622
570
449
-325
-456
-150
-474
-746
-400
-459
-867
-607
-355
-733
-674
-251
-557
-737
-326
-410
-744
-502
-318
-556
-550
-225
-432
-727
-240
-161
-640
-413
-135
-459
-388
-66
-313
-447
-100
-150
-486
-183
124
-253
-221
176
-141
-324
72
-21
-299
-1
174
-103
-62
211
21
-199
61
50
-214
0
64
-242
-163
67
-105
-294
-75
9
-248
-121
61
-250
-146
116
-189
-194
137
9
-279
-47
155
-121
-88
196
-7
-178
142
98
-245
3
235
-67
-92
204
-24
-142
226
91
-186
55
178
-87
-92
205
-16
-292
101
54
-257
20
156
-146
-135
189
-73
-326
104
153
-247
-81
158
-98
-111
150
50
-17
308
261
-200
114
465
64
164
589
377
142
342
200
-21
161
99
-210
-209
56
-95
-376
-35
-95
-436
-39
43
-343
-293
-149
-94
831
2719
4150
4455
3893
2679
1284
687
747
320
-171
-127
-180
-468
-359
-237
-566
-622
-318
-376
-531
-311
-340
-611
-408
-234
-552
-447
-160
-460
-515
-187
-202
-386
-287
-126
-331
-309
9
-220
-333
19
-68
-357
-58
115
-225
-119
272
-12
-166
203
67
-136
169
268
-75
-53
300
132
-134
244
257
-152
94
247
-81
-25
263
-1
-297
-46
52
-200
-203
69
-134
-343
132
-4
-337
86
34
-380
-106
148
-165
-160
205
-50
-362
99
204
-219
-1
157
-236
-83
239
-64
-316
85
178
-219
12
200
-238
-177
138
-85
-211
84
82
-291
-162
75
-258
-261
144
-55
-319
35
65
-310
-98
59
-287
-148
82
-210
-147
212
122
-153
9
321
103
51
373
257
91
345
206
-173
97
139
-487
-310
76
-372
-355
-21
-212
-438
-207
-59
-336
-443
-299
-371
49
1540
3006
3964
4234
3335
1833
951
766
370
-140
-135
-217
-566
-451
-359
-661
-620
-344
-512
-640
-331
-438
-835
-445
-140
-638
-598
-134
-490
-720
-209
-210
-512
-355
-252
-421
-331
-74
-208
-359
-130
-121
-466
-306
-60
-403
-363
-17
-248
-501
-133
-49
-377
-126
28
-383
-281
68
-132
-188
17
-140
-316
-113
-275
-745
-572
-355
-554
-531
-310
-277
-506
-412
-348
-697
-453
-46
-330
-445
-18
-41
-437
-227
63
-381
-369
95
-150
-197
58
-89
-229
-31
78
-231
-265
6
-107
-178
111
63
-256
1
308
-29
-93
320
109
-164
280
216
-149
156
262
-103
58
264
-133
-244
138
235
-84
-46
79
-213
-203
67
-76
-293
-8
41
-337
-190
44
-222
-307
10
-45
-141
251
219
-136
71
209
-186
-325
-8
-161
-518
-332
-253
-541
-516
-230
-445
-541
-234
-447
-567
-295
-475
-421
802
2380
3460
4150
3875
2516
1215
787
550
-39
-112
-108
-619
-592
-294
-602
-737
-476
-512
-776
-585
-417
-700
-618
-291
-512
-776
-381
-280
-615
-442
-256
-547
-585
-265
-360
-619
-384
-337
-625
-388
-174
-485
-409
-37
-297
-539
-150
-93
-230
-14
25
-191
-167
78
-104
-242
71
72
-150
42
207
-88
-43
242
-27
-212
87
-22
-312
19
227
-150
-201
93
-70
-169
193
188
-189
-37
207
-54
-49
205
23
-141
76
12
-97
158
200
-46
-95
228
188
-181
123
338
-49
95
332
-14
-15
332
153
-86
208
342
71
166
359
-28
-51
450
265
-45
322
300
-83
133
311
49
76
340
195
39
275
293
-4
174
496
178
158
611
394
213
589
507
233
472
733
517
538
905
668
374
631
511
125
329
432
50
52
308
74
-127
271
339
-67
190
455
-240
-322
663
1480
2651
4442
5024
3888
2873
2104
926
596
945
311
-288
132
104
-319
-116
-47
-350
-251
4
-171
-309
-56
-46
-356
-180
166
-230
-312
149
-46
-280
36
54
-310
-165
37
-172
-14
217
-29
-187
134
289
-122
-13
364
4
48
401
142
-2
147
194
121
306
510
198
106
396
322
172
405
414
137
168
291
159
63
271
204
-104
128
198
-126
122
287
-37
-19
268
68
-171
168
151
-198
72
309
-70
-14
290
-11
-147
234
249
-113
32
219
-11
25
274
90
-32
199
159
-148
-75
291
71
-59
188
51
-104
128
189
-101
42
259
-52
-68
229
-76
-227
234
81
-298
78
289
-143
-142
213
14
-126
170
115
-179
59
297
-23
16
406
107
-183
275
303
-135
-15
257
-64
-181
74
-205
-533
-295
-252
-661
-556
-311
-672
-815
-378
-471
-797
-420
-332
-749
-675
-471
-367
733
2660
3921
4012
3198
1932
738
302
349
-201
-631
-384
-520
-778
-606
-665
-916
-797
-627
-831
-773
-528
-703
-810
-601
-563
-730
-569
-474
-739
-668
-386
-510
-613
-359
-351
-596
-489
-312
-615
-585
-106
-246
-491
-113
-104
-565
-266
41
-401
-300
136
-48
-294
-69
15
-319
-110
192
-213
-235
216
59
-158
147
49
-324
-127
35
-251
-219
27
-211
-380
-115
-177
-389
-164
-91
-322
-313
-79
-150
-319
-44
12
-357
-236
50
-253
-237
118
-90
-321
-28
55
-265
-112
32
-206
-132
166
101
-235
-82
19
-188
31
82
-257
-177
151
-111
-277
76
-134
-366
-6
105
-174
-180
121
-62
-332
-67
-29
-204
-108
-27
-296
-328
106
-34
-350
52
192
-169
8
264
-46
-119
318
326
54
417
509
66
251
384
-26
-15
250
-23
-211
23
-103
-235
-77
-10
-277
-325
43
-133
-324
-127
-205
-90
1246
3044
4004
4453
3973
2423
1223
958
679
55
-55
-9
-280
-388
-247
-377
-606
-292
-275
-721
-387
-119
-519
-474
-167
-325
-519
-232
-192
-512
-372
-195
-429
-360
-38
-324
-546
-206
-167
-404
-238
27
-232
-217
148
-68
-273
40
97
-147
9
234
-26
-139
267
81
-280
260
351
-126
122
387
10
-55
259
75
-209
39
30
-324
-119
108
-210
-200
68
-151
-306
-42
-56
-352
-139
71
-306
-315
64
-86
-317
-65
-12
-243
-88
143
-141
-284
131
88
-250
28
72
-295
-45
65
-343
-139
233
-86
-297
21
-87
-309
-8
37
-268
-143
71
-125
-260
-57
10
-398
-214
154
-235
-273
104
-148
-382
-28
-157
-384
36
174
-177
-149
228
46
-183
239
160
-59
399
476
15
36
328
-31
-285
-12
-144
-556
-325
-24
-335
-394
-121
-353
-532
-165
-159
-471
-489
-189
239
1401
3313
4190
3794
3086
1944
750
524
470
-155
-375
-209
-420
-720
-457
-396
-734
-535
-469
-672
-607
-457
-490
-681
-402
-353
-773
-488
-146
-577
-674
-250
-462
-662
-265
-253
-587
-428
-119
-404
-493
-128
-235
-481
-207
-121
-530
-433
-182
-520
-469
-130
-355
-502
-197
-79
-466
-439
103
-173
-341
174
2
-378
-65
71
-340
-285
-68
-431
-458
-67
-239
-669
-459
-90
-467
-484
-95
-523
-665
-159
-256
-415
-47
-51
-500
-339
-49
-489
-607
-154
-143
-458
-93
107
-389
-186
199
-112
-154
156
-45
-247
83
29
-271
-84
51
-228
-330
2
-101
-319
-7
-17
-261
-163
51
-120
-193
171
-116
-421
38
76
-278
-73
148
-43
13
176
-21
-73
273
360
105
298
557
293
227
408
248
98
233
219
-104
-46
165
-248
-297
70
-240
-435
-18
27
-330
-144
-27
-495
-59
1415
2660
3789
4598
3789
2253
1438
910
435
271
153
-219
-411
-161
-247
-657
-452
-219
-579
-505
-144
-398
-533
-187
-299
-609
-332
-119
-353
-405
-150
-305
-590
-242
-105
-412
-207
12
-319
-305
13
-292
-407
117
60
-284
-95
48
-123
-62
213
-4
-135
246
256
-95
44
295
-124
-50
426
88
-113
244
189
-84
16
82
-75
-160
-45
-141
-291
-5
2
-363
-213
51
-266
-290
73
-160
-432
-105
32
-345
-220
78
-276
-213
94
-185
-341
-23
-7
-352
-143
88
-257
-204
150
-51
-339
-123
60
-164
-60
68
-216
-213
77
-23
-307
-89
54
-215
-54
155
-215
-269
22
-70
-240
-11
71
-225
-122
68
-200
-254
34
10
-145
136
237
-83
72
176
-26
155
488
447
116
337
431
-143
-110
161
-173
-252
37
-180
-448
-127
-118
-438
-221
-83
-368
-252
-107
-501
-51
1454
2732
3828
4540
3906
2414
1302
816
536
203
-48
-263
-477
-434
-326
-617
-641
-271
-476
-670
-444
-425
-592
-498
-332
-558
-580
-252
-420
-692
-339
-203
-572
-384
-132
-496
-456
-115
-355
-574
-160
-101
-425
-202
-27
-342
-319
73
-86
-381
-65
156
-135
-80
174
-138
-193
162
-37
-151
252
228
-114
-68
109
-106
-237
4
-139
-363
-131
-103
-407
-276
-96
-438
-478
-124
-192
-384
-84
-78
-472
-185
42
-438
-465
-54
-178
-455
-147
-41
-451
-247
55
-289
-297
69
-156
-488
-62
18
-427
-106
68
-508
-385
95
-173
-384
-82
-137
-418
-154
60
-315
-409
-38
-168
-400
-77
-150
-432
-275
-178
-235
-238
-26
-140
-415
-110
-51
-379
-173
14
-309
-139
316
26
-231
106
143
-97
168
392
103
180
455
129
-114
215
73
-410
-91
115
-407
-387
24
-212
-450
-144
-78
-409
-254
-28
-605
-516
721
1727
2996
4547
4414
2929
1918
1186
357
262
432
-166
-544
-256
-409
-954
-988
-864
-1177
-1259
-861
-1052
-1331
-931
-980
-1332
-1086
-869
-1111
-1054
-814
-1018
-1144
-856
-799
-963
-816
-773
-1005
-919
-604
-747
-872
-597
-634
-988
-753
-368
-668
-710
-303
-450
-743
-460
-439
-680
-418
-205
-507
-499
-94
-327
-599
-233
-206
-560
-374
-169
-572
-561
-230
-539
-696
-361
-409
-708
-520
-235
-593
-845
-612
-750
-908
-546
-562
-948
-747
-498
-810
-787
-418
-657
-888
-497
-498
-843
-535
-275
-648
-637
-285
-507
-711
-387
-377
-671
-422
-211
-590
-617
-294
-453
-600
-363
-354
-587
-465
-231
-468
-542
-210
-381
-583
-200
-247
-622
-321
-144
-565
-546
-182
-267
-425
-213
-177
-396
-242
39
-213
-236
148
-3
-179
151
222
-11
157
225
-157
-126
204
-62
-387
-102
-116
-566
-307
30
-393
-434
-55
-277
-438
-89
-234
-494
372
1876
3165
4401
4586
3130
1736
1189
795
297
159
49
-407
-503
-211
-329
-578
-329
-271
-604
-406
-122
-468
-491
-105
-328
-528
-98
-148
-492
-274
-86
-321
-268
34
-164
-374
-70
-43
-361
-92
229
-174
-246
247
60
-213
120
206
-74
87
363
58
-17
356
226
-90
254
369
79
257
379
131
111
354
175
-42
268
180
-210
76
255
-121
-127
198
64
-225
20
120
-141
-48
29
-341
-349
8
-165
-297
-37
-105
-288
-46
122
-198
-209
112
-153
-319
95
73
-264
-90
162
-157
-301
63
-54
-300
68
84
-327
-167
73
-285
-277
112
-67
-301
-66
38
-270
-130
97
-205
-175
56
-130
-265
41
-3
-349
-112
132
-152
-52
335
51
-205
140
341
112
220
502
259
230
407
161
-5
141
23
-263
-55
124
-305
-418
-8
-72
-309
-101
-57
-322
-123
-64
-466
177
1669
2990
4214
4598
3438
1845
1140
796
333
158
120
-216
-476
-230
-246
-522
-348
-186
-435
-506
-267
-353
-552
-241
-140
-464
-289
-66
-404
-486
-107
-135
-310
133
251
-139
71
259
-167
-154
373
99
-236
352
479
65
343
581
187
349
728
496
352
612
596
325
607
830
502
543
851
609
286
716
948
362
418
818
407
275
647
470
199
487
535
207
375
559
179
151
531
455
203
458
522
65
242
643
302
197
535
290
126
492
485
180
326
526
216
201
518
351
48
378
575
153
254
487
174
278
522
220
82
371
314
-20
246
510
68
-13
388
76
-78
346
222
6
217
356
93
51
286
85
21
397
418
71
172
501
276
248
534
399
435
705
591
293
450
566
78
55
375
-106
-269
285
91
-241
46
176
-125
-149
209
-7
-427
6
723
1540
3195
4680
4487
3411
2633
1482
690
902
562
-112
-78
-5
-369
-325
-67
-311
-417
-117
-113
-454
-316
-43
-408
-430
-8
-202
-396
-105
-123
-417
-197
-9
-317
-311
-60
-157
-325
-211
-146
-303
-152
99
-227
-240
221
2
-218
126
119
-122
129
259
-138
-168
217
120
-157
104
232
-19
148
338
-52
-199
135
-19
-275
1
-66
-363
-190
-47
-273
-246
-43
-303
-394
-52
-154
-518
-218
43
-431
-402
102
-235
-505
31
-68
-531
-241
5
-338
-417
-18
-99
-400
-20
35
-396
-152
-68
-413
-223
96
-130
-368
-38
-32
-404
-223
-21
-344
-255
157
-182
-421
-72
-141
-439
-208
6
-310
-336
75
-171
-519
-77
-75
-471
-162
20
-299
-183
105
-67
-223
15
47
-199
13
282
81
82
310
107
-90
99
-85
-409
-149
-100
-462
-331
-41
-318
-544
-197
-197
-559
-216
-201
-724
-248
1014
2136
3477
4664
4041
2604
1802
1081
388
285
184
-423
-500
-119
-378
-735
-467
-387
-652
-562
-255
-523
-759
-345
-323
-704
-497
-220
-580
-563
-247
-445
-544
-264
-329
-644
-481
-214
-459
-496
-102
-350
-564
-124
-183
-499
-181
-18
-373
-277
79
-161
-313
58
-10
-357
-142
119
-158
-157
199
-81
-267
151
43
-375
-116
3
-396
-306
-41
-267
-432
-146
-206
-514
-267
-122
-465
-410
-67
-295
-463
-106
-149
-569
-300
-31
-412
-340
-64
-338
-435
-69
-148
-515
-132
90
-379
-321
-8
-215
-394
-81
-49
-458
-296
-64
-446
-391
63
-201
-420
-20
-90
-487
-183
43
-347
-308
25
-219
-346
-7
-170
-357
-169
-211
-303
-175
18
-169
-349
-49
-52
-374
-135
159
-133
-141
198
-84
-203
303
198
-139
296
489
35
-1
291
6
-241
117
-54
-498
-225
-66
-373
-348
-449
-957
-1075
-733
-747
-1216
-1141
-674
-25
1371
3041
3862
3305
2198
1085
85
-13
-21
-713
-951
-742
-996
-1263
-984
-941
-1175
-1002
-909
-1128
-1001
-732
-990
-1137
-830
-824
-1107
-890
-671
-1016
-982
-647
-795
-950
-610
-616
-973
-716
-532
-825
-641
-355
-611
-699
-377
-410
-700
-414
-145
-485
-459
-124
-397
-526
-118
-143
-418
-206
-30
-311
-226
173
-125
-393
-28
-129
-503
-328
-233
-534
-437
-130
-444
-684
-249
-236
-618
-342
-178
-674
-606
-84
-323
-603
-262
-284
-579
-383
-213
-493
-503
-54
-222
-490
-121
-172
-504
-215
-6
-420
-368
35
-192
-347
-54
-178
-426
-206
-131
-341
-194
-4
-288
-353
-90
-188
-426
-165
-14
-329
-303
-43
-264
-328
66
-78
-342
-132
-92
-397
-283
73
-204
-274
122
-33
-240
124
210
-158
9
332
97
45
421
416
25
120
300
-175
-202
213
-135
-334
34
-95
-346
-128
-59
-407
-283
78
-214
-420
-241
-50
721
2425
4009
4453
3941
2881
1532
701
730
484
-116
-147
-106
-438
-448
-282
-427
-440
-217
-263
-561
-471
-225
-422
-456
-94
-357
-582
-106
-198
-530
-211
-53
-375
-338
33
-215
-405
-6
-72
-293
-97
-67
-171
-44
97
-104
-92
274
26
-213
262
374
12
91
341
134
-13
340
261
-67
287
386
53
183
293
-18
-75
227
115
-166
22
72
-180
-117
65
-154
-310
84
66
-420
-164
141
-169
-156
175
-21
-201
120
28
-256
72
206
-189
-132
175
-75
-224
150
23
-316
55
241
-160
-49
249
7
78
419
290
86
321
436
88
214
494
137
-87
107
89
-172
-17
148
-208
-242
-35
-204
-174
220
177
-77
210
328
48
309
687
227
-95
300
272
54
311
256
35
252
400
56
-127
166
21
-361
-177
-116
-479
-327
-25
-360
-476
-45
-65
-447
-242
-121
-564
-23
1442
2524
3791
4605
3390
1908
1339
788
269
219
300
-293
-534
-193
-468
-700
-354
-419
-730
-505
-312
-448
-424
-173
-343
-680
-365
-95
-423
-340
43
-194
-290
75
-7
-271
46
224
-114
-2
247
30
18
304
178
-4
333
341
27
210
444
286
189
449
375
75
392
576
196
302
604
232
171
591
402
170
336
121
-80
21
45
-175
-295
2
-107
-421
-180
-37
-343
-246
96
-190
-344
2
-139
-410
-80
141
-174
-61
127
-298
-271
35
-57
-242
-11
101
-291
-114
167
-296
-341
73
-77
-249
115
209
-216
-25
299
-141
-155
290
118
-150
136
268
-59
19
248
-27
-39
298
32
-272
207
396
-44
64
300
-55
-86
282
186
-62
310
526
133
276
530
129
224
687
471
343
732
710
321
449
665
260
142
440
138
-123
175
148
-82
66
-75
-506
-543
-301
-387
-812
-584
109
815
2350
4053
4163
3239
2407
1188
191
322
266
-552
-672
-336
-726
-861
-489
-682
-937
-655
-528
-827
-743
-394
-650
-677
-210
-231
-453
-234
-136
-449
-438
-326
-544
-390
-10
-355
-674
-324
-269
-532
-350
-115
-324
-304
76
-100
-229
153
126
-158
-53
194
31
-5
318
178
-142
67
235
-87
33
332
10
-136
184
112
-292
-96
-1
-487
-304
54
-306
-464
-156
-215
-532
-247
-84
-459
-232
107
-223
-202
155
-53
-293
99
246
-116
52
179
-99
8
262
152
-27
162
258
-53
-35
301
190
97
342
181
-68
185
235
-36
139
379
22
-110
221
98
-117
178
183
-184
20
293
-2
-84
256
143
-66
157
192
-5
64
311
101
-3
376
175
-120
326
459
93
248
539
203
135
590
472
247
617
633
292
475
664
253
138
402
121
-134
247
226
-226
-6
245
-132
-112
224
-13
-189
-39
157
736
2256
4138
4762
4203
3377
2142
858
755
839
52
-144
51
-281
-418
-395
-745
-954
-727
-744
-933
-759
-633
-965
-1082
-653
-705
-1003
-752
-656
-906
-700
-333
-579
-568
-149
-399
-660
-216
-18
-347
-189
106
-250
-265
157
54
-143
168
290
-58
40
359
102
24
353
242
-2
251
349
51
243
526
165
52
391
100
-319
-8
-111
-684
-426
-96
-469
-581
-222
-359
-632
-344
-241
-519
-506
-272
-520
-613
-299
-482
-636
-371
-374
-620
-424
-180
-471
-545
-225
-410
-596
-216
-168
-559
-412
-134
-445
-389
-193
-412
-512
-304
-194
-403
-269
-76
-399
-479
-132
-294
-561
-191
-88
-515
-445
-104
-336
-436
-53
-170
-562
-254
-47
-374
-206
48
-359
-502
-52
-126
-427
-61
83
-212
-41
188
-91
-158
189
202
-39
213
391
69
137
276
-51
-150
56
-156
-460
-184
-72
-422
-348
-42
-331
-507
-138
-217
-472
-233
-256
-84
1289
2988
4139
4379
3563
2147
1037
788
641
33
-182
-67
-429
-583
-244
-365
-683
-378
-278
-665
-476
-118
-448
-628
-279
-305
-517
-231
-202
-581
-346
-103
-452
-395
-37
-208
-394
-201
-199
-341
-136
56
-220
-268
122
33
-170
111
187
-120
-61
253
72
-30
295
144
-172
126
248
-19
178
384
28
-56
268
51
-217
61
-45
-337
-7
143
-338
-276
90
-157
-267
-16
-93
-341
-195
-23
-211
-237
51
-76
-353
17
61
-318
-36
144
-218
-182
142
-31
-199
37
-16
-153
56
75
-216
-134
156
-67
-212
97
103
-181
-62
156
-172
-256
196
63
-286
82
119
-329
-119
132
-131
-150
133
-71
-265
29
-29
-200
32
158
-144
-159
220
84
-79
228
251
-44
78
318
160
209
524
402
152
357
366
-27
83
318
-54
-172
65
-154
-304
-34
-22
-373
-210
76
-300
-248
73
-314
-179
1215
2590
3708
4607
4037
2416
1354
994
598
41
-41
-1
-312
-267
-171
-482
-489
-193
-376
-629
-304
-257
-525
-378
-195
-421
-436
-76
-346
-614
-89
-3
-448
-234
19
-362
-347
-17
-88
-178
19
53
-240
-83
271
-27
-62
311
-90
-237
299
264
16
274
445
76
34
292
120
76
396
349
-7
97
361
94
-70
254
135
-274
58
178
-271
-35
238
-131
-144
159
19
-180
106
200
-151
16
259
-85
-106
392
171
-221
209
254
-74
195
350
12
66
373
162
-61
227
257
-108
95
381
4
-29
302
79
-116
206
232
-254
-72
379
-7
-66
259
-17
-155
147
114
-170
9
195
-89
-46
236
39
-189
132
194
-133
41
258
70
107
415
160
-86
375
505
165
299
654
373
185
539
285
-53
312
317
-206
-131
100
-288
-318
78
-83
-425
-181
-176
-491
-291
-141
-183
705
2432
3730
4189
3859
2696
1327
760
720
291
8
-49
-477
-650
-299
-365
-746
-513
-348
-610
-491
-140
-262
-407
-76
-42
-350
-170
2
-249
-142
60
-214
-454
-154
-83
-505
-250
11
-317
-326
-1
-72
-311
-48
31
-283
-94
153
-114
-56
241
20
-218
91
133
-222
13
351
29
-54
309
159
-90
152
163
-159
11
180
-255
-273
150
-78
-314
66
-25
-338
-46
35
-245
-200
58
-50
-299
-13
19
-273
36
173
-106
-30
134
-140
-279
133
108
-214
121
310
-104
-77
338
140
-146
214
283
-95
73
291
-7
-42
257
90
-87
197
178
-69
137
330
12
8
282
84
-100
100
145
-6
142
210
-138
-151
170
-16
-113
308
302
-94
94
404
107
101
400
165
52
464
487
307
576
690
342
274
562
359
34
165
192
-47
26
236
-98
-201
173
-82
-289
130
138
-211
-192
97
631
2002
3835
4700
4253
3447
2212
905
847
915
167
-124
70
-317
-563
-131
-171
-525
-395
-217
-393
-425
-123
-238
-474
-172
-134
-567
-358
-37
-397
-460
-161
-343
-488
-296
-475
-780
-649
-466
-720
-748
-342
-493
-818
-478
-330
-683
-536
-204
-560
-612
-179
-313
-638
-307
-183
-588
-301
-82
-456
-310
47
-255
-496
-165
-247
-596
-295
-130
-599
-657
-184
-343
-736
-411
-335
-665
-423
-204
-542
-515
-176
-409
-674
-306
-184
-524
-398
-185
-514
-476
-104
-428
-597
-174
-241
-587
-269
-11
-424
-427
-65
-315
-554
-163
-92
-442
-294
17
-271
-380
46
-114
-429
34
128
-306
-124
117
-201
-298
80
-22
-334
17
93
-290
-82
150
-237
-219
207
-37
-313
101
118
-284
-12
307
5
13
449
162
-198
300
475
135
305
531
277
232
552
332
-127
220
336
-135
4
192
-137
-134
155
-297
-718
-444
-551
-827
-638
-660
-789
219
2012
3262
3843
3684
2536
1101
496
338
-197
-437
-398
-701
-1015
-814
-728
-1099
-884
-605
-979
-972
-744
-937
-949
-632
-680
-994
-743
-592
-1000
-857
-523
-786
-942
-600
-625
-1005
-739
-422
-734
-763
-415
-660
-867
-408
-469
-796
-466
-270
-568
-531
-251
-469
-674
-366
-225
-526
-396
-154
-487
-502
-145
-371
-540
-151
-255
-654
-400
-192
-563
-652
-397
-626
-848
-495
-491
-860
-643
-388
-676
-685
-370
-548
-879
-549
-450
-729
-503
-438
-666
-587
-434
-553
-602
-354
-351
-613
-478
-310
-650
-552
-106
-377
-702
-423
-276
-522
-420
-261
-576
-572
-246
-442
-667
-324
-384
-712
-479
-318
-512
-457
-291
-542
-633
-350
-344
-596
-421
-164
-519
-580
-241
-483
-598
-158
-136
-436
-232
-48
-470
-308
259
11
-211
125
179
-116
-123
23
-145
-207
33
-222
-554
-297
-290
-653
-445
-155
-485
-551
-269
-370
-532
-407
-430
-236
1010
2881
4009
4233
3622
2051
836
628
454
-94
-254
-247
-601
-637
-358
-575
-843
-542
-456
-809
-652
-414
-706
-708
-415
-507
-640
-392
-391
-669
-479
-277
-580
-614
-290
-441
-604
-311
-255
-567
-454
-132
-432
-480
-107
-279
-401
-138
-176
-320
-99
68
-210
-228
73
-158
-311
63
35
-256
17
180
-214
-165
139
-36
-284
-127
-174
-518
-284
-173
-471
-311
-129
-407
-561
-281
-222
-548
-460
-138
-361
-490
-148
-308
-534
-105
-133
-533
-208
-11
-417
-328
-25
-245
-384
-122
-104
-379
-272
-50
-286
-345
-41
-232
-509
-154
-64
-531
-292
35
-376
-375
-47
-240
-479
-175
-201
-565
-321
-92
-306
-457
-224
-223
-448
-172
-213
-492
-161
29
-194
-179
68
-132
-332
102
116
-170
125
332
-84
-267
125
-63
-532
-168
-94
-535
-382
-223
-532
-585
-254
-362
-613
-396
-298
-554
-687
-375
217
1422
3390
4379
3727
2779
1681
502
368
500
-187
-547
-357
-530
-758
-484
-513
-859
-614
-482
-822
-748
-412
-635
-772
-366
-412
-759
-555
-347
-617
-654
-455
-486
-597
-363
-257
-670
-549
-119
-434
-531
-38
-244
-466
-115
-193
-394
-149
-34
-364
-294
142
-60
-424
-121
-23
-325
-63
137
-230
-184
173
-71
-283
-9
-30
-349
-125
88
-371
-450
9
-66
-358
-100
-73
-406
-266
-46
-287
-358
-83
-162
-401
-81
27
-377
-204
23
-308
-272
31
-161
-301
19
19
-305
-150
15
-299
-268
94
-108
-378
-82
-42
-388
-304
-3
-247
-308
107
-151
-426
-67
-27
-400
-241
38
-300
-263
115
-94
-270
59
101
-264
-123
276
-32
-159
323
169
-74
357
391
-15
200
547
193
246
712
324
-45
254
170
-251
-113
-19
-491
-418
20
-237
-494
-260
-112
-413
-435
-95
-340
-612
-385
12
903
2643
4210
4364
3770
2881
1488
659
718
548
-27
-94
-120
-662
-675
-519
-795
-809
-587
-644
-736
-396
-339
-717
-442
-139
-433
-497
-151
-304
-736
-355
-174
-581
-505
-238
-571
-656
-204
-402
-651
-299
-261
-634
-490
-105
-341
-457
-98
-305
-502
-96
-71
-340
-203
37
-179
-227
222
66
-206
209
164
-251
-130
49
-217
-278
-5
-255
-528
-96
22
-492
-369
62
-327
-514
-95
-225
-430
-89
-160
-412
-178
-27
-272
-316
74
-23
-204
109
105
-203
-72
222
-36
-160
254
148
-199
95
180
-99
45
176
-111
-22
267
16
-149
184
183
-149
6
180
-66
-144
164
117
-140
123
181
-260
-80
274
-90
-43
306
-10
-162
206
146
-118
165
410
194
30
250
328
241
433
465
266
338
524
259
243
503
117
-180
58
18
-273
-86
220
-106
-313
113
-2
-259
186
105
-476
73
1363
2405
3805
4919
4230
2815
2041
1155
524
576
300
-85
-175
-207
-362
-527
-198
-47
-504
-350
-11
-426
-462
-34
-281
-530
-139
-98
-428
-267
-48
-350
-367
25
-182
-527
-175
59
-265
-198
48
-201
-253
-15
-133
-276
6
103
-194
-94
164
-119
-79
241
-18
-188
111
226
-46
24
266
-5
-17
351
121
-202
126
250
-193
-187
108
-197
-329
122
-24
-335
-43
-53
-311
-154
-6
-280
-202
90
-154
-229
94
56
-278
-104
60
-130
-123
-35
-102
-226
87
171
-278
-106
112
-241
-183
198
34
-292
22
201
-170
-64
201
-159
-230
199
-9
-315
85
109
-290
-57
71
-220
-96
102
-151
-206
192
77
-242
57
245
-74
-31
195
-310
-637
-296
-312
-533
-257
-158
-503
-303
88
-228
-493
-207
-262
-648
-568
-462
-742
-750
-434
-656
-958
-576
-540
-893
-662
-411
-806
-983
-396
322
1476
3393
4398
3473
2290
1459
364
25
210
-380
-765
-431
-520
-927
-882
-656
-815
-865
-591
-739
-925
-634
-624
-951
-769
-411
-739
-872
-387
-542
-836
-443
-463
-809
-530
-241
-519
-579
-213
-457
-669
-153
-159
-590
-407
-48
-299
-392
14
-173
-409
-32
24
-325
-157
117
-198
-212
83
-38
-216
-17
49
-250
-80
125
-302
-385
28
-143
-494
-101
2
-463
-372
-6
-175
-302
-66
-179
-384
-134
-33
-329
-191
0
-292
-208
38
-103
-210
-70
50
-159
-211
0
-115
-136
182
-9
-329
76
143
-286
-94
156
-153
-221
85
-54
-291
53
128
-317
-180
116
-199
-232
118
17
-235
2
108
-261
-103
255
-102
-186
246
41
-180
240
348
9
66
370
207
176
520
422
146
336
394
-28
99
358
-119
-133
241
-82
-330
-12
-10
-293
-81
119
-162
-161
11
-154
135
1618
3318
4288
4582
3817
2286
1268
1055
684
190
203
73
-293
-194
-9
-335
-426
-112
-230
-369
0
-28
-435
-219
-46
-299
-227
62
-87
-378
-109
82
-150
-89
1
-130
-50
190
65
-142
212
281
-109
-1
266
79
63
403
227
5
352
405
77
181
469
261
239
520
262
169
599
513
135
409
599
181
49
313
257
-9
201
229
-117
113
378
60
-17
309
202
-144
79
280
-99
-1
359
-17
-147
269
155
-140
262
368
-85
89
352
79
-5
322
192
-114
218
254
-137
135
403
29
16
273
31
-75
229
225
-61
41
270
-21
-42
294
116
-109
168
126
-186
96
263
-64
-59
429
383
30
349
355
-12
230
581
347
136
596
593
158
458
513
35
125
278
-31
-129
79
-12
-277
64
131
-323
-96
103
-218
-272
-85
-54
451
2063
3688
4341
4290
3402
1832
899
939
578
-81
36
118
-387
-415
-94
-382
-512
-145
-269
-506
-240
-210
-470
-302
-125
-391
-336
-32
-299
-520
-186
-50
-285
-237
-57
-229
-315
-25
-96
-376
-66
55
-255
-70
230
-43
-155
176
115
-124
138
303
5
134
372
11
18
435
254
-29
274
325
-67
64
223
-171
-200
105
-44
-317
-51
60
-337
-223
79
-228
-333
62
-29
-338
-38
102
-267
-215
86
-118
-241
64
-73
-308
139
235
-232
-57
279
-49
-99
238
33
-148
63
43
-75
55
160
-83
-92
109
-89
-211
29
126
-192
-124
101
-201
-151
112
-139
-288
72
46
-373
-224
108
-49
-210
46
-2
-248
39
121
-182
-76
297
203
55
334
259
12
322
363
-47
43
210
-181
-382
39
-55
-446
-70
44
-367
-261
-7
-310
-380
-140
-416
-227
1267
2777
3777
4401
3769
2334
1328
917
548
123
107
-56
-449
-372
-202
-458
-582
-348
-491
-648
-201
-87
-499
-357
-137
-462
-452
-64
-220
-512
-243
-212
-483
-197
-24
-423
-392
-77
-186
-302
16
104
-220
-70
146
-128
-226
117
94
-210
119
235
-364
-377
-27
-242
-273
119
56
-157
118
144
-156
-37
155
-129
-186
126
-31
-294
2
116
-215
-73
25
-447
-461
36
28
-267
-21
172
-184
-123
138
-27
50
371
259
-34
153
351
170
216
476
244
18
450
512
216
521
562
157
399
618
248
180
506
350
50
460
577
156
293
446
122
229
608
351
-7
355
551
137
189
474
196
88
381
326
136
432
577
284
494
661
375
399
727
715
504
725
847
607
633
880
603
322
590
408
129
434
377
-40
118
358
24
17
359
134
4
309
111
-104
944
2536
3778
4852
4801
3470
2126
1470
1176
588
290
310
11
-163
69
-64
-363
-33
59
-303
-176
45
-293
-338
65
-43
-322
-23
98
-316
-155
148
-175
-230
133
42
-238
-53
58
-210
-117
261
61
-89
229
138
-105
189
311
40
185
439
186
96
423
257
-8
313
452
182
240
499
269
74
431
377
24
298
334
-83
106
403
31
-154
199
135
-89
76
74
-140
-85
215
-14
-263
201
72
-298
194
198
-240
48
313
-35
-95
269
97
-193
146
327
-51
-55
273
56
-124
184
179
-179
57
317
-107
-35
275
-10
-154
142
111
-146
109
190
-184
-43
265
-114
-299
182
151
-168
76
155
-186
-122
155
-46
-99
267
220
-22
193
368
92
148
487
343
292
650
475
78
415
477
64
99
246
13
-153
115
19
-473
-430
-400
-736
-606
-400
-629
-808
-697
-493
290
2035
3683
4096
3391
2414
1212
329
293
-13
-544
-531
-535
-906
-850
-605
-953
-1010
-640
-782
-1052
-768
-592
-997
-839
-529
-939
-879
-477
-672
-892
-691
-559
-699
-609
-415
-692
-731
-369
-519
-720
-412
-419
-660
-389
-142
-531
-705
-221
-244
-480
-73
-16
-472
-328
45
-197
-419
-62
-62
-397
-26
94
-371
-203
43
-391
-473
-60
-278
-678
-361
-146
-505
-560
-235
-311
-490
-238
-266
-597
-328
-159
-506
-403
-130
-353
-450
-100
-152
-496
-310
-73
-369
-360
-39
-264
-351
-35
-172
-423
-136
-15
-351
-329
-15
-231
-399
-35
-162
-461
-127
-21
-386
-343
-114
-259
-305
-42
-112
-372
-138
-21
-392
-385
-16
-192
-389
-87
-175
-405
-110
32
-289
-129
160
-212
-187
319
179
-137
195
425
33
5
315
-32
-272
52
2
-433
-352
-79
-329
-377
-145
-348
-487
-161
-146
-369
-221
-283
-513
303
1915
3196
4275
4525
3134
1610
1053
702
261
59
-17
-303
-444
-196
-365
-653
-347
-226
-533
-541
-264
-448
-600
-247
-388
-640
-283
-157
-463
-430
-223
-348
-412
-72
-74
-385
-175
-70
-341
-189
90
-201
-246
139
18
-195
73
190
-109
-19
290
23
-78
319
202
-106
218
383
16
78
417
182
37
299
200
-96
121
204
-180
-82
119
-91
-130
127
-18
-337
16
243
-172
-190
118
-136
-263
12
-71
-268
-52
157
-168
-218
190
-7
-303
58
110
-227
50
242
-131
-77
229
0
-187
110
35
-288
10
209
-155
-102
155
-91
-289
-82
-11
-161
8
99
-300
-294
130
-58
-271
66
20
-325
-94
153
-121
-14
286
-9
-129
150
101
110
395
353
173
258
418
149
-92
164
58
-283
-100
15
-292
-257
13
-242
-399
-105
-154
-379
-130
-80
-570
-283
1001
2115
3361
4720
4176
2420
1626
1170
501
311
313
-147
-399
-129
-252
-575
-372
-230
-531
-486
-163
-400
-570
-189
-277
-580
-241
-59
-426
-449
-107
-317
-455
-80
-240
-483
-106
24
-427
-374
79
-177
-385
43
77
-230
11
191
-222
-154
285
17
-203
261
176
-301
-29
82
-340
-215
114
-236
-480
-41
-68
-508
-333
-285
-633
-579
-399
-603
-688
-321
-407
-898
-638
-318
-693
-646
-174
-456
-688
-264
-278
-575
-302
-167
-546
-524
-342
-588
-625
-190
-247
-507
-202
-133
-402
-319
-143
-417
-552
-234
-416
-758
-409
-261
-600
-470
-95
-298
-364
10
-143
-400
-140
19
-247
-236
119
-163
-380
130
39
-321
-3
120
-237
-136
189
28
-33
276
181
-129
202
492
95
134
572
317
84
348
268
-68
90
203
-197
-261
-65
-253
-279
61
-41
-390
-178
-28
-394
-454
-243
-188
545
2221
3717
4281
3923
2946
1614
720
665
302
-204
27
-103
-597
-369
-256
-711
-606
-170
-494
-719
-262
-323
-709
-417
-196
-543
-530
-169
-361
-494
-146
-251
-536
-243
-97
-542
-455
23
-298
-482
10
-103
-460
-166
-21
-302
-200
126
-56
-216
87
50
-288
-158
106
-132
-139
227
8
-192
237
250
-159
72
178
-279
-171
111
-231
-348
21
-109
-402
-73
40
-335
-201
130
-57
-154
154
86
-166
104
312
46
55
465
226
-143
284
385
40
226
385
79
197
605
322
45
362
433
136
262
480
166
133
403
202
39
331
310
2
178
362
57
28
357
192
-62
180
270
52
238
417
45
59
417
163
30
477
472
140
337
556
365
360
566
452
443
805
728
297
405
618
327
251
407
148
-64
249
277
-161
-40
344
42
-33
447
172
-296
97
852
1792
3297
4772
4644
3619
2765
1495
728
945
623
-79
23
89
-375
-263
189
-147
-469
-66
-25
-400
-185
-16
-395
-304
124
-58
-295
-81
-29
-290
-168
94
-214
-219
117
-142
-296
121
102
-273
-38
190
-160
-146
272
81
-199
271
314
-115
192
407
-81
6
439
150
12
326
377
129
308
491
-10
8
367
65
-97
199
107
-144
56
202
-110
-93
226
-109
-278
92
38
-238
-15
198
-101
-98
177
0
-147
189
129
-261
52
260
-119
-56
235
125
-10
158
211
-148
-70
317
69
23
396
90
-112
346
300
-80
132
252
-416
-611
-299
-628
-823
-455
-491
-832
-597
-386
-792
-817
-413
-579
-814
-460
-442
-743
-455
-201
-556
-622
-234
-361
-510
-151
-109
-247
-24
9
-374
-407
-66
-312
-696
-428
-382
-687
-513
-342
-720
-765
-335
-483
-773
-467
-435
-856
-678
166
1139
2624
4272
4143
2773
1951
1009
184
235
107
-516
-704
-437
-626
-903
-543
-539
-945
-680
-448
-834
-766
-343
-576
-822
-479
-371
-740
-634
-394
-687
-634
-265
-448
-682
-358
-277
-565
-402
-185
-487
-509
-127
-274
-451
-133
-143
-353
-101
63
-299
-303
94
-115
-335
-19
27
-313
-201
185
-54
-154
166
-45
-280
37
71
-372
-286
35
-264
-358
-27
-236
-477
-54
-101
-469
-152
9
-264
-297
-39
-93
-344
-83
-23
-315
-61
124
-249
-225
106
-57
-298
-56
146
-153
-83
191
-121
-166
167
-34
-335
-41
69
-223
0
206
-202
-179
173
-86
-361
-37
89
-246
-94
213
-154
-273
150
-9
-351
23
101
-262
21
253
-32
61
341
175
-22
251
368
154
380
464
157
215
433
179
-201
43
113
-249
-174
-26
-267
-262
79
-163
-445
-6
57
-385
-434
14
797
2140
3929
4687
3902
2854
1812
659
486
683
22
-328
-23
-268
-610
-223
-196
-623
-364
-163
-545
-486
-192
-341
-487
-220
-205
-534
-403
-150
-327
-367
-32
-182
-451
-105
-43
-405
-166
128
-306
-346
96
-32
-242
29
75
-172
-17
280
-88
-260
285
91
-253
170
325
-11
-60
233
171
29
298
218
-103
108
184
-180
-108
71
-279
-347
-20
-272
-639
-282
-177
-733
-664
-389
-1042
-1531
-1417
-1668
-2010
-1690
-1622
-2037
-1843
-1575
-1772
-1822
-1669
-1866
-2227
-1888
-1554
-1921
-1863
-1617
-1859
-1928
-1624
-1549
-1638
-1287
-1056
-1280
-1083
-701
-921
-950
-497
-571
-780
-436
-366
-657
-463
-134
-470
-518
7
-137
-401
-70
-67
-299
52
318
9
-58
298
163
5
473
569
230
394
605
305
171
359
243
-54
147
165
-169
65
201
-180
-253
52
45
-165
100
135
-409
-199
954
2086
3469
4796
4294
2809
2059
1336
614
563
413
27
-91
11
-125
-415
-113
-17
-411
-215
28
-266
-309
73
-14
-358
-109
-48
-307
-94
171
-90
-260
118
43
-246
-31
57
-153
-130
86
-106
-221
75
-220
-785
-671
-604
-816
-642
-359
-536
-669
-391
-497
-816
-586
-407
-737
-683
-416
-586
-601
-387
-532
-700
-352
-367
-753
-550
-352
-654
-658
-285
-412
-665
-358
-219
-626
-595
-228
-458
-591
-342
-422
-629
-304
-176
-596
-506
-227
-483
-680
-426
-471
-684
-331
-273
-667
-517
-210
-482
-592
-197
-322
-565
-289
-259
-542
-355
-140
-560
-605
-60
-191
-506
-121
-78
-425
-260
-20
-234
-250
-4
-134
-369
-164
-15
-283
-185
116
-25
-74
254
164
-201
19
276
175
345
549
288
226
544
376
16
245
259
-281
-118
286
-100
-302
88
-66
-458
22
116
-304
-18
21
-291
397
1908
3217
4283
4691
3830
2447
1494
1075
777
570
482
25
-229
183
218
-140
-72
157
-48
-119
242
163
-28
277
354
76
217
556
236
38
376
186
-160
-18
-112
-375
-57
175
-151
-190
130
8
-257
-53
66
-175
-44
214
-66
-213
163
258
-116
66
305
-83
40
291
-71
-31
260
127
39
333
398
-23
106
338
-61
-75
244
79
-133
82
217
-75
-224
37
-76
-186
306
266
-52
337
394
-125
160
639
299
213
583
445
134
441
634
297
434
764
443
312
749
622
342
678
684
340
504
796
493
405
802
640
354
596
613
342
508
779
505
387
729
570
279
570
632
270
377
708
416
247
700
650
392
720
745
391
511
779
656
654
1036
954
595
874
859
365
531
727
359
209
463
347
48
311
369
-4
262
530
179
251
546
92
109
1526
2886
4024
5118
4749
3197
2107
1597
1153
707
566
441
-1
25
182
-144
-106
247
32
-244
68
243
-128
-56
181
-148
-151
88
-11
-144
111
217
-173
-37
162
-165
-42
307
78
-147
213
313
-109
-18
324
56
-28
402
300
19
344
436
103
227
432
127
79
454
360
71
378
527
141
251
550
215
-33
312
236
-73
270
287
-137
10
267
-21
-127
184
106
-154
5
124
-103
-34
132
-59
-24
159
54
-147
29
188
-88
-26
294
24
-132
236
116
-172
84
93
-183
82
273
-105
-163
157
67
-237
-40
144
-242
-188
170
-127
-229
143
-42
-328
80
98
-289
-61
124
-152
-176
111
-21
-227
37
95
-168
-19
269
-2
-30
399
163
-236
48
261
60
83
410
256
-177
-19
-99
-575
-383
-277
-800
-745
-387
-700
-872
-528
-634
-902
-560
-499
-898
-837
-626
-748
-89
1536
2891
3789
3940
2801
1222
508
453
9
-441
-351
-557
-960
-720
-622
-1028
-920
-681
-954
-1005
-631
-682
-948
-674
-599
-909
-787
-478
-775
-911
-424
-538
-802
-524
-428
-706
-636
-318
-568
-649
-300
-361
-679
-535
-178
-471
-432
-62
-405
-419
-32
-229
-528
-149
13
-386
-281
39
-204
-279
67
-56
-279
-35
-21
-326
-255
-103
-323
-395
-128
-262
-437
-124
-89
-351
-279
-160
-418
-412
-56
-156
-415
-184
-36
-443
-387
5
-339
-379
30
-230
-399
-70
-124
-391
-160
26
-276
-303
55
-45
-365
-106
-35
-399
-267
-24
-257
-322
0
-210
-455
-38
-67
-367
-227
-76
-237
-332
-28
-87
-374
-131
-65
-358
-209
114
-176
-296
114
-30
-236
112
149
-111
-13
234
89
56
466
319
-39
232
304
-170
-189
69
-248
-342
58
-159
-468
-100
-61
-438
-207
36
-318
-427
-287
-78
705
2381
4073
4473
3853
2774
1311
495
749
468
-257
-148
-111
-597
-520
-206
-542
-657
-255
-441
-648
-263
-284
-532
-384
-312
-448
-364
-130
-284
-541
-261
-72
-519
-439
42
-266
-441
-56
-112
-380
-104
-32
-233
-53
118
-140
-287
128
129
-172
96
218
-144
-40
246
-48
-97
219
138
-57
157
300
-17
25
240
-82
-148
140
52
-266
-156
41
-265
-206
70
-156
-235
49
-44
-351
-80
5
-322
-128
82
-179
-189
125
7
-301
10
115
-277
-34
248
-159
-203
181
-60
-289
81
113
-234
-132
99
-179
-308
-61
-222
-360
1
44
-342
-276
37
-281
-427
-59
-338
-583
-114
-327
-980
-791
-573
-878
-843
-500
-652
-935
-743
-768
-1218
-1077
-781
-1607
-2109
-1487
-1422
-1730
-1566
-1611
-2019
-1986
-1748
-1974
-2063
-1864
-2082
-2311
-2028
-2027
-2340
-2031
-1784
-2114
-2118
-1914
-1772
-992
721
2387
3110
2847
1892
706
-89
-74
-228
-796
-817
-821
-1221
-1123
-845
-1204
-1385
-1135
-1245
-1457
-1253
-1138
-1398
-1296
-914
-1036
-1059
-641
-713
-894
-489
-457
-795
-579
-363
-565
-650
-295
-202
-426
-365
-573
-930
-714
-383
-574
-601
-169
-254
-587
-375
-263
-627
-602
-451
-860
-800
-375
-425
-542
-299
-232
-599
-413
-105
-480
-679
-433
-535
-760
-458
-282
-642
-584
-82
-297
-593
-278
-372
-653
-366
-293
-668
-533
-195
-451
-549
-213
-280
-490
-269
-148
-354
-322
-183
-343
-392
-183
-272
-475
-289
-174
-510
-481
-75
-169
-255
50
-105
-384
-32
80
-350
-126
331
-26
-98
226
97
30
342
400
59
141
479
254
140
481
337
141
607
672
211
382
761
555
632
1138
1037
858
1192
1145
744
934
1157
820
642
823
562
157
503
518
70
338
596
338
292
530
282
-118
544
1628
2564
4216
5348
4497
3312
2570
1580
1007
1055
804
265
327
494
37
-73
306
187
14
277
260
-17
158
305
14
79
377
203
-30
207
439
247
211
448
239
117
471
317
101
457
442
81
276
585
371
294
623
520
237
538
622
210
409
776
414
222
613
519
189
578
692
270
471
705
214
133
497
310
82
309
369
78
146
350
35
-53
346
184
-103
192
205
-103
105
341
-20
54
511
285
22
208
291
45
136
438
185
173
534
359
163
514
548
224
407
622
400
379
653
507
232
551
640
206
384
758
379
303
730
600
277
536
660
259
472
792
366
292
725
545
209
520
617
371
501
626
365
433
778
383
-37
294
387
62
299
587
256
235
413
194
43
211
240
-149
-206
-50
-359
-336
66
-135
-436
-146
-78
-437
-308
-109
-503
-213
1234
2554
3750
4690
4015
2475
1541
1029
495
282
202
-259
-528
-274
-267
-602
-471
-271
-594
-676
-258
-326
-656
-381
-248
-674
-453
-107
-468
-404
-152
-364
-407
-76
-39
-341
-76
238
-128
-109
227
-102
-207
322
337
-19
240
436
47
149
532
257
30
416
444
128
335
539
209
119
539
502
262
483
495
84
229
571
144
74
543
316
-57
267
399
-3
81
404
77
-60
399
257
-57
268
290
2
114
300
95
57
343
157
19
420
369
15
182
353
119
89
374
228
-37
274
319
-67
119
328
-59
-255
-54
-194
-397
-113
-231
-527
-249
-289
-595
-425
-174
-401
-606
-311
-325
-680
-513
-236
-472
-522
-212
-344
-565
-297
-190
-415
-256
49
-235
-388
-14
-126
-281
117
169
-92
17
85
-129
-98
106
-179
-526
-284
-277
-544
-346
-200
-545
-558
-164
-346
-678
-369
-315
-805
-356
875
1902
3416
4624
3733
2200
1462
746
266
291
58
-535
-622
-316
-612
-856
-508
-541
-823
-643
-430
-707
-773
-383
-519
-860
-508
-283
-629
-552
-308
-632
-620
-247
-434
-654
-358
-289
-597
-382
-113
-409
-387
-68
-246
-435
-120
-29
-357
-132
189
-322
-337
224
5
-268
48
76
-239
-5
249
-66
-123
152
-5
-257
64
107
-242
-132
10
-273
-249
58
-160
-373
-103
-6
-289
-202
-28
-277
-270
61
-131
-398
-23
-3
-316
-177
60
-71
-227
44
-26
-267
87
11
-371
37
193
-251
-166
182
-62
-349
30
72
-363
-148
163
-160
-203
129
-60
-341
-32
97
-304
-170
171
-147
-198
140
-88
-311
13
6
-290
-99
90
-97
-1
283
137
-47
229
287
6
263
524
157
244
614
275
25
309
150
-246
8
93
-265
-193
2
-270
-319
64
-33
-363
-103
92
-475
-561
339
1351
2742
4425
4707
3361
2199
1489
684
407
393
-119
-399
-96
-270
-714
-487
-512
-1188
-1532
-1603
-2052
-2614
-2760
-3114
-3712
-3723
-3668
-4104
-4206
-3848
-3973
-4201
-3828
-3630
-3842
-3599
-3306
-3561
-3489
-3056
-3065
-3197
-3103
-3070
-3259
-3090
-2775
-3086
-3099
-2695
-2890
-3026
-2575
-2598
-2908
-2536
-2289
-2587
-2534
-2181
-2228
-2340
-1949
-1912
-2260
-1982
-1816
-2111
-2004
-1765
-1992
-2135
-1877
-1899
-2144
-1894
-1641
-1893
-1822
-1502
-1602
-1656
-1303
-1219
-1445
-1203
-1000
-1257
-1214
-956
-1185
-1336
-998
-1022
-1363
-1176
-930
-1252
-1204
-893
-1086
-1255
-1041
-994
-1259
-1000
-744
-1122
-1126
-837
-1107
-1204
-769
-941
-1262
-857
-734
-1104
-1290
-1252
-1387
-1647
-1449
-1493
-1806
-1470
-1207
-1446
-1425
-1102
-1076
-1171
-960
-934
-1234
-1024
-698
-821
-669
-243
-283
-388
13
177
-52
142
382
97
136
537
386
219
616
695
449
703
927
648
676
919
666
894
2281
3707
4887
5772
5034
3367
2589
2316
1718
1381
1565
1311
837
1070
1176
775
964
1249
908
855
1181
1055
878
1086
1271
1017
942
1247
1126
1065
1317
1112
933
1270
1317
1016
1142
1433
1119
1011
1434
1335
982
1103
1149
785
735
844
548
414
708
574
238
495
680
346
321
664
485
276
641
650
317
483
627
278
271
650
413
235
605
464
120
443
542
115
132
428
255
-34
271
262
-71
117
177
-89
-24
347
256
44
466
520
187
513
705
364
395
714
502
354
757
758
377
575
804
437
522
879
599
454
752
685
476
678
881
534
495
914
668
458
782
739
417
709
967
614
662
942
691
486
797
854
638
919
1085
686
648
1013
846
695
1094
1103
829
1005
1160
849
782
973
740
543
780
770
377
518
792
445
470
762
386
341
795
495
76
790
1973
3121
4683
5462
4358
3155
2474
1581
1073
1081
923
362
360
660
317
155
471
383
51
224
400
131
228
551
302
123
457
423
86
356
531
223
288
504
315
161
462
416
128
460
511
203
342
589
376
225
576
505
172
471
628
293
387
638
375
214
465
323
175
536
573
237
281
507
306
179
491
412
91
379
501
98
170
491
158
-21
349
128
-205
250
380
48
118
253
180
47
188
255
21
238
432
100
211
529
264
185
564
479
154
390
537
346
426
620
383
227
642
557
82
402
652
231
329
622
246
138
596
502
148
385
512
103
211
676
312
74
498
437
146
427
567
173
244
653
349
170
625
499
195
587
711
372
557
955
671
435
694
552
298
472
511
156
120
336
51
-91
271
185
-101
194
169
-170
71
-55
-577
-88
1366
2876
4028
4391
3516
1975
955
651
255
-159
-220
-491
-795
-588
-542
-944
-857
-490
-765
-931
-638
-675
-818
-588
-560
-824
-671
-444
-724
-839
-454
-414
-600
-338
-256
-551
-383
-157
-406
-365
-89
-278
-463
-105
7
-325
-99
177
-202
-208
265
138
-210
119
228
-162
36
345
51
-46
327
239
-58
163
-41
-664
-422
-117
-505
-606
-210
-316
-729
-490
-345
-686
-594
-331
-654
-835
-445
-497
-825
-478
-325
-755
-613
-303
-704
-796
-290
-362
-706
-465
-300
-607
-544
-244
-506
-621
-188
-355
-737
-416
-260
-585
-537
-262
-493
-516
-238
-455
-659
-301
-212
-635
-509
-203
-516
-630
-230
-387
-723
-360
-253
-624
-415
-251
-587
-489
-189
-316
-551
-280
-120
-408
-269
8
-276
-419
-17
-42
-276
85
153
-239
-105
148
-234
-442
-108
-267
-633
-319
-211
-606
-566
-321
-603
-679
-316
-471
-639
-415
-514
-594
433
2097
3386
4211
4016
2660
1330
833
602
79
-190
-219
-546
-696
-386
-476
-778
-554
-500
-816
-640
-299
-605
-791
-423
-374
-614
-371
-292
-705
-516
-218
-447
-455
-143
-267
-543
-216
-153
-464
-223
23
-220
-289
-27
-163
-331
60
159
-150
-61
241
16
-171
194
211
-82
134
259
-46
126
391
42
-31
326
76
-204
147
165
-158
19
193
-223
-301
89
20
-214
-52
25
-242
-137
131
-154
-268
78
-5
-254
-34
125
-99
-6
228
-68
-174
150
136
-93
118
248
-169
-52
332
6
-60
299
109
-172
131
188
-102
64
144
-91
2
242
94
-197
81
256
-159
-74
252
-25
-142
235
148
-190
44
202
-104
-41
282
55
16
392
208
-29
267
412
146
296
598
392
345
552
353
-11
278
391
-84
71
313
-79
-144
166
-19
-232
90
105
-223
-67
167
-267
-167
1062
2124
3464
4961
4580
2948
2001
1457
775
514
483
49
-228
6
26
-354
-302
-11
-316
-407
-5
-200
-535
-179
-22
-405
-276
53
-380
-482
-23
-247
-457
-7
9
-466
-328
-182
-505
-323
55
-132
-374
-155
-66
-451
-449
-201
-496
-640
-306
-474
-882
-605
-443
-842
-721
-231
-526
-771
-428
-549
-844
-819
-905
-1139
-1108
-918
-1081
-1187
-886
-923
-1160
-1027
-1114
-1496
-1359
-1060
-1458
-1646
-1407
-1759
-2005
-1450
-1148
-1582
-1383
-904
-1129
-951
-466
-656
-937
-536
-362
-635
-424
-103
-327
-389
65
-27
-230
171
200
-126
-63
190
28
-24
349
232
-11
259
324
65
322
572
208
293
631
322
143
445
311
40
324
570
387
335
565
380
219
557
480
129
414
762
563
557
947
806
485
755
750
352
533
714
174
58
330
121
34
283
235
-93
93
425
136
-24
136
111
777
2400
3880
4603
4375
3389
2041
1185
1141
932
408
341
419
-30
-98
118
-224
-243
91
-116
-333
13
41
-281
-145
129
-59
-113
202
5
-224
121
148
-197
65
267
-96
-75
213
114
-39
182
280
25
120
367
89
40
472
327
121
438
456
141
259
527
267
213
581
405
99
471
568
98
195
582
269
37
349
142
-154
154
261
47
150
308
8
-27
286
101
-72
231
224
-127
131
404
22
6
319
81
-108
302
327
-41
140
409
145
-43
324
317
-5
326
358
-50
195
391
2
8
414
150
-58
364
302
-7
229
464
130
12
444
285
17
454
428
26
228
438
172
123
441
337
38
239
297
76
253
543
399
351
636
458
189
587
727
349
611
909
473
413
775
510
173
375
298
12
158
374
131
34
290
104
-45
284
204
-160
-46
133
482
1836
3652
4610
4452
3812
2710
1310
852
1040
448
9
231
-37
-339
-10
-22
-449
-220
1
-288
-206
-53
-259
-264
-32
-25
-303
-186
97
-233
-282
152
-89
-338
89
95
-276
-51
94
-208
-35
229
21
-84
204
190
-19
174
240
-8
119
415
191
2
300
385
-37
95
534
264
121
387
293
118
382
340
27
122
169
-25
-38
165
63
-130
72
107
-173
-2
206
-115
-96
192
-129
-225
210
138
-188
-88
183
-9
-191
67
-15
-190
102
67
-323
-101
246
-43
-236
91
27
-183
151
108
-284
-12
216
-158
-172
102
-48
-227
19
54
-328
-170
113
-236
-210
68
-248
-370
63
53
-334
-139
-8
-297
-191
63
-157
-283
66
115
-192
-117
100
-97
-30
282
130
55
350
317
-100
102
292
-240
-229
107
-263
-547
-210
-164
-463
-371
-205
-433
-484
-219
-280
-654
-421
505
1578
3152
4507
4125
2966
2164
1067
283
485
200
-493
-413
-328
-734
-741
-396
-590
-783
-445
-509
-844
-574
-311
-586
-690
-400
-515
-681
-421
-454
-655
-472
-277
-585
-558
-150
-425
-632
-249
-257
-571
-353
-134
-447
-396
-54
-275
-313
-16
-107
-331
-106
133
-259
-198
141
-221
-275
163
116
-210
-47
103
-189
-198
52
-182
-359
-49
-131
-486
-285
-25
-377
-400
-39
-279
-513
-132
-80
-421
-274
-149
-384
-303
17
-200
-469
-181
-159
-385
-129
2
-304
-242
73
-191
-376
30
8
-291
-101
90
-256
-296
46
-223
-381
-19
-62
-617
-728
-464
-773
-931
-557
-758
-986
-592
-619
-950
-775
-720
-1141
-1069
-714
-984
-1131
-822
-903
-1189
-906
-648
-913
-857
-543
-701
-868
-540
-523
-814
-564
-353
-612
-465
-117
-434
-692
-416
-536
-905
-697
-611
-924
-857
-644
-821
-965
-696
-655
-953
-766
-565
-1063
-1094
-193
726
2044
3773
4127
2914
1799
971
155
-36
-37
-508
-831
-649
-698
-960
-821
-667
-955
-984
-609
-776
-984
-659
-641
-931
-693
-471
-790
-772
-487
-611
-706
-472
-479
-736
-475
-367
-819
-616
-137
-347
-538
-193
-251
-534
-226
-86
-417
-310
65
-193
-365
-25
-48
-334
-94
158
-300
-235
215
-143
-319
43
-9
-413
-197
83
-452
-540
-104
-303
-580
-285
-281
-666
-407
-199
-584
-528
-276
-540
-644
-330
-374
-648
-412
-266
-553
-432
-183
-397
-505
-225
-243
-559
-308
-65
-509
-469
-27
-258
-475
-164
-163
-502
-288
-54
-408
-416
-40
-271
-515
-76
18
-410
-311
-78
-325
-285
20
-187
-410
-138
-114
-385
-240
-26
-288
-257
2
-237
-338
4
46
-144
1
-2
-220
-92
187
130
4
273
313
-105
28
185
-264
-206
63
-358
-592
-261
-414
-759
-551
-435
-780
-887
-678
-893
-1288
-1300
-1220
-817
597
2241
3173
3227
2233
670
-503
-759
-1178
-2246
-2613
-2783
-3419
-3492
-3331
-3713
-3975
-3659
-3784
-4294
-3847
-3584
-4010
-3783
-3433
-3676
-3814
-3535
-3569
-3728
-3374
-3148
-3442
-3309
-2839
-3102
-3242
-2709
-2628
-2829
-2551
-2358
-2638
-2529
-2308
-2817
-3077
-2693
-2757
-2945
-2516
-2404
-2863
-2958
-2743
-2898
-3065
-2751
-2601
-2858
-2625
-2300
-2540
-2384
-1978
-2194
-2308
-1952
-1904
-2051
-1779
-1602
-1897
-1790
-1363
-1482
-1586
-1201
-1210
-1604
-1362
-1016
-1417
-1381
-851
-1002
-1170
-770
-614
-829
-642
-495
-852
-813
-449
-629
-857
-544
-436
-594
-376
-303
-563
-497
-224
-416
-526
-133
-237
-563
-371
-280
-532
-345
35
-170
-264
134
201
71
493
620
333
590
902
645
628
1197
1185
863
1282
1490
1065
1268
1635
1385
1256
1679
1868
1567
1837
2130
1725
1713
1990
1720
1520
1749
1686
1282
1418
1604
1254
1409
1740
1471
1213
1519
1667
1386
1477
1530
1499
2572
4297
5481
6051
5614
4248
2979
2549
2481
1981
1570
1577
1349
1172
1425
1338
1099
1296
1402
1109
1174
1442
1135
1039
1407
1289
1012
1243
1437
1115
1120
1517
1322
1114
1393
1377
1075
1296
1437
1098
1230
1543
1357
1172
1449
1444
1101
1352
1504
1310
1417
1561
1445
1286
1522
1547
1203
1400
1615
1293
1278
1583
1394
1191
1520
1470
1053
1239
1434
1114
1040
1193
1091
977
1185
1187
877
1064
1183
864
949
1159
954
907
1187
1087
785
991
1162
799
861
1162
957
918
1170
1091
700
920
1221
835
878
1259
988
781
1244
1249
831
1105
1273
852
870
1222
1055
851
1104
1057
794
995
1039
714
851
1158
821
669
1081
918
657
970
1059
739
795
1105
799
601
950
915
754
1043
1133
862
906
1078
837
805
1272
1243
985
1262
1263
848
932
1119
796
564
750
779
490
563
733
450
513
797
499
386
696
444
64
684
1860
2926
4373
5452
4603
3247
2530
1542
1025
1158
834
301
263
541
334
4
244
300
-103
43
412
42
-21
396
201
8
243
224
-10
206
408
67
85
390
142
-15
338
271
-71
229
464
24
14
443
163
96
515
391
223
444
490
262
381
605
403
254
476
467
286
539
630
298
332
559
317
178
465
212
-102
322
478
85
137
375
129
21
214
200
18
174
257
-50
-8
270
72
-146
206
173
-109
170
103
-140
183
375
124
64
387
244
-126
185
292
-64
97
347
40
-90
237
149
-145
56
200
-57
-84
251
130
-146
148
63
-279
46
141
-221
-74
170
-168
-216
167
44
-282
-60
146
-221
-264
153
16
-134
307
245
-177
100
325
-31
159
533
278
196
468
315
-65
88
203
-166
-203
50
-243
-471
-159
-137
-345
-131
-60
-382
-261
0
-451
-602
485
1652
2857
4430
4584
3220
2107
1284
529
320
311
-83
-505
-304
-260
-632
-504
-266
-568
-644
-225
-321
-646
-370
-230
-545
-485
-219
-406
-556
-254
-216
-576
-403
-168
-461
-383
-141
-313
-369
-98
-110
-386
-100
123
-276
-186
150
-173
-218
224
19
-239
181
208
-191
-11
245
-48
-104
202
106
-94
164
233
-93
-28
126
-154
-251
88
-41
-374
-125
-86
-353
-208
3
-218
-322
-88
-133
-437
-241
-24
-402
-322
80
-204
-357
40
-38
-312
-84
-30
-357
-234
141
-109
-254
107
-32
-303
-50
40
-246
-210
25
-218
-389
-9
14
-321
-92
41
-299
-247
-21
-210
-336
-41
-35
-336
-108
45
-324
-263
56
-256
-415
-34
-136
-451
-347
-260
-503
-474
-281
-485
-482
-327
-421
-560
-271
15
-368
-277
50
-357
-499
-198
-452
-883
-703
-631
-989
-905
-635
-906
-1043
-646
-773
-1194
-691
-456
-1137
-1116
-258
582
1901
3727
4146
2893
1893
972
-42
11
84
-614
-945
-695
-754
-1074
-879
-730
-1048
-975
-749
-992
-1016
-634
-679
-1067
-792
-490
-928
-848
-470
-812
-896
-483
-526
-828
-670
-532
-770
-593
-320
-619
-713
-383
-415
-616
-327
-232
-611
-437
-173
-482
-520
-276
-513
-784
-536
-426
-794
-787
-443
-725
-931
-579
-808
-1294
-1156
-1195
-1625
-1648
-1480
-1788
-2006
-1669
-1723
-2124
-1941
-1752
-1997
-1966
-1953
-2263
-2256
-2005
-2227
-2532
-2189
-2022
-2299
-2105
-1795
-1927
-1920
-1537
-1483
-1677
-1377
-1181
-1436
-1292
-911
-1129
-1303
-913
-828
-1048
-762
-615
-1023
-878
-455
-724
-880
-460
-473
-766
-437
-254
-625
-576
-235
-338
-452
-148
-168
-410
-102
40
-290
-193
91
-169
-237
208
142
-131
244
368
-72
50
495
262
50
507
476
17
199
291
-125
-110
41
-458
-703
-381
-549
-892
-686
-665
-1147
-1296
-1209
-1568
-1870
-1747
-1824
-1349
463
2100
2633
2295
1181
-314
-1182
-1064
-1443
-2307
-2371
-2364
-2812
-2923
-2806
-3089
-3280
-3017
-3065
-3274
-2975
-2926
-3260
-3032
-2689
-2895
-2923
-2609
-2689
-2868
-2571
-2321
-2531
-2529
-2177
-2246
-2301
-1929
-1994
-2217
-1812
-1651
-1980
-1852
-1518
-1723
-1813
-1330
-1365
-1695
-1358
-1135
-1467
-1415
-1047
-1223
-1367
-949
-1014
-1346
-908
-737
-1100
-1057
-824
-1064
-1198
-838
-989
-1348
-1020
-736
-1097
-1129
-780
-1088
-1220
-735
-913
-1224
-835
-661
-947
-874
-572
-751
-829
-511
-650
-919
-550
-320
-687
-629
-295
-589
-675
-276
-405
-704
-396
-303
-955
-1354
-1428
-1880
-2030
-1628
-1615
-1790
-1417
-1216
-1464
-1235
-942
-1163
-1299
-1174
-1341
-1700
-1543
-1268
-1460
-1427
-1053
-1212
-1212
-780
-947
-1019
-457
-395
-746
-515
-407
-813
-800
-463
-628
-942
-709
-624
-953
-840
-533
-755
-854
-429
-518
-821
-499
-257
-558
-462
-26
-234
-428
-16
-74
-557
23
1055
1980
3596
4905
4272
2883
2195
1313
678
854
571
2
82
228
-42
-201
74
138
-147
23
202
-128
-43
247
-19
-176
118
133
-167
-5
246
-41
50
522
331
227
667
619
317
637
889
596
660
976
775
687
1050
960
702
979
1099
824
911
1172
972
854
1118
1036
798
1051
1086
744
866
1075
823
759
917
639
282
483
695
414
398
719
574
358
629
545
233
577
750
407
428
579
321
190
523
503
149
376
549
143
114
209
-380
-762
-615
-917
-1306
-906
-717
-1068
-884
-480
-677
-811
-493
-468
-667
-370
-150
-562
-579
-249
-506
-631
-186
-233
-565
-270
-150
-519
-310
99
-134
-269
80
30
-256
-38
144
-85
-134
131
-74
-310
11
10
-214
110
375
154
255
475
178
46
372
352
-25
40
131
-210
-159
93
-213
-403
-42
-118
-509
-187
-37
-592
-541
344
1232
2576
4403
4622
3310
2569
1738
690
636
774
231
-147
96
-82
-414
-91
-20
-453
-471
-371
-709
-776
-417
-577
-980
-668
-427
-825
-747
-416
-778
-883
-411
-379
-410
44
247
37
298
680
401
176
465
405
-16
152
202
-243
-185
32
-275
-450
-181
-272
-595
-356
-89
-363
-313
19
-240
-350
-4
-157
-436
-140
-31
-398
-363
-112
-367
-480
-179
-203
-522
-321
-131
-459
-440
-216
-377
-505
-117
-70
-413
-132
-3
-441
-226
217
-39
-138
197
125
-82
355
618
313
501
893
716
665
1041
1049
915
1268
1355
1069
1304
1637
1509
1495
1778
1749
1547
1796
1980
1757
1828
2115
1882
1774
2218
2118
1841
2218
2325
1981
2006
2282
2187
2055
2282
2310
2181
2339
2515
2319
2321
2610
2381
2264
2632
2584
2474
2784
2724
2305
2352
2594
2265
2046
2297
2098
1821
2146
2204
1791
1926
2265
1961
1757
2141
1934
1408
2124
3342
4287
5763
6831
6020
4643
3805
2948
2374
2432
2237
1589
1456
1720
1512
1355
1637
1478
1187
1448
1558
1199
1205
1589
1423
1221
1533
1502
1215
1341
1411
1191
1325
1543
1297
1164
1448
1389
1080
1354
1577
1230
1203
1526
1209
880
979
550
-92
-246
-515
-1135
-1174
-906
-1134
-1297
-1038
-1051
-1255
-965
-1087
-1912
-2113
-1930
-2243
-2373
-2085
-2197
-2552
-2462
-2286
-2514
-2454
-2143
-2365
-2563
-2286
-2237
-2379
-2057
-1901
-2278
-2216
-1922
-2160
-2172
-1771
-1810
-1844
-1343
-1096
-1332
-1214
-844
-1061
-1112
-681
-776
-979
-793
-804
-1078
-1047
-866
-1070
-1173
-814
-896
-1236
-876
-632
-991
-985
-635
-818
-1013
-634
-641
-926
-613
-420
-696
-576
-254
-402
-463
-169
-232
-499
-223
10
-305
-208
112
-116
-193
100
-122
-358
62
181
-122
-28
226
-97
-303
-38
-215
-547
-390
-306
-647
-679
-384
-668
-904
-524
-616
-948
-688
-515
-1016
-1451
-1333
-880
318
2202
3416
3069
2125
1064
-164
-485
-372
-1048
-1530
-1288
-1402
-1779
-1619
-1446
-1749
-1751
-1434
-1598
-1729
-1349
-1335
-1614
-1392
-1120
-1356
-1358
-983
-1165
-1383
-981
-962
-1318
-1021
-777
-1182
-1093
-700
-922
-996
-603
-598
-855
-631
-398
-710
-718
-323
-492
-637
-239
-307
-657
-373
-193
-477
-474
-123
-219
-485
-122
-86
-439
-294
-252
-560
-462
-202
-469
-670
-371
-336
-646
-433
-146
-407
-359
-146
-428
-542
-222
-319
-628
-360
-177
-473
-424
-51
-185
-402
-68
-107
-524
-232
76
-291
-376
15
-121
-310
60
54
-210
28
181
-116
-40
342
100
-221
68
57
-310
-115
109
-238
-154
235
-39
-162
258
203
-106
127
253
-60
-7
376
182
-13
488
482
81
461
754
419
446
762
585
487
811
674
281
498
639
200
187
511
223
62
467
364
79
388
480
141
215
273
161
1065
2754
4193
4962
4658
3494
2209
1516
1443
925
366
481
332
-100
97
335
-5
25
363
160
-266
-272
-370
-704
-510
-393
-767
-626
-213
-350
-445
-160
-215
-557
-175
105
-364
-253
36
-185
-288
-71
-125
-382
-118
-7
-352
-284
41
-136
-271
115
97
-249
-6
165
-190
-69
332
100
-67
356
362
157
429
451
156
294
549
374
341
678
692
421
636
893
585
657
1060
868
673
924
918
774
994
1071
865
949
1135
912
815
1166
1247
876
976
1268
899
874
1258
933
766
1201
1150
832
1079
1185
805
875
1106
898
798
1077
1043
716
864
1065
731
724
1094
832
600
983
950
491
687
1047
702
607
960
786
610
853
835
575
660
771
415
381
635
248
-170
-30
-149
-608
-418
-131
-562
-664
-311
-561
-768
-349
-433
-809
-489
-319
-654
-536
-312
-702
-674
487
1735
2791
4179
4351
2825
1820
1321
530
266
341
-94
-535
-326
-212
-564
-584
-292
-420
-496
-169
-251
-502
-218
-47
-434
-290
216
-132
-291
206
191
-119
151
369
40
210
591
353
138
470
501
29
63
85
-369
-290
25
-376
-601
-285
-472
-854
-658
-469
-756
-750
-521
-815
-874
-435
-382
-729
-636
-339
-632
-651
-335
-637
-768
-508
-624
-767
-563
-522
-852
-805
-505
-699
-827
-495
-501
-879
-601
-293
-646
-499
-28
-223
-428
35
268
35
361
690
360
583
1126
930
858
1253
1275
1072
1323
1519
1286
1414
1772
1610
1443
1768
1783
1444
1731
1959
1551
1705
2135
1800
1649
2129
2036
1670
1955
2072
1692
1797
2109
1878
1757
2092
2046
1809
2099
2224
1999
2057
2221
2047
2022
2424
2451
2169
2374
2450
2089
2112
2275
2047
1784
1937
1942
1621
1742
1923
1507
1448
1910
1798
1517
1811
1878
1255
1439
2436
3143
4525
6328
6342
5067
4294
3243
2237
2383
2271
1428
1218
1578
1344
1021
1400
1418
1069
1216
1303
1064
1051
1260
1178
1008
1214
1198
855
1078
1298
932
1027
1377
1019
813
1223
1158
849
1192
1291
865
941
1313
1083
880
1254
1222
892
1081
1298
1021
1055
1371
1150
959
1272
1200
867
1198
1386
1012
1021
1223
991
785
1073
1096
656
775
894
514
538
775
454
-28
-6
-113
-456
-254
-52
-300
-334
-109
-314
-546
-181
-2
-218
-56
-1
-365
-205
151
-82
-197
141
171
-176
-17
291
-13
49
317
65
40
223
74
-172
73
396
136
178
493
255
156
406
365
114
289
514
179
75
475
369
151
542
462
108
435
571
201
295
648
419
255
628
603
408
672
766
465
490
837
713
565
923
865
375
537
746
351
287
555
274
17
292
223
-103
-176
-284
-698
-736
-345
-604
-884
-708
-525
85
1519
3203
3953
3506
2600
1325
266
290
202
-466
-528
-454
-925
-925
-637
-864
-993
-702
-700
-1146
-1047
-790
-1182
-1145
-728
-919
-1145
-959
-976
-1243
-1094
-890
-1078
-1060
-781
-907
-1122
-798
-759
-1132
-1043
-1063
-1604
-1757
-1616
-2209
-3300
-4027
-4639
-5328
-5343
-5066
-5415
-5374
-4808
-4933
-4984
-4540
-4498
-4635
-4292
-4071
-4288
-4142
-3901
-3998
-3991
-3731
-3715
-3977
-3784
-3478
-3685
-3618
-3132
-3198
-3259
-2802
-2768
-3002
-2707
-2458
-2751
-2729
-2338
-2513
-2616
-2172
-2257
-2669
-2481
-2314
-2632
-2571
-2267
-2425
-2561
-2195
-2076
-2405
-2165
-1939
-2331
-2277
-1951
-2122
-2196
-1832
-1790
-2084
-1875
-1620
-1898
-1880
-1511
-1644
-1820
-1509
-1507
-1766
-1487
-1247
-1538
-1492
-1132
-1289
-1394
-989
-946
-1190
-924
-642
-844
-771
-413
-567
-755
-416
-345
-550
-145
45
-294
-260
-153
-432
-564
-230
-289
-672
-511
-479
-801
-676
-498
-729
-776
-412
-388
-731
-532
-236
-686
-683
371
1274
2541
4333
4538
2996
1909
1366
555
366
413
-176
-443
-123
-243
-537
-334
-237
-481
-410
-197
-321
-388
-108
-152
-440
-169
-28
-378
-307
27
-116
-275
0
-12
-264
-103
62
-46
65
311
132
54
373
401
163
366
504
87
183
568
290
56
419
493
223
423
626
250
317
758
543
356
554
511
226
338
488
143
94
383
206
15
343
341
-69
154
390
26
97
430
142
-141
230
242
-126
147
350
14
-25
306
195
-92
240
299
-113
70
305
77
214
473
137
-49
256
243
-143
-33
224
-109
-151
201
17
-209
129
35
-436
-333
-143
-334
-238
164
-104
-341
110
156
-195
5
200
-166
-79
270
-106
-515
-449
-701
-1142
-899
-693
-956
-826
-519
-649
-804
-553
-566
-878
-614
-495
-1019
-971
-596
-862
-1045
-731
-725
-967
-736
-497
-759
-685
-380
-880
-1034
110
1401
2613
3937
3920
2447
1290
664
-2
-310
-201
-507
-968
-773
-618
-933
-879
-516
-662
-787
-376
-317
-534
-279
-61
-374
-396
134
71
-207
180
193
-347
-311
-137
-431
-420
-208
-402
-502
-68
57
-407
-278
-15
-384
-356
83
-72
-337
25
16
-292
165
458
51
72
493
396
206
526
606
356
628
844
467
445
707
354
222
728
616
283
673
812
393
402
715
533
144
231
192
-78
192
378
103
215
554
425
294
594
646
367
545
805
577
554
788
620
505
697
546
140
339
588
107
33
481
218
-29
404
450
149
489
886
700
841
1271
1167
1026
1418
1535
1163
1420
1811
1556
1522
1686
1511
1452
1865
1932
1618
1742
1895
1624
1739
2186
1965
1848
2155
1928
1626
1910
2072
1814
1930
2190
1818
1646
2052
1864
1387
1608
1739
1368
1418
1696
1420
1292
1622
1606
1388
1575
1736
1256
969
1722
2715
3767
5554
6370
5300
4429
3594
2232
2019
2265
1625
1187
1263
1236
1053
1111
1299
932
916
1324
1057
819
1094
1138
888
1046
1205
853
829
1184
1111
899
1197
1306
1019
1254
1375
1015
1004
1246
1039
961
1461
1446
1096
1346
1564
1260
1264
1625
1433
1181
1621
1657
1236
1468
1748
1385
1313
1674
1546
1361
1631
1624
1246
1330
1467
1194
1222
1510
1258
1008
1308
1259
902
1138
1343
873
906
1316
925
694
1162
1143
734
942
1200
798
778
1130
777
361
711
785
430
712
936
591
466
768
682
373
814
906
383
640
820
372
419
847
680
419
815
782
188
246
450
73
-37
330
277
58
261
221
-60
258
454
8
122
525
240
-75
156
218
-50
187
482
205
222
595
448
320
613
589
349
574
762
518
582
839
751
724
883
713
487
595
635
295
230
546
358
129
393
355
25
238
396
-16
101
459
52
-198
680
1898
3064
4677
5176
3790
2650
1981
1066
763
808
361
-62
41
79
-225
-245
46
-173
-406
77
118
-360
-168
78
-343
-292
162
-60
-271
59
49
-279
-82
41
-286
-230
93
-125
-256
143
51
-256
27
166
-154
-36
333
98
-282
-95
-149
-695
-475
-182
-658
-699
-348
-588
-781
-428
-421
-754
-573
-345
-765
-761
-407
-851
-1114
-754
-953
-1480
-1240
-1166
-1752
-1784
-1610
-1946
-2099
-1806
-1935
-2299
-2147
-1975
-2242
-2342
-2002
-2072
-2280
-1759
-1431
-1575
-1304
-911
-1110
-1090
-531
-616
-809
-372
-354
-687
-312
-107
-707
-863
-533
-671
-937
-715
-657
-871
-724
-594
-754
-652
-388
-623
-772
-386
-396
-733
-451
-228
-587
-546
-230
-458
-613
-245
-282
-612
-376
-210
-605
-639
-150
-300
-616
-274
-406
-973
-939
-846
-1224
-1175
-865
-1325
-1751
-1575
-1809
-2291
-2257
-2433
-3012
-3155
-3061
-3407
-3736
-3564
-3646
-4017
-3755
-3465
-3793
-4002
-3718
-3163
-2169
-422
1116
1190
410
-485
-1719
-2325
-2159
-2637
-3200
-3017
-2898
-3077
-2927
-2734
-3065
-3141
-2786
-2952
-3203
-2934
-2897
-3185
-2925
-2636
-2965
-2883
-2500
-2758
-2852
-2391
-2398
-2631
-2381
-2253
-2451
-2336
-2023
-2203
-2349
-1926
-1910
-2203
-1971
-1769
-1918
-1895
-1691
-1731
-1776
-1473
-1454
-1772
-1619
-1352
-1589
-1591
-1221
-1343
-1421
-1113
-1110
-1273
-990
-774
-1075
-996
-645
-925
-1066
-606
-664
-1026
-694
-448
-972
-1186
-889
-1122
-1384
-1095
-1174
-1419
-1161
-1042
-1243
-1057
-739
-944
-926
-454
-479
-762
-497
-271
-558
-465
-157
-363
-436
-125
-136
-416
-184
83
-229
-218
-92
-558
-761
-457
-516
-643
-346
-244
-567
-690
-359
-506
-880
-450
-255
-529
-274
-100
-394
-455
-332
-521
-731
-591
-578
-799
-474
-109
-403
-440
-225
-370
-449
-113
-44
-277
-11
192
-141
-96
231
-28
-204
91
19
-265
-45
135
-153
-153
147
-19
-206
147
181
-254
-193
388
1112
2578
4428
4778
3720
2821
1892
843
834
1058
492
279
495
268
148
497
322
62
491
675
338
295
630
522
306
662
647
108
262
560
229
327
730
463
424
957
1032
955
1224
1449
1258
1279
1805
1691
1493
1860
1773
1570
1910
2043
1726
1737
2078
1847
1627
2074
1963
1547
1935
2058
1671
1858
2172
1927
1759
2114
2120
1718
1911
2117
1755
1807
2192
1867
1567
1988
2051
1732
1961
2129
1756
1812
2164
1961
1750
2032
2078
1755
1904
2134
1838
1833
2162
1879
1660
2059
1958
1689
1971
2083
1784
1735
2013
1842
1607
1878
1857
1563
1728
1910
1537
1461
1883
1671
1396
1732
1713
1354
1561
1800
1351
1271
1678
1499
1292
1585
1548
1192
1395
1616
1271
1236
1579
1405
1148
1423
1474
1256
1401
1522
1312
1349
1616
1346
1019
1424
1316
883
1347
1451
891
765
985
867
686
911
897
547
551
676
430
512
863
600
383
820
957
412
465
1376
2177
3536
5390
5464
4236
3498
2422
1329
1376
1366
681
517
716
368
195
527
441
88
300
450
155
187
429
325
180
392
428
149
263
445
166
195
478
226
83
503
484
119
347
539
159
228
611
337
288
643
524
210
433
690
408
417
705
497
355
593
581
339
486
650
363
404
658
496
271
460
451
116
311
472
129
124
386
130
-46
264
244
-71
108
295
-12
-40
203
124
-33
220
238
-93
64
243
-61
-90
266
92
-138
230
213
-220
-16
318
48
-3
326
65
-335
-134
-236
-511
-303
-223
-530
-578
-239
-426
-665
-276
-324
-643
-369
-422
-770
-453
-79
-279
-414
-85
-122
-455
-129
76
-456
-420
110
-143
-423
-44
-81
-410
-224
-76
-228
-26
262
-14
-214
78
127
-82
191
391
105
184
363
149
84
347
219
-206
-72
55
-285
-301
-63
-179
-291
-175
-322
-676
-649
-580
-921
-1022
-452
427
1735
3550
4285
3155
2079
1346
144
-133
90
-642
-1059
-656
-738
-1080
-931
-833
-1098
-1050
-797
-986
-1068
-727
-768
-1099
-837
-630
-1019
-937
-544
-758
-1014
-697
-587
-937
-804
-537
-776
-724
-381
-632
-807
-401
-432
-736
-464
-313
-604
-548
-224
-400
-549
-213
-298
-566
-276
-76
-371
-314
-13
-223
-359
-87
-94
-381
-215
-22
-428
-489
-172
-366
-507
-211
-283
-649
-417
-129
-441
-429
-123
-369
-558
-243
-260
-609
-422
-202
-582
-576
-169
-385
-583
-279
-291
-483
-255
-168
-452
-381
-133
-307
-462
-232
-254
-515
-238
-70
-438
-379
-44
-367
-557
-108
-153
-528
-397
-168
-394
-376
-124
-374
-476
-154
-208
-479
-291
-181
-440
-326
-52
-368
-528
-64
-101
-459
-111
125
-272
-251
110
-86
-172
205
146
-119
-11
-69
-403
-460
-423
-889
-1335
-1206
-1579
-2338
-2376
-2560
-3284
-3389
-3085
-3372
-3631
-3288
-3480
-3921
-2970
-1533
-346
1160
1549
171
-1126
-1621
-2169
-2767
-2761
-2852
-3275
-3092
-2874
-3223
-3443
-3115
-3005
-3320
-3170
-2925
-3148
-3087
-2825
-3022
-3025
-2605
-2617
-2885
-2598
-2370
-2726
-2598
-2154
-2410
-2553
-2198
-2291
-2632
-2381
-2206
-2624
-2512
-2172
-2522
-2615
-2298
-2371
-2599
-2364
-2136
-2443
-2379
-1928
-2123
-2265
-1928
-2040
-2404
-2203
-1948
-2230
-2149
-1707
-1880
-2107
-1768
-1726
-1972
-1677
-1452
-1757
-1687
-1367
-1543
-1667
-1287
-1205
-1512
-1298
-1083
-1490
-1428
-895
-1067
-1225
-802
-895
-1228
-929
-709
-973
-944
-614
-856
-974
-563
-759
-1008
-568
-552
-965
-741
-427
-770
-958
-696
-838
-1030
-776
-955
-1560
-1501
-1080
-1231
-1180
-579
-384
-481
-134
340
168
308
841
699
612
1020
1052
770
1072
1381
1027
891
1229
1252
1203
1390
1254
1065
1342
1601
1463
1663
1950
1577
1535
1926
1784
1403
1610
1740
1262
1237
1418
1124
1071
1394
1311
1007
1243
1459
996
920
1708
2537
3796
5615
6062
4863
4041
3218
2126
2029
2084
1565
1279
1548
1469
1103
1441
1582
1132
1276
1598
1275
1157
1567
1521
1171
1431
1647
1166
1241
1676
1358
1147
1486
1539
1307
1474
1588
1259
1318
1613
1382
1294
1642
1583
1303
1540
1662
1283
1363
1747
1506
1304
1680
1528
1177
1613
1713
1381
1550
1682
1421
1314
1588
1579
1210
1403
1574
1158
1204
1472
1063
956
1296
1083
880
1127
1205
1005
1011
1149
998
878
1127
1061
709
922
1145
804
814
1151
802
607
1103
894
589
1003
1075
622
694
1134
778
544
901
883
565
731
923
503
594
933
608
458
803
733
367
593
794
515
509
637
537
521
665
555
353
628
691
315
364
637
441
317
660
551
191
538
694
284
440
823
577
404
817
811
473
817
959
535
527
747
530
362
525
316
109
350
332
-6
86
306
26
35
302
160
87
87
50
607
1867
3443
4577
4587
3867
2692
1415
971
979
400
47
208
-132
-352
10
-53
-339
-150
-63
-355
-268
-14
-250
-322
-34
-68
-318
-131
-6
-355
-296
110
-124
-360
-1
-41
-370
-103
122
-236
-190
175
-66
-217
123
72
-235
35
242
-137
-39
368
45
-125
288
137
-172
103
325
59
-61
277
160
-89
202
149
-189
12
77
-231
-143
65
-154
-320
-27
-87
-347
-73
-77
-336
-193
29
-180
-328
47
4
-361
-116
84
-262
-215
96
-155
-324
8
-9
-302
-32
167
-245
-194
166
-132
-302
85
-8
-320
-5
114
-259
-175
96
-291
-409
73
-39
-346
-154
-53
-335
-344
16
-199
-376
10
-87
-394
-191
-27
-214
-179
36
-180
-286
107
140
-164
15
204
-119
44
455
105
101
551
244
-85
214
202
-290
-219
85
-258
-414
-80
-174
-459
-221
-30
-426
-476
-19
-357
-778
-59
904
1948
3680
4711
3836
2732
2017
846
423
650
135
-418
-239
-143
-562
-560
-271
-524
-609
-270
-289
-536
-346
-268
-554
-379
-130
-428
-529
-154
-255
-594
-268
-100
-548
-446
-60
-313
-454
-122
-112
-295
-56
28
-274
-106
86
-205
-196
105
67
-162
73
200
-175
-210
-19
-2
97
293
169
-92
126
291
-118
-143
237
10
-178
147
53
-360
-89
95
-355
-208
17
-256
-194
51
-15
-266
-107
93
-220
-215
83
-131
-243
83
-22
-268
-1
57
-242
-137
177
-32
-226
149
112
-317
-64
173
-236
-121
218
-136
-256
122
53
-209
14
100
-235
-103
183
-145
-243
61
15
-293
-198
74
-200
-213
103
-169
-270
126
21
-380
-13
330
-84
-29
283
-2
-63
316
261
-8
182
266
-151
-193
109
-261
-658
-567
-792
-1153
-1045
-901
-1076
-1057
-805
-1065
-1359
-1011
-1068
-1553
-1130
-97
924
2486
3752
3158
1730
932
171
-490
-457
-696
-1383
-1300
-1046
-1411
-1473
-1184
-1253
-1498
-1345
-1173
-1453
-1395
-1057
-1284
-1353
-910
-1085
-1493
-1125
-949
-1264
-1182
-878
-1171
-1314
-767
-923
-1236
-875
-781
-1070
-1052
-766
-812
-904
-595
-624
-939
-653
-451
-877
-912
-401
-551
-852
-456
-446
-784
-494
-280
-618
-390
28
-290
-352
77
-8
-364
-130
-20
-372
-314
85
-32
-249
128
107
-265
-10
152
-221
-91
269
39
-96
190
130
-151
62
285
4
67
397
38
-89
385
259
-71
221
278
-28
127
370
128
-38
221
194
-86
220
361
-118
84
367
-110
-141
334
172
-180
150
216
-133
34
247
-13
-87
290
169
-213
165
389
100
202
292
40
102
486
449
155
482
589
64
158
538
171
-77
260
51
-316
-25
46
-318
-174
-28
-310
-289
-1
-29
-400
-370
-72
292
1609
3350
4243
4142
3372
2200
1013
664
650
44
-211
-26
-341
-527
-196
-330
-655
-310
-218
-540
-417
-172
-308
-462
-213
-324
-583
-234
-141
-479
-415
-200
-425
-451
-56
-174
-488
-141
-23
-431
-289
79
-156
-367
0
33
-293
-75
79
-151
-2
175
-62
-114
206
138
-156
93
221
-37
47
263
39
-187
121
177
-229
-57
137
-312
-234
143
-264
-387
35
-107
-396
-125
-7
-377
-305
21
-246
-392
47
-55
-499
-187
53
-352
-253
111
-244
-328
95
-124
-433
-70
101
-304
-247
130
-162
-355
4
8
-315
-90
71
-360
-269
78
-222
-335
-21
-72
-264
-118
24
-293
-297
70
-169
-379
-70
-130
-459
-163
-3
-406
-281
53
-224
-314
83
31
-282
5
293
-35
36
435
129
14
378
168
-162
70
152
-307
-297
-48
-387
-487
-124
-147
-444
-231
-94
-455
-306
-177
-595
30
1678
3001
4006
4422
3581
2149
1146
792
408
-43
-35
-211
-634
-507
-324
-673
-676
-360
-609
-741
-386
-454
-691
-443
-289
-677
-632
-239
-521
-679
-283
-298
-581
-391
-222
-496
-522
-208
-440
-553
-93
-192
-450
-193
-82
-314
-276
-8
-201
-295
31
18
-269
-59
208
-177
-99
234
-189
-195
308
126
-220
54
143
-240
-196
115
-173
-408
-6
-139
-457
-171
0
-307
-359
-38
-266
-439
-95
-195
-488
-260
-61
-347
-356
-65
-268
-423
-139
-143
-358
-121
45
-291
-261
65
-177
-328
15
-55
-338
-107
56
-324
-284
52
-251
-363
20
-54
-411
-206
43
-371
-351
119
-214
-376
68
-63
-387
-127
57
-270
-264
-65
-480
-637
-225
-290
-449
-134
-113
-427
-336
-70
-284
-439
-44
67
-116
232
255
-263
-88
217
-176
-360
-38
-199
-547
-246
-88
-643
-747
-475
-927
-1127
-726
-841
-1336
-1188
-493
321
1890
3601
3729
2646
1772
749
-204
-142
-213
-956
-1184
-851
-1048
-1322
-941
-1047
-1479
-1108
-885
-1328
-1281
-799
-1026
-1296
-885
-892
-1244
-1003
-881
-1145
-946
-658
-954
-1105
-816
-825
-1105
-908
-539
-924
-961
-450
-661
-803
-482
-507
-737
-566
-321
-555
-548
-251
-510
-665
-357
-420
-714
-331
-71
-469
-356
-92
-421
-542
-237
-337
-622
-429
-281
-584
-562
-279
-516
-712
-412
-504
-837
-428
-190
-635
-542
-211
-467
-636
-334
-318
-732
-465
-88
-503
-503
-160
-427
-545
-253
-328
-554
-331
-125
-430
-368
-44
-394
-551
-136
-248
-520
-222
-145
-454
-411
-156
-373
-499
-145
-250
-592
-251
-45
-481
-378
-106
-378
-401
-44
-155
-508
-216
-46
-269
-147
75
-125
-313
52
54
-258
197
403
-22
57
221
-78
-247
-2
-109
-457
-223
-135
-475
-340
-95
-501
-636
-184
-310
-596
-339
-412
-610
252
1802
3021
4091
4292
2986
1524
850
713
247
-204
-126
-463
-712
-246
-512
-989
-474
-300
-660
-598
-348
-490
-704
-453
-391
-621
-405
-229
-596
-628
-205
-397
-617
-295
-353
-567
-303
-130
-432
-403
-49
-232
-409
-118
-112
-399
-124
144
-178
-179
139
-82
-309
110
298
25
94
178
-101
9
289
-2
-156
45
-52
-118
216
232
-121
-28
116
-279
-502
-139
-119
-448
-318
-97
-313
-317
-48
-323
-481
-137
-137
-379
-179
-46
-413
-350
50
-140
-164
252
86
-184
153
305
-27
105
451
199
72
338
273
55
281
409
143
250
454
221
106
361
379
40
231
449
105
145
425
227
86
434
320
-22
330
518
149
213
645
471
253
551
454
175
631
751
268
547
995
573
311
701
571
134
296
368
0
69
385
92
-316
-273
-451
-712
-383
-275
-589
-721
-536
-23
1081
2869
4023
3779
2988
2030
808
405
618
64
-356
-108
-276
-591
-260
-139
-555
-501
-120
-269
-498
-170
-179
-552
-221
24
-358
-267
69
-202
-427
-28
68
-292
-75
150
-256
-226
168
-131
-216
298
138
-216
164
253
-131
124
467
152
35
392
282
-32
208
343
134
232
496
284
106
407
260
-98
252
306
-95
17
240
20
-210
104
150
-239
-23
245
-118
-178
134
-32
-188
88
37
-221
45
177
-255
-172
201
-54
-161
209
120
-269
0
221
-99
-33
219
-8
-157
85
19
-210
65
143
-211
-106
165
-107
-183
209
-18
-383
-27
139
-168
-190
32
-60
-233
55
13
-436
-90
192
-240
-190
154
-118
-235
236
175
-139
117
202
-10
98
389
223
121
522
279
-95
296
381
-177
-168
182
-187
-357
-4
-144
-398
-121
-5
-323
-315
-2
-155
-457
-300
3
826
2599
4236
4455
3692
2843
1507
604
776
419
-261
-199
-105
-529
-557
-196
-483
-698
-330
-361
-691
-373
-245
-633
-426
-148
-424
-597
-243
-252
-606
-331
-131
-471
-407
-146
-406
-460
-193
-286
-497
-287
-68
-337
-294
49
-150
-253
0
-71
-206
-4
73
-177
-142
173
-49
-221
148
102
-126
111
278
-53
-80
194
-145
-351
60
-20
-442
-203
-11
-400
-320
55
-319
-511
-38
-46
-354
-169
-79
-382
-275
51
-260
-495
-96
-84
-404
-241
-39
-295
-280
25
-237
-365
12
-116
-372
-64
6
-348
-283
-58
-263
-388
-63
-70
-464
-259
41
-237
-279
-43
-233
-357
50
-31
-427
-89
115
-325
-262
108
-232
-411
58
19
-295
101
318
-77
-49
223
63
-25
354
345
59
320
449
144
78
204
-66
-207
56
-56
-362
-146
68
-347
-454
-85
-231
-420
-72
-76
-602
-469
252
1015
2523
4339
4637
3487
2522
1487
523
665
599
-182
-392
-199
-452
-577
-422
-865
-1254
-1075
-979
-1233
-1187
-912
-1078
-1149
-926
-1000
-1192
-904
-828
-1232
-1093
-750
-1063
-1176
-725
-756
-1143
-992
-650
-897
-906
-547
-836
-1019
-606
-523
-837
-617
-434
-844
-708
-350
-614
-790
-434
-327
-598
-417
-308
-610
-512
-248
-489
-671
-407
-429
-771
-572
-279
-744
-780
-385
-672
-772
-431
-525
-671
-454
-430
-754
-575
-247
-593
-715
-383
-421
-657
-404
-225
-592
-539
-259
-502
-573
-312
-299
-487
-335
-204
-456
-444
-165
-289
-607
-372
-216
-453
-386
-270
-434
-436
-256
-385
-481
-168
-239
-588
-332
-194
-550
-510
-102
-232
-520
-172
-132
-467
-182
113
-281
-290
133
-132
-241
179
137
-45
222
367
-125
-255
179
-30
-290
-54
-187
-485
-314
-120
-386
-388
-36
-337
-558
-180
-145
-618
-603
56
712
2118
4005
4476
3501
2578
1532
473
461
385
-288
-472
-182
-392
-759
-385
-333
-746
-548
-313
-665
-671
-279
-463
-708
-370
-291
-553
-350
-280
-610
-441
-72
-300
-497
-233
-376
-687
-442
-290
-553
-525
-225
-469
-668
-285
-360
-686
-315
-112
-437
-378
-166
-426
-507
-164
-165
-478
-291
-28
-359
-378
-155
-364
-430
-150
-259
-639
-471
-263
-609
-590
-169
-481
-854
-446
-327
-661
-466
-250
-616
-605
-205
-409
-624
-232
-324
-739
-372
-138
-580
-472
-65
-379
-579
-227
-224
-533
-267
-84
-465
-323
71
-227
-415
-66
-66
-313
-134
-40
-407
-371
-130
-347
-505
-179
-208
-577
-407
-248
-413
-242
-44
-407
-464
-64
-182
-526
-164
158
-255
-277
24
-158
-227
131
137
-89
145
297
-24
-71
154
-192
-424
-92
-209
-582
-289
-139
-626
-502
-111
-406
-496
-225
-195
-513
-623
-66
618
1881
3731
4430
3641
2906
2088
739
441
490
-237
-426
-160
-400
-476
-19
15
-187
-157
-248
-593
-637
-302
-464
-691
-304
-308
-768
-530
-202
-443
-464
-166
-159
-159
258
337
-87
-163
14
-85
25
401
345
231
455
510
379
660
852
453
585
1009
753
656
896
765
572
839
1076
783
725
1043
759
429
853
855
389
623
814
443
479
793
523
310
652
654
342
541
667
351
436
660
432
340
702
611
257
563
772
371
376
790
513
279
712
627
267
508
633
346
429
756
476
282
699
487
131
563
650
215
297
627
400
222
503
476
212
420
553
151
204
645
357
109
495
457
131
424
631
318
456
777
584
417
641
694
503
748
1028
757
712
978
654
353
748
678
175
426
570
149
201
473
205
30
407
276
-37
335
374
-142
238
1693
2754
3870
5125
4523
2983
2164
1468
882
694
610
138
-222
196
150
-256
59
147
-291
-172
177
-133
-321
87
81
-303
-31
164
-258
-141
219
-55
-199
162
153
-172
21
166
-108
-78
193
76
-153
161
192
-107
216
432
146
190
469
242
44
413
391
33
245
420
215
275
572
338
74
360
386
126
214
411
95
-25
306
78
-158
265
210
-258
43
288
-194
-138
281
9
-203
123
155
-232
-13
256
-133
-127
198
19
-162
165
73
-281
6
214
-40
14
275
3
-208
128
123
-170
84
228
-176
-178
144
-11
-188
96
18
-243
50
105
-240
-108
199
-144
-379
35
77
-274
-137
100
-185
-212
195
83
-120
142
226
-108
86
488
146
103
532
458
129
294
361
-102
-50
155
-274
-213
-98
-971
-1305
-841
-996
-1463
-1197
-807
-1011
-927
-643
-712
-65
1574
3078
4035
4076
2976
1303
288
363
125
-324
-327
-515
-746
-622
-501
-653
-662
-385
-563
-774
-394
-423
-749
-607
-380
-472
-536
-351
-372
-552
-361
-313
-568
-261
-62
-487
-401
-333
-913
-1200
-977
-945
-1247
-972
-771
-1129
-1049
-713
-883
-1124
-788
-744
-1124
-886
-627
-929
-831
-446
-633
-861
-597
-600
-890
-687
-589
-1009
-898
-514
-790
-1016
-739
-737
-1101
-916
-612
-930
-944
-501
-521
-684
-304
-188
-700
-596
-308
-585
-434
-11
-113
-305
-333
-590
-843
-646
-462
-750
-728
-350
-483
-601
-148
-98
-396
-290
-363
-717
-688
-389
