-697
-426
-209
-659
-620
-289
-510
-656
-431
-446
-625
-457
-281
-550
-585
-241
-421
-626
-286
-223
-470
-289
-74
-448
-446
-92
-303
-405
-25
-46
-332
-135
94
-123
-216
143
55
-146
272
292
-101
98
441
78
-39
475
374
58
341
305
-93
64
263
-79
-169
180
-117
-477
-34
-3
-363
-192
-26
-221
-245
-19
-196
-417
-39
7
-336
-162
-39
-293
-235
6
-219
-435
-70
-74
-338
-83
52
-239
-215
47
-151
-315
-43
-13
-341
-176
112
-209
-245
36
-144
-298
-58
-34
-400
-211
122
-312
-369
104
-122
-382
-43
-46
-298
-130
32
-263
-328
36
-137
-389
-27
-81
-435
-132
28
-314
-245
-19
-241
-331
58
14
-368
-141
41
-233
-128
238
62
-200
93
179
-162
88
447
152
152
428
175
-195
42
201
-249
-192
46
-400
-581
-165
-187
-432
-131
-158
-510
-267
-69
-505
-514
414
1342
2539
4147
4335
3034
2194
1546
545
387
504
-122
-525
-173
-188
-632
-454
-228
-588
-673
-280
-453
-691
-278
-250
-633
-430
-153
-513
-584
-186
-342
-604
-190
-176
-610
-343
-81
-403
-316
10
-258
-407
-53
11
-257
-103
156
-114
-87
214
30
-209
124
346
22
159
374
17
79
471
246
56
294
211
-30
165
244
-79
-221
-14
-91
-317
-8
-37
-392
-160
24
-352
-381
12
-210
-463
-82
-85
-404
-162
69
-348
-422
12
-167
-400
-72
-78
-395
-211
-25
-270
-189
41
-233
-336
-23
-77
-374
-137
10
-315
-219
23
-215
-386
-53
-7
-420
-222
30
-342
-289
61
-146
-359
-85
-88
-404
-234
-16
-287
-316
-20
-157
-407
-87
-19
-392
-152
-35
-394
-255
43
-184
-384
-16
57
-268
-43
182
-147
-123
196
-18
-189
231
272
-42
240
425
16
-60
180
-93
-350
-38
-114
-584
-311
15
-328
-357
-108
-293
-446
-129
-65
-600
-405
513
1237
2608
4308
4299
3059
2291
1393
553
642
441
-216
-290
-127
-388
-640
-323
-274
-632
-471
-253
-579
-516
-196
-505
-635
-340
-341
-545
-288
-107
-505
-460
-80
-373
-560
-88
-143
-490
-153
69
-294
-276
69
-103
-294
69
163
-283
-68
358
-50
-84
352
77
-152
294
336
-19
161
410
82
21
421
193
-112
205
208
-181
-61
70
-301
-211
41
-305
-447
-100
-69
-353
-226
-10
-320
-373
-31
-241
-480
-124
-114
-503
-250
29
-311
-301
86
-113
-400
-4
47
-443
-168
149
-237
-221
109
-128
-352
-24
-13
-322
-138
54
-318
-268
111
-191
-338
28
-37
-375
-150
72
-299
-329
-33
-235
-322
26
-191
-475
-23
124
-237
-274
25
-158
-452
-49
-3
-335
-125
11
-286
-176
222
-69
-281
104
33
-231
131
337
-20
49
357
32
-159
94
-20
-340
-221
-44
-376
-424
-85
-274
-504
-148
-161
-611
-344
-20
-406
-618
-138
610
1714
3506
4391
3616
2709
1838
821
529
466
-56
-331
-124
-199
-549
-387
-266
-577
-565
-272
-383
-569
-235
-274
-676
-333
-63
-531
-524
-66
-330
-566
-142
-154
-493
-219
-30
-450
-381
12
-247
-331
51
-45
-275
-4
148
-178
-145
252
62
-119
265
235
-55
166
334
-4
-23
388
263
69
314
249
-33
75
110
-189
-68
184
-140
-253
-1
-138
-324
-69
-31
-372
-306
-12
-202
-359
-62
-148
-388
-53
22
-364
-235
-7
-183
-258
-44
-11
-296
-54
193
-221
-206
146
-93
-300
25
37
-312
-108
87
-263
-214
160
-124
-441
-18
8
-353
-77
103
-339
-296
105
-185
-345
78
-17
-400
-34
150
-284
-239
81
-174
-350
29
-32
-319
-55
108
-212
-220
120
-4
-194
167
115
-223
129
338
55
104
395
282
91
228
205
-82
28
172
-210
-307
4
-154
-379
-71
-68
-494
-362
-55
-309
-296
-158
-466
-76
1326
2673
3674
4276
3597
2145
1300
935
516
168
156
-10
-454
-332
-197
-611
-530
-132
-436
-691
-281
-252
-583
-338
-127
-464
-486
-289
-410
-464
-174
-221
-529
-226
-154
-631
-389
70
-262
-439
-82
-122
-363
-161
-29
-270
-184
143
-59
-223
203
205
-240
69
349
-116
-41
278
19
74
383
167
-95
180
331
-70
-60
265
-102
-351
73
-10
-414
-129
13
-343
-208
73
-212
-304
0
-128
-388
-96
57
-314
-258
116
-147
-380
-34
-44
-331
-142
98
-256
-316
66
-178
-331
10
-90
-352
-108
-4
-331
-236
85
-227
-377
19
-80
-414
-168
-16
-375
-365
-40
-193
-326
-27
-141
-434
-181
0
-362
-401
-2
-221
-438
-57
-148
-469
-177
-22
-396
-333
0
-301
-484
-74
-119
-475
-70
158
-303
-201
172
-71
-226
157
113
-98
239
291
-82
-8
177
-222
-311
2
-181
-435
-202
-84
-474
-443
-132
-378
-489
-144
-150
-576
-565
-36
678
2018
3662
4205
3589
2917
1864
595
485
520
-129
-298
-112
-466
-650
-309
-518
-780
-423
-323
-748
-665
-263
-594
-723
-324
-435
-646
-403
-319
-649
-601
-256
-526
-580
-138
-313
-612
-266
-139
-519
-352
45
-242
-386
7
-43
-360
-18
225
-135
9
312
-60
-137
237
189
-10
183
329
81
116
352
82
-91
270
164
-293
-73
82
-292
-149
46
-395
-460
-41
-110
-490
-298
41
-310
-366
-30
-302
-417
-42
-111
-420
-151
-41
-420
-351
-25
-219
-393
-59
-121
-455
-127
61
-319
-279
-10
-247
-320
8
-123
-406
-198
-69
-286
-207
26
-242
-403
-67
-183
-450
-106
-75
-393
-244
-36
-212
-361
-113
-71
-366
-197
-63
-360
-209
66
-299
-422
20
-49
-402
-207
-20
-329
-335
-34
-302
-427
-48
-94
-405
-112
153
-289
-273
124
-54
-101
277
184
-38
219
238
-123
-39
190
-184
-355
-53
-242
-563
-200
-85
-555
-437
-118
-380
-452
-112
-231
-592
-254
523
1407
2960
4379
4069
2923
2259
1245
336
531
405
-344
-383
-152
-499
-702
-379
-388
-755
-551
-345
-639
-605
-405
-616
-626
-264
-411
-709
-439
-330
-596
-481
-186
-438
-598
-176
-253
-604
-258
-119
-456
-299
-83
-373
-330
34
-116
-320
-16
112
-221
-116
304
64
-95
283
194
-24
255
333
28
76
369
146
-41
203
35
-327
-55
128
-250
-189
39
-311
-507
-109
-77
-441
-202
-21
-385
-321
-9
-249
-322
-16
-232
-400
-56
-78
-378
-213
72
-247
-397
42
-47
-370
-78
108
-304
-287
79
-223
-333
42
-101
-345
-83
14
-268
-261
-27
-218
-314
8
-151
-433
-71
24
-349
-258
16
-163
-275
-20
-74
-315
-89
46
-267
-212
93
-230
-435
-35
-114
-362
-29
28
-407
-241
143
-117
-154
205
53
-235
102
300
-37
125
472
123
-74
258
70
-253
85
96
-377
-257
40
-322
-438
-45
-179
-471
-156
-38
-442
-401
-208
-233
539
2037
3306
4145
4148
3040
1657
950
835
374
-82
51
-143
-544
-305
-192
-615
-510
-204
-500
-617
-282
-323
-561
-267
-201
-562
-358
-55
-361
-477
-105
-120
-441
-189
-18
-383
-251
87
-196
-266
107
-63
-324
-12
175
-47
10
261
71
5
321
191
-18
279
380
41
162
485
235
141
378
317
108
252
320
-53
21
273
-89
-216
168
28
-369
-65
73
-309
-169
38
-295
-315
-13
-138
-334
-80
22
-338
-277
28
-218
-332
5
-92
-434
-105
85
-355
-296
55
-236
-308
36
-148
-365
-112
-31
-357
-281
-17
-312
-470
-138
-163
-433
-189
-120
-505
-349
-66
-437
-571
-201
-360
-615
-193
-176
-656
-451
-194
-544
-585
-318
-483
-661
-359
-284
-644
-494
-182
-545
-592
-243
-457
-627
-318
-183
-447
-443
-145
-425
-621
-252
-462
-817
-554
-594
-969
-771
-542
-913
-1001
-676
-789
-990
-754
-705
-969
-974
-860
-608
370
2055
3332
3426
2839
1749
397
8
101
-440
-885
-771
-897
-1180
-955
-921
-1303
-1208
-900
-1187
-1269
-892
-1044
-1280
-983
-960
-1266
-1028
-818
-1135
-1195
-873
-855
-1166
-1091
-876
-1040
-937
-632
-908
-958
-567
-718
-918
-598
-494
-763
-643
-394
-610
-701
-366
-489
-636
-296
-338
-551
-360
-124
-396
-486
-147
-285
-561
-318
-263
-656
-500
-226
-651
-755
-388
-629
-837
-484
-540
-840
-601
-416
-762
-849
-508
-656
-915
-597
-515
-789
-729
-499
-717
-780
-477
-718
-864
-442
-511
-847
-580
-411
-734
-771
-548
-665
-782
-579
-585
-834
-683
-467
-787
-883
-548
-688
-924
-674
-585
-917
-809
-536
-954
-931
-484
-717
-968
-680
-492
-894
-985
-639
-867
-960
-587
-791
-1027
-661
-628
-899
-664
-438
-722
-809
-446
-503
-717
-340
-259
-576
-383
-264
-658
-674
-463
-665
-856
-648
-694
-1049
-775
-564
-997
-969
-585
-792
-1015
-634
-649
-1164
-789
141
883
2326
3886
3688
2490
1829
919
-67
-6
-2
-716
-802
-438
-783
-1032
-690
-759
-1069
-834
-650
-930
-868
-628
-845
-940
-616
-563
-879
-752
-534
-796
-822
-496
-581
-896
-539
-362
-856
-621
-278
-624
-580
-218
-391
-552
-218
-177
-466
-311
-68
-308
-322
67
-108
-317
50
32
-279
-45
204
-139
-103
230
-120
-323
21
-66
-427
-220
-56
-447
-415
-92
-347
-543
-198
-153
-492
-406
-169
-380
-461
-121
-237
-479
-125
-96
-473
-329
-125
-344
-329
-34
-195
-399
-62
-19
-301
-84
131
-158
-115
177
-71
-174
165
103
-171
37
185
-110
-44
286
101
-111
175
288
13
97
302
72
117
427
218
47
385
426
91
198
435
207
71
398
412
202
478
529
260
534
733
385
399
711
623
598
902
846
678
923
970
637
648
884
613
287
540
535
204
446
624
266
268
568
351
163
558
629
153
213
911
1619
2845
4638
5124
4062
3267
2349
1198
1221
1258
523
300
551
318
58
362
346
-40
158
374
10
-12
301
112
-15
344
230
-94
189
409
112
97
384
232
94
380
423
114
285
523
208
240
578
393
222
517
598
299
462
732
404
433
797
557
390
744
752
449
631
822
527
586
898
616
371
628
587
275
408
577
164
81
455
235
7
357
405
34
199
407
40
38
326
175
54
376
320
-59
213
448
50
29
379
189
6
339
365
15
146
374
112
89
376
165
-79
235
260
-112
79
324
-111
-99
360
35
-169
277
163
-263
42
293
-83
-100
240
54
-222
116
149
-180
87
213
-181
-145
213
29
-219
170
213
-122
221
326
-82
103
491
295
101
397
454
218
420
508
99
129
368
90
-115
132
60
-258
-43
151
-145
-145
157
2
-141
201
102
-440
-77
978
1909
3360
4731
4225
2839
2236
1405
676
830
597
-36
-57
235
-107
-352
53
-33
-438
-177
116
-265
-380
-20
-214
-414
-103
-90
-364
-193
0
-277
-233
130
-115
-349
89
93
-280
-54
147
-73
-109
113
112
-82
179
256
0
251
361
129
227
513
305
125
467
400
162
461
544
181
303
607
284
87
418
316
-35
146
239
-97
-84
168
-82
-234
68
42
-301
-98
164
-209
-203
154
-94
-301
73
71
-318
-56
154
-289
-177
202
-150
-307
62
33
-279
-118
75
-249
-275
77
-137
-400
-91
-48
-329
-111
23
-402
-285
95
-256
-449
-74
-112
-412
-217
-68
-398
-375
-18
-225
-437
-127
-169
-494
-245
-69
-379
-248
2
-205
-278
-6
-5
-284
7
280
-76
-104
213
58
-224
115
122
-352
-45
29
-524
-416
-72
-312
-528
-252
-299
-592
-331
-212
-580
-483
-164
-532
-675
336
1605
2802
4137
4096
2539
1556
1135
413
106
226
-147
-600
-395
-252
-664
-688
-374
-595
-773
-460
-447
-755
-582
-373
-692
-663
-313
-531
-747
-365
-371
-743
-424
-242
-679
-610
-207
-408
-607
-258
-282
-509
-264
-125
-413
-307
38
-300
-351
113
29
-284
-45
181
-116
-111
161
-73
-184
226
106
-245
114
215
-279
-223
96
-252
-447
-130
-271
-577
-327
-202
-522
-443
-129
-406
-577
-228
-305
-600
-312
-157
-523
-471
-117
-378
-601
-144
-291
-644
-186
-48
-425
-327
-37
-323
-439
-60
-150
-465
-219
-46
-388
-395
-107
-300
-496
-222
-227
-531
-258
-89
-537
-458
-69
-330
-465
-70
-151
-499
-246
-75
-393
-303
38
-173
-313
-12
-48
-315
-62
161
-142
-48
258
9
-139
187
86
-314
-33
110
-361
-335
-22
-310
-420
-56
-234
-480
-143
-99
-474
-356
-20
-264
-605
-344
316
1139
2772
4296
3980
2970
2225
1097
481
728
358
-305
-139
-43
-455
-393
-78
-339
-566
-244
-220
-475
-241
-119
-407
-294
-69
-318
-475
-95
-75
-427
-145
9
-374
-238
114
-146
-360
24
32
-301
5
157
-164
-49
216
19
-117
221
280
-22
243
451
67
153
528
236
79
560
483
133
460
576
164
215
481
162
-30
242
127
-170
118
290
-104
-104
249
62
-188
158
119
-289
-11
172
-121
-7
203
-45
-176
129
125
-165
57
175
-166
-27
319
41
-105
260
175
-178
83
243
-92
8
301
-3
-154
236
148
-185
77
269
-156
-133
293
36
-171
159
140
-108
99
152
-181
-39
244
-5
-111
228
126
-222
80
323
38
135
368
111
23
397
339
51
425
548
158
276
512
243
108
391
199
-179
99
124
-238
-142
98
-102
-209
101
-67
-296
85
160
-309
-198
672
1435
2693
4377
4465
3208
2412
1670
747
632
673
82
-244
49
-52
-493
-245
-22
-452
-371
17
-355
-429
-10
-242
-451
-155
-60
-375
-320
-3
-263
-360
9
-70
-331
-137
11
-221
-130
127
-122
-171
216
151
-184
63
310
11
96
445
187
91
481
388
148
429
473
180
389
645
395
289
549
457
132
313
395
33
103
314
-20
-69
276
92
-198
87
232
-64
-69
148
31
-88
106
29
-195
60
157
-191
-103
180
-79
-239
99
25
-267
69
189
-200
-96
253
-102
-328
134
66
-278
-2
129
-212
-144
114
-191
-274
95
-53
-341
-72
95
-248
-187
66
-257
-360
-62
-142
-323
-87
-83
-426
-289
-18
-327
-394
4
-175
-457
-105
-130
-475
-208
29
-259
-313
32
-72
-291
25
118
-130
44
321
-7
-255
123
0
-392
-151
-162
-554
-509
-275
-492
-611
-354
-501
-707
-397
-281
-559
-588
-535
-331
685
2297
3490
3793
3412
2433
1183
519
515
38
-443
-307
-508
-816
-596
-588
-937
-773
-541
-873
-898
-527
-681
-938
-653
-555
-861
-703
-478
-823
-840
-492
-682
-919
-578
-489
-865
-716
-414
-711
-754
-332
-487
-784
-410
-341
-660
-462
-212
-464
-551
-228
-286
-559
-333
-194
-535
-459
-179
-421
-541
-204
-250
-565
-382
-280
-656
-642
-340
-633
-794
-406
-544
-814
-469
-424
-743
-578
-369
-596
-618
-334
-434
-633
-412
-365
-589
-492
-258
-488
-615
-226
-361
-695
-344
-202
-590
-533
-179
-426
-560
-186
-303
-561
-351
-289
-561
-444
-212
-501
-531
-196
-335
-597
-297
-213
-570
-393
-135
-516
-587
-167
-324
-614
-320
-227
-501
-419
-97
-335
-560
-220
-303
-538
-221
-99
-385
-211
5
-292
-317
52
-56
-287
47
112
-161
-27
202
-122
-332
31
-128
-532
-283
-247
-563
-406
-265
-566
-559
-158
-308
-653
-326
-177
-706
-616
322
1242
2649
4137
4081
2674
1719
1149
393
403
380
-258
-342
-57
-304
-579
-316
-234
-562
-465
-200
-405
-535
-258
-225
-491
-297
-224
-573
-384
-34
-296
-353
-52
-191
-357
-46
34
-322
-160
143
-135
-198
194
100
-234
92
242
-40
148
436
218
105
399
333
128
440
543
218
354
618
337
255
629
414
57
354
388
53
107
235
-87
-109
332
137
-183
169
215
-141
42
288
-116
-166
281
89
-200
142
231
-172
16
324
-45
-105
285
214
-74
169
310
6
159
354
-2
-26
378
212
-126
187
320
-53
21
335
19
-95
335
121
-150
242
219
-115
86
356
142
-102
207
225
-102
173
269
-106
107
476
178
122
433
225
44
396
503
196
299
551
411
298
457
322
71
309
331
-63
-42
187
-75
-198
110
-7
-283
-24
77
-252
-50
216
-213
-355
236
963
2109
3894
4597
3587
2472
1686
808
520
663
226
-198
62
154
-268
-223
-5
-320
-309
70
-106
-350
-50
-21
-347
-185
43
-247
-315
-17
-100
-276
18
105
-248
-53
307
-35
-142
237
82
-164
141
282
-9
128
405
73
87
521
358
107
428
522
141
361
715
313
253
635
514
298
538
562
194
309
498
124
64
314
78
-94
258
274
-82
54
285
-30
-85
307
102
-124
215
202
-192
-14
311
-62
-163
223
105
-64
221
174
-187
53
308
-65
-39
386
159
-130
216
294
-146
-87
238
-74
-134
262
114
-84
149
146
-204
-89
146
-168
-166
243
20
-327
2
77
-263
-54
184
-179
-185
261
194
-51
222
246
-76
222
487
133
154
538
385
110
343
416
10
118
340
-103
-121
202
-46
-253
7
8
-380
-183
100
-274
-270
161
-33
-519
-189
653
1585
3183
4426
3855
2533
1740
911
422
672
387
-206
-99
10
-315
-296
-116
-352
-426
-168
-228
-442
-325
-196
-440
-451
-48
-238
-483
-122
-196
-490
-112
126
-340
-401
-13
-130
-248
39
-25
-265
-62
66
-197
-150
269
111
-164
255
351
-41
166
484
106
59
456
285
63
345
443
107
211
481
87
-12
387
259
-111
44
163
-180
2
201
-266
-227
107
-96
-262
7
-8
-288
-98
79
-164
-222
36
-22
-251
-31
36
-325
-71
326
-107
-258
108
-127
-247
186
54
-219
-78
-57
-198
-132
250
83
-320
-53
-59
-378
-117
233
-210
-422
130
-56
-275
59
-183
-380
-68
101
-191
-245
131
-73
-252
109
107
-169
12
244
20
-51
192
64
-31
282
151
-128
87
178
-222
-289
59
-162
-465
-200
-183
-492
-314
-201
-404
-259
-144
-315
-439
-380
-100
449
1844
3626
3961
3247
2489
1358
483
401
310
-274
-315
-101
-624
-751
-396
-681
-914
-571
-636
-1032
-818
-512
-797
-845
-585
-795
-811
-406
-408
-814
-672
-317
-568
-575
-210
-422
-722
-309
-262
-600
-361
-95
-369
-464
-69
-117
-353
-119
66
-72
-9
206
-74
-118
346
140
-88
394
328
4
287
444
53
-18
396
63
-357
118
239
-209
-91
91
-188
-92
224
-36
-287
108
183
-255
-136
165
-229
-208
233
-123
-262
100
67
-210
-161
-11
-158
-74
155
-19
-212
26
68
-288
-105
108
-244
-207
132
-103
-353
-19
67
-290
-317
-33
-219
-316
63
-130
-374
-79
-61
-360
-221
4
-199
-149
103
-28
-136
163
169
-176
25
396
97
-32
376
304
137
378
322
12
120
256
-110
-243
76
-58
-334
-54
-29
-377
-235
49
-258
-412
11
-129
-593
-158
764
1568
3092
4447
3720
2455
1834
872
327
619
392
-254
-238
-97
-455
-496
-208
-398
-551
-213
-213
-506
-419
-227
-422
-485
-188
-351
-592
-189
-149
-628
-345
-44
-451
-401
-55
-248
-422
-146
-85
-358
-220
11
-273
-300
126
-33
-301
72
179
-184
-52
221
-78
-82
284
140
-92
174
208
-63
197
380
-51
-112
189
-53
-227
64
3
-363
-195
116
-244
-372
-3
-171
-364
-140
-155
-405
-250
16
-247
-310
-13
-101
-375
-122
17
-377
-218
111
-271
-319
97
-103
-347
-46
11
-287
-108
167
-178
-272
78
-64
-275
22
74
-322
-248
49
-220
-266
33
-158
-338
-54
-47
-303
26
243
-182
-139
212
56
-182
124
337
51
228
453
72
80
405
136
-167
168
171
-312
-181
9
-257
-393
-211
-237
-415
-133
-129
-505
-250
40
-462
-572
414
1393
2529
4147
4404
3076
2166
1582
714
428
526
90
-258
-45
-218
-510
-321
-164
-315
-460
-274
-302
-512
-283
-252
-528
-354
-126
-374
-372
-86
-334
-488
-121
-87
-337
-158
-17
-299
-283
-23
-156
-233
88
52
-221
15
223
-117
-97
242
93
-41
192
231
-43
212
483
75
124
532
337
70
325
319
4
146
259
-51
-101
215
49
-212
38
75
-267
-209
42
-250
-273
91
-137
-330
77
94
-275
-53
93
-253
-159
186
-8
-207
105
115
-198
-30
195
-109
-104
167
-110
-199
106
32
-235
-2
183
-191
-244
-48
-140
-191
71
35
-374
-173
63
-238
-222
58
-174
-389
-38
-33
-311
-132
84
-126
-141
168
9
-140
161
181
40
226
308
117
158
439
232
-5
257
117
-302
-169
-4
-381
-368
86
-161
-476
-134
-63
-447
-320
-6
-335
-531
-178
387
1490
3177
4274
3827
2862
2163
1044
463
688
160
-432
-234
-249
-582
-446
-256
-565
-635
-329
-544
-703
-319
-395
-637
-386
-220
-534
-575
-208
-379
-579
-221
-193
-536
-379
-142
-400
-385
-21
-183
-391
-103
-32
-315
-132
163
-177
-220
140
-5
-147
183
136
-188
108
311
60
83
344
219
-10
301
325
-101
121
332
-126
-182
125
-94
-288
-5
-3
-340
-186
32
-329
-291
18
-262
-384
-28
-68
-411
-204
1
-340
-321
25
-227
-409
4
-98
-456
-216
-16
-337
-344
53
-140
-383
-56
-19
-403
-199
35
-363
-285
105
-236
-437
-51
-198
-423
-164
-102
-335
-304
-59
-290
-466
-124
-134
-418
-142
102
-253
-250
135
-174
-418
46
47
-263
9
199
-119
-144
150
-63
-325
-44
-109
-506
-394
-253
-538
-529
-215
-459
-703
-320
-269
-687
-513
-140
-467
-701
-50
879
2053
3853
4373
3043
1983
1317
456
222
325
-209
-549
-260
-359
-685
-468
-358
-758
-706
-302
-508
-701
-413
-413
-661
-477
-345
-686
-584
-267
-483
-640
-306
-300
-690
-462
-202
-566
-516
-114
-298
-467
-172
-146
-450
-243
15
-360
-342
81
-174
-371
116
64
-330
-104
60
-211
-164
149
35
-218
2
69
-239
-27
156
-247
-284
-13
-276
-583
-244
-136
-512
-357
-81
-422
-509
-113
-320
-559
-186
-162
-514
-311
-18
-357
-344
-38
-333
-480
-128
-130
-456
-276
-11
-364
-444
-68
-250
-517
-209
-171
-492
-237
-66
-388
-341
-137
-268
-411
-189
-178
-458
-302
-184
-455
-388
-127
-328
-463
-183
-150
-305
-116
-22
-372
-312
97
-85
-284
27
59
-159
16
136
-230
-295
9
-286
-539
-239
-253
-655
-559
-194
-496
-640
-281
-464
-693
-325
-346
-720
-650
-396
76
1410
3224
4009
3440
2501
1462
454
325
391
-288
-559
-298
-539
-778
-514
-520
-825
-621
-434
-726
-782
-544
-642
-817
-529
-526
-779
-510
-342
-707
-698
-295
-509
-787
-443
-350
-645
-492
-275
-516
-538
-276
-349
-442
-170
-205
-484
-238
-46
-393
-364
-34
-177
-326
-73
-52
-420
-232
143
-184
-196
128
-224
-361
28
-107
-496
-288
-110
-501
-513
-160
-364
-577
-238
-267
-585
-323
-134
-437
-459
-186
-353
-536
-167
-194
-525
-340
-209
-434
-515
-157
-182
-440
-143
-126
-398
-219
-105
-444
-410
-53
-245
-472
-115
-87
-515
-318
-48
-355
-383
-104
-252
-428
-141
-150
-496
-278
-34
-368
-408
-85
-299
-455
-76
-53
-365
-166
80
-279
-244
106
-78
-163
186
141
-160
118
271
-175
-215
92
-157
-450
-223
-251
-581
-401
-286
-507
-367
-170
-408
-580
-236
-205
-660
-589
-83
455
1647
3376
4071
3486
2744
1796
638
463
616
-121
-433
-87
-410
-666
-301
-416
-685
-463
-422
-688
-587
-263
-488
-731
-357
-300
-643
-444
-193
-502
-539
-161
-300
-532
-205
-144
-488
-285
-16
-463
-438
50
-232
-477
-64
15
-311
-130
130
-153
-175
183
11
-207
198
221
-201
30
322
-94
-55
366
32
-154
178
107
-252
-137
74
-223
-242
114
-58
-328
-60
5
-394
-249
112
-153
-299
-4
-27
-319
-84
51
-301
-156
58
-225
-199
126
-87
-311
8
12
-242
-41
154
-162
-133
254
-27
-238
101
97
-204
-33
190
-133
-168
160
-96
-322
81
104
-188
11
200
-77
-182
55
-34
-246
58
142
-226
-26
198
-149
-37
303
48
-105
221
340
93
268
521
189
284
616
290
77
351
276
-126
-3
144
-168
-171
160
-36
-301
13
-33
-274
-20
123
-127
-306
-76
332
1203
2883
4302
4315
3583
2769
1458
765
1056
630
-52
136
133
-339
-241
23
-252
-385
-11
-142
-506
-133
-23
-372
-159
69
-244
-246
100
-60
-330
16
35
-307
56
174
-239
-129
141
-14
-206
110
220
-169
108
459
55
13
470
341
53
381
456
93
269
533
215
177
585
430
114
460
485
88
269
455
147
141
378
141
-46
292
303
-87
116
300
-88
-42
300
62
-123
282
216
-174
72
252
-67
-83
192
-32
-134
258
150
-168
81
261
-72
-108
231
74
-164
118
201
-131
-70
179
-131
-189
175
50
-172
110
180
-178
-9
191
-94
-131
107
-19
-192
131
134
-236
-52
206
-95
-178
156
8
-245
110
140
-298
-63
224
-125
-41
386
196
-18
241
214
35
341
555
261
284
662
410
105
408
344
-37
141
181
-174
-111
169
-42
-290
33
-9
-345
-117
31
-208
-274
-117
-19
612
2223
3598
4134
3962
2973
1614
853
947
641
51
100
33
-347
-246
-92
-471
-431
-18
-341
-590
-161
-118
-485
-350
-135
-425
-301
36
-346
-504
-83
-148
-445
-140
-64
-404
-207
125
-96
-352
-9
100
-261
-38
290
-101
-193
286
106
-174
268
334
-29
154
351
133
62
278
270
124
383
395
119
244
314
-43
-142
289
143
-164
189
113
-305
-66
191
-163
-228
141
-81
-380
56
187
-261
-119
168
-215
-293
98
-1
-229
57
126
-213
-137
111
-171
-128
255
9
-249
-71
37
-185
-39
214
-152
-227
88
-68
-288
-17
28
-279
-145
63
-229
-334
-1
-133
-359
-27
23
-396
-299
80
-252
-353
99
-78
-297
29
64
-189
-29
152
-44
-74
186
138
-71
219
294
21
128
268
67
-27
191
-34
-313
-37
-138
-506
-231
22
-340
-334
12
-233
-431
-94
-91
-418
-342
103
667
1874
3628
4247
3328
2259
1300
441
387
514
-19
-303
-7
-205
-472
-225
-272
-469
-318
-199
-383
-509
-243
-288
-548
-195
-102
-522
-288
58
-347
-399
17
-177
-346
-47
-9
-244
-144
82
-213
-236
233
5
-285
198
219
-160
80
334
76
65
378
144
-127
275
375
62
279
396
-9
60
460
232
-34
211
173
-170
-56
114
-134
-164
11
-166
-309
-15
1
-317
-75
129
-199
-196
101
-45
-250
-7
7
-262
-31
200
-175
-237
167
-5
-272
61
129
-220
-51
192
-257
-243
236
28
-181
130
93
-306
-85
242
-79
-146
165
-82
-307
46
70
-245
-89
107
-202
-264
94
-40
-298
53
113
-171
-22
145
-40
-74
255
165
-50
303
301
-27
140
360
14
-190
120
-34
-321
-71
-84
-458
-317
-55
-394
-450
-62
-258
-531
-198
-86
-466
-500
-102
443
1701
3430
4059
3214
2038
952
201
287
359
-170
-372
-139
-374
-629
-352
-354
-679
-485
-234
-549
-602
-301
-436
-670
-393
-280
-563
-437
-225
-438
-445
-169
-249
-439
-214
-110
-375
-162
66
-214
-179
70
-97
-265
101
156
-201
80
257
-110
-68
318
222
-127
154
304
-18
189
416
51
41
434
197
-67
283
141
-261
-21
194
-233
-295
174
-58
-291
50
-12
-346
-98
64
-279
-185
165
-45
-328
21
193
-285
-193
218
-148
-223
222
-2
-260
118
165
-206
-81
136
-125
-152
208
57
-263
69
154
-172
-45
123
-135
-191
97
-40
-250
77
64
-268
-61
115
-221
-191
181
-67
-230
151
202
-81
60
301
-44
-53
425
245
-32
265
453
123
116
478
141
-47
245
-34
-318
-11
-40
-407
-200
17
-317
-378
-35
-200
-466
-84
-81
-558
-408
96
746
2075
3656
4011
3010
2151
1412
493
414
554
-53
-286
78
-155
-510
-221
-213
-510
-283
-56
-403
-504
-87
-251
-535
-59
-27
-445
-202
-25
-333
-305
-38
-169
-336
-25
81
-294
-157
121
-256
-283
170
110
-156
83
188
-145
-35
275
39
-48
353
169
-166
300
364
-53
197
459
106
52
418
218
-20
253
171
-123
31
172
-117
-196
89
-98
-326
-30
-37
-296
-31
45
-326
-205
131
-101
-357
62
128
-293
-138
135
-102
-216
125
13
-295
37
81
-274
-100
93
-128
-181
78
-22
-308
36
92
-336
-109
140
-235
-308
-11
-155
-308
-91
-87
-356
-208
53
-300
-328
86
-145
-396
-8
70
-333
-208
0
-291
-314
-42
-95
-183
68
105
-187
-75
225
-56
-71
406
183
-128
331
400
-60
91
286
-112
-150
132
-120
-387
-201
-137
-395
-283
-18
-311
-417
-130
-225
-314
-112
-232
-215
919
2421
3422
4055
3748
2436
1345
979
715
170
45
84
-381
-442
-46
-234
-606
-328
-231
-578
-419
-128
-440
-546
-169
-295
-541
-202
-169
-511
-274
-72
-468
-465
-48
-241
-497
-159
-57
-329
-235
3
-255
-311
57
-72
-263
102
171
-174
63
291
-99
-49
338
102
-107
340
400
-23
124
353
61
25
364
111
-151
138
28
-288
-105
86
-237
-270
63
-217
-453
-75
-17
-341
-193
-35
-377
-321
79
-154
-417
-60
-40
-375
-134
114
-262
-338
32
-103
-380
-46
2
-353
-104
155
-217
-279
53
-154
-293
118
14
-386
-180
77
-176
-287
21
-146
-404
23
62
-432
-185
108
-360
-320
76
-229
-439
-66
60
-229
-151
42
-253
-310
-40
-202
-348
-57
-41
-258
-7
211
-141
-261
160
176
-105
200
374
73
145
433
218
45
280
32
-321
-67
-10
-355
-212
42
-258
-305
59
-101
-421
-143
-21
-357
-366
-72
281
1395
3093
4044
3738
2687
1605
733
602
815
266
-173
75
-130
-452
-150
-163
-520
-298
-122
-415
-300
48
-213
-490
-61
-37
-459
-157
106
-291
-362
44
-61
-240
244
279
-298
-104
290
-124
-165
146
-28
-7
355
423
82
83
380
198
124
430
347
129
459
611
207
242
564
348
283
622
429
116
390
430
-4
34
394
97
-149
193
122
-133
89
241
-63
-153
123
-102
-174
198
-76
-252
138
119
-134
-8
111
-44
-90
131
119
-43
97
109
-158
13
272
-147
-131
287
48
-152
197
253
-196
-71
194
-130
-133
225
38
-281
79
213
-168
-45
221
-80
-254
96
43
-217
50
-38
-353
-106
51
-202
-206
266
232
-227
116
339
-132
56
450
123
66
452
311
24
209
204
-105
-49
58
-140
-284
-290
-263
-188
-75
-291
-562
-293
-73
-384
-447
39
-105
-569
5
1080
2088
3516
4458
3343
1755
1101
362
-26
273
140
-338
-238
-45
-365
-527
-152
-286
-672
-290
-166
-557
-485
-234
-460
-433
-35
-270
-542
-151
-146
-528
-297
12
-242
-334
6
-43
-329
-72
126
-291
-178
267
-79
-212
200
124
-115
107
130
-93
110
319
33
7
455
235
-221
178
493
143
180
422
47
-75
237
21
-283
11
81
-322
-265
-3
-281
-355
13
-167
-438
-71
4
-362
-183
54
-286
-337
84
-36
-372
-4
119
-348
-201
132
-200
-236
144
-62
-301
-2
30
-284
-202
63
-201
-261
101
-169
-475
-104
-1
-358
-281
-53
-325
-378
-123
-320
-456
-146
-81
-473
-432
-72
-322
-414
-86
-324
-507
-147
-171
-535
-323
-61
-455
-470
-27
-213
-539
-201
-33
-373
-242
74
-213
-317
88
81
-198
72
216
-76
15
213
-121
-251
48
-228
-602
-291
-226
-631
-470
-173
-604
-669
-161
-351
-556
-152
-334
-838
-148
1260
2202
3400
4296
3200
1759
1261
714
239
164
-91
-586
-543
-200
-382
-703
-544
-446
-734
-598
-333
-648
-699
-336
-511
-721
-358
-415
-796
-503
-266
-556
-547
-271
-479
-676
-386
-320
-558
-451
-193
-444
-482
-75
-243
-456
-98
-45
-289
-173
33
-164
-314
43
101
-320
-64
186
-200
-60
203
-74
-165
103
55
-187
-47
21
-303
-242
-19
-342
-450
-19
-125
-478
-146
-83
-534
-274
17
-396
-429
-34
-139
-445
-180
-94
-485
-261
91
-272
-333
36
-160
-448
-92
41
-383
-225
67
-324
-336
64
-127
-394
-124
-54
-399
-234
25
-334
-387
-53
-137
-369
-203
-104
-371
-265
23
-275
-502
-132
-143
-429
-145
-79
-453
-329
21
-281
-473
-49
-29
-345
-87
72
-280
-140
111
-154
-115
228
34
-149
313
420
-79
-8
229
-104
-209
5
-196
-517
-336
-275
-548
-391
-199
-520
-540
-174
-353
-534
-222
-336
-416
643
2088
3236
4001
3705
2416
1163
745
585
97
-24
44
-370
-532
-236
-410
-688
-459
-378
-608
-480
-269
-558
-623
-248
-390
-707
-411
-269
-627
-479
-174
-470
-568
-251
-310
-685
-407
-34
-422
-432
-107
-320
-370
-45
-175
-386
9
47
-337
-119
187
-88
-203
125
-54
-248
183
188
-130
108
220
-166
-102
288
16
-279
-28
-69
-384
-263
-55
-317
-365
-26
-143
-431
-122
-62
-525
-345
-8
-319
-404
-75
-205
-413
-87
-51
-400
-255
69
-311
-556
5
3
-410
-108
-26
-394
-163
156
-311
-503
47
-58
-362
-14
-3
-362
-207
62
-213
-334
-14
-194
-469
-32
68
-319
-214
3
-315
-443
9
-53
-390
-177
-72
-337
-228
25
-273
-363
-70
-141
-214
141
233
-167
-141
253
67
-100
233
236
65
309
310
-59
109
302
-173
-448
-94
-226
-600
-148
-2
-466
-382
-80
-330
-537
-187
-122
-505
-411
139
834
2108
3733
4140
3237
2370
1371
392
587
739
-76
-303
-113
-405
-472
-176
-285
-600
-392
-287
-629
-418
-150
-520
-516
-95
-335
-625
-174
-84
-450
-343
-124
-267
-325
-73
-101
-392
-121
102
-223
-92
198
-63
-197
207
137
-248
208
419
-37
117
425
212
169
426
320
19
304
481
107
239
555
273
154
395
184
-86
235
302
-42
48
235
-76
-212
146
7
-250
120
181
-197
-48
209
-69
-175
108
88
-172
39
240
-69
-67
237
30
-80
241
94
-168
128
200
-96
16
232
-24
-118
261
78
-239
121
220
-81
49
242
-121
-184
214
75
-168
113
140
-198
-70
187
-99
-163
187
1
-206
109
120
-187
-7
253
-80
-191
255
257
-42
189
328
-24
100
512
186
5
449
459
183
360
415
-16
-52
248
-114
-393
-17
-127
-417
-102
-53
-399
-254
-114
-347
-267
9
-274
-634
186
1483
2484
3872
4393
3125
1929
1336
599
304
426
119
-309
-268
-75
-395
-568
-244
-372
-611
-321
-303
-644
-501
-216
-453
-522
-215
-341
-598
-335
-146
-430
-426
-113
-310
-547
-163
-170
-470
-145
34
-333
-285
67
-97
-206
95
-23
-263
105
233
-115
8
280
-15
-109
295
251
8
276
392
43
43
325
141
1
238
40
-300
-28
62
-350
-228
80
-240
-329
-2
-136
-343
-131
-64
-307
-212
19
-223
-294
9
-124
-415
-151
-44
-368
-191
70
-311
-365
68
-32
-325
-51
34
-379
-269
77
-196
-341
3
-65
-356
-115
3
-359
-213
87
-256
-309
62
-172
-453
-147
-57
-348
-278
34
-258
-401
36
-155
-433
-114
-64
-342
-286
-49
-201
-227
166
50
-242
57
176
-126
42
334
-39
-31
425
275
39
190
194
-129
-92
75
-282
-396
-87
-221
-445
-129
-50
-421
-382
-87
-306
-462
-122
-335
-433
797
2231
3304
4189
3794
2178
1034
810
592
161
115
-12
-453
-332
-79
-445
-541
-161
-317
-618
-299
-218
-542
-366
-178
-449
-451
-197
-309
-476
-291
-188
-414
-371
-73
-293
-388
9
-120
-370
-23
54
-316
-144
196
-76
-181
208
41
-269
156
281
-98
91
372
46
-71
314
256
30
353
472
83
135
416
80
-83
296
135
-221
71
101
-276
-182
68
-174
-256
60
-103
-358
-76
-40
-350
-146
85
-269
-338
11
-51
-262
-18
82
-248
-141
89
-203
-215
145
-49
-298
36
56
-283
-90
117
-169
-184
60
-60
-317
-56
53
-315
-105
89
-324
-276
71
-144
-306
27
-32
-391
-100
79
-330
-254
147
-32
-228
90
218
-147
-49
338
-21
-135
310
189
-80
220
384
13
37
276
-88
-250
108
-80
-449
-132
-46
-427
-319
-35
-298
-441
-135
-248
-409
-117
-295
-554
283
1714
2856
3902
4256
2902
1356
987
780
235
73
81
-281
-441
-256
-311
-543
-351
-209
-570
-416
-152
-525
-528
-166
-351
-613
-302
-138
-432
-396
-167
-414
-462
-100
-293
-487
-137
-99
-391
-249
-30
-262
-244
65
-74
-328
-29
140
-189
-14
286
-83
-163
260
203
-88
172
278
-104
7
312
88
8
278
118
-219
26
119
-260
-176
27
-249
-282
-6
-152
-398
-150
-83
-379
-222
26
-277
-395
-6
-113
-412
-78
41
-348
-239
89
-192
-294
69
-49
-321
-61
-12
-345
-166
101
-181
-330
10
-64
-370
-66
35
-283
-173
34
-285
-346
37
-102
-378
-45
13
-420
-241
55
-299
-394
-20
-166
-470
-100
-9
-449
-299
-1
-250
-250
173
74
-230
54
115
-225
-38
291
95
-79
245
286
-17
235
263
-268
-53
197
-308
-378
-62
-240
-465
-157
-57
-452
-396
-67
-342
-419
23
-314
-597
512
1699
2672
4006
4178
2807
1682
1179
622
262
304
69
-437
-299
-72
-531
-621
-222
-361
-601
-387
-321
-615
-443
-133
-524
-600
-146
-288
-591
-273
-209
-552
-342
-49
-353
-425
-26
-143
-467
-163
17
-312
-245
56
-142
-275
52
-43
-327
60
160
-228
-82
226
-29
-88
303
120
-123
203
266
-42
78
290
-18
-140
95
-58
-364
-181
-89
-302
-120
40
-297
-328
-9
-104
-334
-114
-18
-323
-262
-53
-261
-365
-70
-57
-294
-96
18
-318
-222
81
-186
-284
17
-74
-301
-52
53
-286
-199
145
-103
-308
81
38
-350
-143
-39
-303
-137
41
-302
-391
13
-128
-415
-91
-12
-346
-268
41
-247
-383
36
14
-327
-141
64
-313
-283
92
-207
-342
55
-49
-333
19
204
-198
-15
263
-71
-48
337
236
-4
305
410
14
96
332
-56
-205
112
-136
-470
-136
14
-365
-296
15
-311
-420
-53
-155
-472
-373
-66
438
1779
3472
4140
3737
3005
1846
699
581
646
63
-188
-22
-326
-465
-147
-368
-630
-261
-217
-598
-465
-204
-447
-517
-152
-216
-539
-288
-144
-506
-394
-65
-347
-422
-30
-169
-417
-68
-67
-464
-253
104
-158
-316
50
24
-236
36
165
-163
-48
289
8
-136
253
202
-118
138
363
36
83
375
106
-22
302
155
-179
65
127
-241
-133
154
-190
-328
71
-60
-396
-142
34
-239
-154
51
-200
-205
49
-97
-328
-102
11
-321
-216
73
-191
-198
40
-100
-184
-20
39
-223
-137
211
-66
-250
69
-41
-364
-89
44
-343
-174
72
-342
-264
151
-4
-280
-137
-38
-283
-174
99
-166
-272
103
-59
-417
-132
-1
-347
-206
89
-205
-358
39
104
-248
-34
193
-123
28
319
-21
-27
378
205
-82
257
453
23
-9
331
22
-258
55
-79
-415
-191
-98
-413
-288
-66
-410
-426
5
-123
-484
-276
-234
-344
568
2169
3406
4128
3904
2551
1234
797
744
225
-79
61
-307
-566
-260
-298
-618
-440
-282
-619
-538
-226
-503
-641
-271
-340
-641
-348
-206
-533
-355
-12
-416
-577
-189
-250
-491
-233
-45
-386
-340
-34
-264
-283
33
-121
-296
17
92
-224
-44
247
22
-40
221
146
-103
162
329
-13
104
373
35
-27
317
94
-206
132
139
-269
-128
38
-263
-323
-14
-130
-328
-23
-57
-386
-225
80
-219
-378
17
-101
-311
-58
-22
-287
-231
20
-168
-206
112
-41
-340
-55
160
-234
-200
128
-161
-257
29
-119
-307
-39
48
-223
-151
82
-159
-323
-34
-56
-299
-79
32
-292
-223
40
-201
-354
-55
-41
-350
-150
-11
-304
-157
37
-279
-274
205
94
-267
10
169
-183
-43
271
-10
-66
304
191
-183
21
175
-162
-133
76
-262
-405
-101
-241
-516
-269
-132
-441
-384
-62
-317
-393
-31
-328
-516
477
1800
2950
4073
4124
2676
1442
1025
570
166
130
-8
-396
-315
-69
-407
-614
-336
-324
-560
-332
-169
-561
-498
-142
-410
-533
-135
-220
-492
-221
-156
-496
-309
18
-302
-400
-36
-134
-373
-75
69
-280
-151
168
-103
-233
141
113
-191
104
313
30
51
334
147
21
356
269
-16
308
397
-45
123
352
-57
-161
208
66
-270
11
74
-318
-224
22
-281
-362
32
-115
-357
-44
-61
-374
-185
54
-234
-300
48
-75
-353
-54
40
-301
-177
122
-95
-262
35
6
-314
-60
129
-284
-232
65
-175
-248
31
-53
-296
-43
99
-225
-184
95
-165
-266
117
-56
-359
-78
42
-252
-179
19
-240
-251
55
-61
-362
-77
88
-311
-172
144
-280
-351
208
124
-246
-19
146
-132
-15
269
1
-46
364
269
33
341
310
-93
70
249
-135
-264
35
-60
-397
-178
-8
-350
-278
35
-225
-369
47
-51
-620
-344
486
1244
2645
4135
4022
2982
2331
1345
456
528
424
-128
-159
-73
-438
-525
-261
-370
-609
-335
-159
-585
-574
-116
-349
-583
-177
-251
-581
-211
-128
-552
-343
-12
-358
-459
-82
-115
-406
-224
-51
-343
-197
56
-203
-188
100
-41
-243
127
259
-77
72
282
-12
-32
371
302
-52
166
345
15
87
392
80
-81
210
61
-205
-6
101
-243
-205
110
-228
-345
86
-123
-425
-26
11
-330
-199
66
-167
-361
-11
-24
-323
-90
19
-294
-217
35
-178
-289
68
-57
-394
-64
23
-330
-172
138
-202
-342
70
-79
-362
-62
3
-301
-158
74
-209
-300
-72
-119
-304
-185
-5
-257
-287
-25
-254
-352
-33
-178
-492
-163
16
-321
-233
2
-188
-311
-60
-76
-354
-99
5
-432
-237
96
-283
-291
84
-110
-305
0
161
-106
-57
213
-59
-89
311
232
-20
279
463
66
56
279
-33
-251
6
-65
-405
-158
-38
-406
-279
-71
-413
-438
-51
-175
-481
-326
-147
82
1290
2998
3890
3920
3335
2125
952
701
703
77
-201
-3
-375
-556
-131
-306
-695
-426
-289
-573
-458
-153
-460
-660
-265
-302
-668
-382
-189
-551
-460
-161
-408
-513
-113
-211
-583
-246
-79
-490
-325
22
-252
-315
20
-73
-309
-25
135
-259
-205
259
74
-88
305
203
-182
127
414
124
136
361
123
-2
281
155
-189
52
120
-290
-176
118
-179
-338
-18
-60
-396
-160
42
-292
-271
-34
-257
-322
66
-66
-415
-128
14
-333
-250
63
-162
-334
1
-55
-378
-82
25
-324
-189
100
-201
-323
102
-21
-420
-65
64
-365
-176
119
-206
-315
72
-59
-459
-151
19
-326
-225
66
-216
-352
21
-71
-338
-87
43
-264
-247
21
-221
-297
94
-51
-392
-138
46
-263
-262
70
-190
-433
-12
7
-315
-59
110
-265
-213
142
-162
-305
186
155
-203
24
217
-2
123
429
239
81
325
247
0
164
152
-262
-268
15
-245
-434
-57
-102
-455
-196
-73
-465
-211
80
-502
-496
616
1659
2732
4193
4334
2855
1756
1199
581
389
471
33
-405
-166
-129
-519
-420
-166
-471
-577
-251
-370
-608
-287
-161
-488
-378
-115
-367
-517
-205
-247
-513
-170
14
-332
-279
-8
-243
-343
73
-104
-443
-28
70
-225
-19
235
-46
-142
246
226
-53
199
430
64
91
466
184
59
490
395
55
336
429
25
129
341
-79
-167
218
46
-261
-5
137
-206
-235
68
-122
-246
68
-35
-239
45
25
-313
-143
114
-136
-214
182
77
-250
16
53
-204
-35
115
-166
-186
120
-43
-311
-75
72
-163
-152
31
-136
-266
21
3
-309
-67
25
-362
-221
87
-180
-266
67
-72
-336
-49
58
-286
-198
95
-162
-292
5
-91
-362
-76
39
-334
-246
26
-149
-202
49
-44
-285
-26
89
-325
-190
193
-135
-242
155
115
-219
32
315
10
123
387
167
110
295
188
-90
118
218
-247
-266
66
-226
-393
28
-58
-411
-166
-32
-321
-246
-46
-386
-288
987
2257
3306
4420
4058
2350
1390
1087
604
325
285
-5
-381
-285
-142
-524
-469
-93
-373
-551
-147
-190
-629
-400
-153
-480
-438
-72
-348
-480
-79
-204
-442
-265
-112
-279
-286
-8
-133
-302
-9
8
-283
-30
147
-140
-43
252
53
-71
302
269
-58
230
487
99
78
435
277
151
375
309
55
269
343
-55
3
264
-8
-259
4
21
-312
-110
76
-315
-244
61
-227
-270
79
-32
-329
-44
93
-338
-197
89
-294
-224
220
-71
-356
-47
72
-212
-152
103
-71
-189
83
92
-222
-27
118
-266
-168
206
-63
-261
120
46
-332
-55
119
-285
-218
88
-162
-292
21
-104
-344
-39
-42
-359
-203
55
-215
-372
10
-41
-383
-77
77
-332
-239
137
-194
-378
68
-50
-387
-56
191
-147
-138
222
-37
-270
115
232
3
192
368
61
75
385
76
-191
152
25
-344
-119
-54
-407
-331
-18
-310
-468
-99
-274
-537
-158
-192
-513
277
1677
2808
3895
4162
2965
1608
1013
713
323
101
73
-247
-451
-208
-296
-627
-347
-159
-636
-583
-173
-392
-582
-264
-282
-618
-415
-247
-483
-411
-166
-337
-487
-210
-193
-486
-261
-26
-392
-317
25
-243
-345
0
-39
-337
-94
153
-140
-56
274
9
-110
270
269
-22
157
325
-8
61
448
144
-55
315
227
-107
137
192
-239
-158
113
-166
-321
7
-58
-403
-210
-102
-320
-189
-3
-222
-288
47
-147
-499
-177
8
-262
-187
35
-219
-314
5
-40
-307
-101
113
-186
-234
83
-92
-248
-6
-42
-213
-38
89
-204
-193
44
-167
-312
-12
-66
-385
-129
45
-266
-263
72
-147
-435
-71
-42
-359
-142
29
-317
-291
83
-164
-357
-19
-68
-376
-125
35
-348
-266
44
-219
-365
-28
-15
-316
-53
215
-170
-176
185
-27
-66
376
311
6
238
397
6
16
242
-84
-310
-123
-78
-381
-242
-9
-348
-314
-72
-327
-445
-62
-100
-555
-309
485
1368
2778
4180
4120
3061
2260
1291
389
496
460
-195
-321
-77
-317
-573
-229
-259
-686
-419
-198
-574
-523
-186
-412
-604
-290
-325
-615
-358
-168
-514
-464
-100
-324
-483
-190
-201
-461
-308
-82
-299
-277
35
-153
-354
5
39
-226
56
218
-125
-86
308
156
-49
321
342
-12
205
392
140
200
378
144
-40
213
184
-167
-43
172
-198
-346
51
-134
-425
25
-3
-465
-194
-1
-318
-220
49
-191
-276
42
-80
-362
-111
-12
-329
-235
42
-249
-385
59
15
-294
-36
27
-245
-225
-27
-147
-297
-35
-29
-359
-175
96
-239
-262
43
-188
-333
14
-19
-339
-141
26
-273
-235
88
-159
-435
-79
-44
-449
-183
109
-295
-324
58
-142
-394
-93
13
-254
-240
-26
-301
-382
-13
-167
-411
-146
57
-269
-211
144
-162
-226
157
62
-51
302
273
-56
165
319
-78
-100
132
-159
-369
-130
-171
-472
-257
-48
-431
-444
-98
-297
-411
-93
-323
-619
318
1771
2816
3963
4402
3196
1927
1311
739
317
260
160
-284
-378
-103
-321
-631
-389
-300
-567
-431
-184
-539
-537
-73
-345
-611
-172
-121
-557
-306
-10
-416
-410
-32
-258
-444
-48
-73
-422
-145
77
-224
-231
72
-14
-146
184
178
-89
147
341
88
89
385
227
43
373
414
40
281
515
88
112
433
189
-30
200
133
-168
-4
96
-175
-174
52
-97
-264
2
8
-342
-105
87
-277
-265
16
-124
-320
-40
-31
-366
-132
120
-218
-206
147
-139
-401
28
71
-308
-104
130
-154
-162
147
-54
-243
96
3
-280
1
141
-192
-202
118
-119
-321
72
28
-318
-105
51
-283
-241
122
-89
-348
-40
31
-276
-84
148
-210
-255
145
-103
-417
11
46
-319
-120
75
-280
-365
43
-41
-281
121
211
-140
14
222
-67
-52
415
280
38
417
351
-12
178
246
-125
-157
91
-170
-328
-17
-106
-351
-97
51
-232
-201
79
-168
-500
111
1081
2029
3646
4619
3674
2446
1804
901
395
602
364
-231
-135
-20
-461
-380
-104
-353
-475
-161
-153
-496
-282
-38
-444
-480
-113
-292
-488
-174
-135
-401
-286
-119
-300
-283
49
-153
-402
0
11
-290
-22
181
-126
-93
229
48
-112
171
228
-45
87
370
92
58
482
204
-123
362
453
68
210
404
119
94
350
78
-175
74
37
-249
-46
116
-210
-262
36
-71
-322
-2
74
-356
-176
104
-220
-252
90
-49
-261
-2
48
-213
-130
67
-142
-167
178
-74
-411
43
113
-309
-129
64
-201
-173
107
-99
-321
31
38
-407
-214
120
-240
-301
120
-95
-341
-35
-10
-311
-164
70
-249
-337
74
-109
-411
-28
-3
-359
-191
42
-219
-278
6
-130
-351
-51
25
-257
-36
163
-177
-116
236
-14
-172
302
372
15
261
495
46
-43
293
22
-303
21
0
-424
-240
-3
-246
-321
-89
-148
-348
-69
-21
-531
-334
684
1670
3051
4429
4109
2738
1886
1138
493
494
396
-152
-318
-74
-299
-531
-204
-188
-519
-358
-191
-511
-479
-179
-361
-498
-195
-132
-513
-397
-95
-420
-366
-13
-188
-376
-144
-76
-361
-159
80
-150
-203
44
22
-143
129
179
-107
114
331
81
116
379
219
33
393
449
85
308
503
165
152
492
316
-32
266
277
-184
-16
217
-125
-189
52
-149
-288
33
25
-316
-114
152
-181
-231
85
-117
-257
79
25
-260
15
181
-294
-264
192
-36
-261
112
102
-267
-55
151
-185
-161
139
-48
-210
12
47
-245
-116
120
-188
-170
123
-140
-317
57
52
-319
-170
41
-218
-227
28
-152
-356
-36
40
-341
-208
64
-276
-322
64
-158
-362
19
19
-286
-34
229
-116
-170
273
157
-75
326
382
54
175
299
-31
-101
186
-136
-437
-100
-98
-398
-237
-70
-438
-418
-35
-296
-429
-135
-308
-377
707
2172
3274
4152
3982
2565
1336
958
682
188
75
71
-299
-388
-141
-304
-582
-351
-224
-556
-475
-189
-431
-460
-144
-308
-557
-208
-94
-465
-277
-25
-316
-341
-70
-217
-401
-94
-24
-291
-139
95
-141
-121
130
-83
-140
192
181
-61
171
400
133
103
407
290
54
376
452
91
300
571
183
121
460
148
-149
150
167
-127
14
104
-289
-176
163
-134
-366
-36
23
-335
-209
34
-253
-323
19
-113
-366
-86
-61
-373
-208
21
-240
-226
59
-146
-283
32
36
-261
-63
129
-187
-150
158
-99
-321
18
59
-284
-137
112
-197
-250
89
-69
-291
6
0
-345
-120
115
-227
-298
117
-24
-366
-56
17
-333
-190
52
-253
-300
-43
-208
-304
22
52
-217
1
146
-170
-208
144
65
-203
181
339
9
97
275
-56
-187
127
-66
-429
-100
-9
-483
-325
-38
-399
-379
-80
-312
-468
-163
-321
-664
145
1456
2499
3733
4296
3289
2000
1312
715
296
271
95
-350
-444
-219
-379
-668
-440
-400
-775
-550
-239
-638
-608
-163
-443
-699
-308
-292
-629
-423
-203
-511
-569
-176
-300
-537
-169
-117
-449
-303
-104
-417
-386
56
-96
-346
26
86
-264
-17
266
-19
-31
289
189
-38
191
277
15
227
407
54
34
255
81
-85
108
84
-260
-123
121
-234
-345
-45
-128
-384
-125
8
-382
-177
-16
-420
-248
73
-193
-386
-67
-25
-404
-235
33
-274
-333
-44
-194
-407
-102
24
-306
-184
184
-229
-458
8
-69
-331
-67
-5
-345
-171
57
-330
-350
-11
-205
-479
-152
-54
-360
-198
18
-325
-455
-44
-133
-511
-183
-37
-421
-244
1
-272
-274
-32
-215
-404
-141
-163
-456
-178
85
-246
-331
24
-74
-270
56
80
-212
55
264
-54
72
419
157
-137
78
68
-266
-190
-22
-351
-421
-54
-314
-530
-200
-267
-546
-322
2
-375
-646
38
778
1644
3379
4418
3634
2691
1986
796
403
680
149
-397
-187
-206
-645
-473
-275
-641
-582
-257
-436
-658
-383
-328
-684
-467
-181
-513
-528
-211
-383
-566
-303
-261
-540
-381
-172
-443
-375
-62
-307
-467
-119
-64
-313
-170
98
-146
-250
180
144
-193
165
343
-198
-47
393
34
-30
408
243
-101
185
293
-57
66
257
-142
-220
83
-165
-366
-59
-25
-344
-304
-37
-270
-360
10
-122
-434
-73
33
-403
-143
78
-380
-367
-46
-211
-368
-33
-2
-371
-151
69
-369
-340
121
-27
-261
35
47
-332
-141
108
-220
-228
110
-72
-332
-57
11
-372
-205
124
-228
-303
98
-65
-340
-22
10
-341
-204
15
-232
-261
23
-118
-326
-93
30
-267
-234
60
-180
-261
78
-72
-357
-19
120
-202
-7
294
-42
-153
256
160
-90
273
416
147
220
409
143
-100
175
49
-334
-86
40
-335
-208
84
-275
-395
-17
-122
-362
-84
-202
-407
545
1933
2973
4081
4375
3031
1710
1211
810
404
221
115
-267
-353
-123
-332
-519
-230
-254
-591
-418
-189
-452
-461
-117
-290
-498
-151
-179
-549
-296
-54
-394
-397
8
-156
-466
-110
-13
-368
-135
98
-229
-216
112
-9
-184
102
204
-68
39
352
102
4
415
207
42
420
286
2
233
468
151
98
462
201
-88
202
182
-256
-128
175
-136
-264
67
-31
-313
-3
48
-329
-164
58
-223
-268
83
-83
-328
32
65
-294
-186
17
-195
-215
80
17
-237
-9
121
-200
-35
220
-178
-206
147
-56
-252
34
62
-290
-116
169
-176
-279
77
-72
-384
-60
91
-255
-136
143
-178
-279
40
-158
-328
17
-14
-334
-153
72
-193
-184
75
-124
-251
72
19
-314
-42
270
35
-45
253
200
-24
251
400
75
208
482
111
-7
322
147
-225
-15
94
-286
-207
46
-265
-329
66
-185
-442
143
95
-509
-155
769
1612
3021
4509
4254
2842
1957
1218
519
537
428
-247
-329
21
-193
-412
-178
-200
-466
-287
-123
-446
-423
-21
-179
-447
-153
-133
-410
-172
-38
-337
-292
56
-113
-393
-18
47
-342
-130
144
-161
-130
176
-39
-133
219
253
-74
141
382
-17
77
522
289
45
426
466
96
316
526
196
225
499
267
53
221
230
-58
21
183
-162
-181
125
-47
-275
-53
-4
-308
-150
80
-233
-258
88
-33
-257
14
39
-299
-108
41
-197
-54
206
-13
-161
192
146
-256
-48
190
-69
-84
204
23
-249
59
140
-212
-82
176
-131
-152
159
-41
-258
5
88
-212
-148
90
-159
-208
150
-45
-298
60
18
-332
-70
66
-286
-263
81
-68
-264
76
96
-209
12
288
-21
-124
307
210
-13
441
457
-3
129
298
-72
-127
162
-112
-451
-107
10
-351
-211
-24
-330
-286
47
-129
-366
-253
-122
275
1615
3244
4039
3928
3089
1832
819
677
610
31
-20
56
-392
-433
-145
-333
-540
-212
-225
-620
-387
-169
-452
-468
-204
-321
-503
-229
-197
-508
-291
-57
-373
-311
-60
-316
-407
-84
-73
-307
-167
23
-184
-204
77
-46
-211
112
145
-160
88
335
-11
-44
320
131
-58
332
379
36
174
423
109
-30
242
61
-179
103
97
-263
-147
35
-272
-283
48
-209
-451
-63
-27
-395
-179
46
-355
-382
65
-132
-360
-31
-91
-395
-213
-10
-288
-250
129
-103
-388
40
110
-391
-132
170
-260
-244
70
-146
-310
-39
-3
-283
-169
35
-273
-314
59
-128
-395
-39
17
-384
-223
83
-235
-367
-41
-167
-348
-84
-78
-306
-142
17
-276
-280
15
-164
-408
-103
42
-218
-6
234
-141
-169
236
89
-89
259
302
0
174
370
-59
-172
139
-135
-378
-79
-79
-426
-283
-52
-388
-382
-65
-294
-419
-156
-355
-357
799
2172
3178
4026
3940
2726
1586
1057
685
271
147
43
-411
-423
-111
-393
-613
-285
-304
-651
-436
-167
-481
-528
-174
-324
-596
-296
-234
-538
-327
-140
-480
-477
-118
-310
-521
-162
-83
-452
-338
-43
-318
-302
85
-128
-306
98
172
-191
-15
334
-13
-36
375
81
-120
254
299
82
309
448
12
17
323
27
-169
114
57
-282
-101
80
-312
-316
27
-156
-357
-84
-103
-448
-181
19
-390
-299
11
-266
-384
-96
-135
-370
-206
-55
-318
-295
59
-207
-444
-47
-85
-389
-170
35
-272
-330
-2
-228
-434
-57
-56
-357
-175
40
-305
-419
-1
-205
-504
-104
-128
-419
-164
-39
-347
-329
-40
-275
-527
-172
-156
-476
-230
-71
-384
-339
-115
-305
-436
-128
-141
-482
-314
-93
-296
-260
42
-86
-258
12
109
-156
92
341
-2
64
374
39
-246
117
73
-370
-187
1
-407
-382
-61
-336
-511
-162
-171
-546
-290
71
-497
-559
536
1389
2568
4188
4244
2902
2106
1404
476
377
438
-112
-487
-217
-223
-612
-416
-251
-667
-559
-213
-505
-628
-259
-309
-684
-486
-230
-572
-573
-204
-399
-582
-233
-217
-565
-326
-138
-495
-396
-77
-249
-378
-49
-30
-366
-100
152
-253
-153
287
33
-112
270
264
-41
209
410
63
97
415
179
23
354
259
-89
74
239
-61
-159
136
-82
-376
-1
20
-387
-168
52
-302
-244
32
-194
-355
-49
-97
-434
-146
29
-383
-352
62
-144
-391
-22
-41
-376
-79
66
-343
-225
135
-152
-347
-13
-27
-398
-220
17
-299
-289
19
-209
-395
-50
-70
-437
-202
-1
-355
-278
22
-273
-336
-7
-183
-432
-185
-52
-320
-347
-117
-217
-348
-79
-52
-422
-296
-68
-381
-303
-17
-327
-464
-136
-174
-458
-229
-32
-322
-240
47
-116
-118
95
2
-207
56
444
110
-18
307
63
-173
85
-66
-463
-232
-27
-341
-335
-28
-307
-587
-158
-127
-438
-205
-262
-467
295
1725
2924
3886
4183
3085
1758
1106
723
282
86
105
-303
-545
-256
-283
-667
-503
-207
-604
-647
-254
-516
-644
-212
-282
-632
-416
-228
-522
-475
-118
-368
-546
-148
-222
-521
-295
-60
-320
-346
-2
-259
-406
69
-8
-350
4
180
-198
-52
267
23
-111
237
248
-87
180
395
37
90
441
172
-62
324
233
-210
109
237
-287
-215
66
-192
-289
2
-50
-390
-151
26
-350
-225
54
-313
-414
52
-37
-416
-135
50
-339
-213
172
-170
-336
55
10
-354
-115
110
-230
-157
109
-153
-265
71
27
-282
-67
42
-222
-66
112
-220
-277
50
-74
-305
-67
-13
-314
-223
80
-175
-337
52
-78
-440
-84
86
-338
-243
111
-160
-284
85
-10
-310
-100
1
-288
-257
44
-174
-317
101
-1
-355
-17
164
-195
-34
249
-66
-73
304
214
-5
295
425
16
44
299
-31
-215
58
-108
-426
-112
-28
-428
-284
76
-197
-366
-44
-132
-519
-360
248
1020
2485
4106
4287
3269
2317
1387
578
603
583
-115
-250
16
-325
-525
-198
-270
-639
-361
-135
-555
-537
-234
-471
-480
-119
-285
-579
-248
-122
-506
-383
-102
-353
-476
-109
-101
-419
-205
-30
-325
-233
-4
-214
-198
134
57
-218
69
305
-33
18
376
123
-8
380
326
44
257
444
172
155
424
197
43
412
223
-247
95
236
-218
-124
175
-175
-332
154
45
-414
-130
54
-257
-173
64
-153
-300
74
20
-361
-79
37
-266
-110
166
-147
-282
100
-12
-329
39
155
-372
-190
190
-169
-273
68
-67
-286
5
71
-245
-177
81
-217
-304
98
-116
-389
-55
3
-305
-216
40
-231
-401
4
-82
-410
-127
12
-312
-211
92
-228
-311
18
-99
-286
-49
90
-271
-256
133
-111
-244
152
76
-216
84
267
-61
77
492
158
-39
297
118
-188
-8
61
-313
-235
68
-298
-382
11
-136
-422
-119
30
-343
-390
-128
213
1212
2927
4156
4103
3387
2306
1013
623
801
210
-189
102
-92
-478
-273
-146
-495
-431
-142
-460
-582
-214
-312
-576
-270
-132
-491
-387
-97
-427
-507
-82
-216
-485
-176
-83
-445
-293
23
-304
-384
32
-63
-373
-51
105
-285
-100
237
-35
-84
260
174
-110
234
365
-101
74
465
181
68
417
327
-64
161
321
-112
-71
214
-80
-253
7
-81
-388
-139
35
-326
-273
11
-246
-353
6
-118
-362
-54
-32
-332
-114
140
-133
-196
99
-51
-305
0
97
-221
-121
110
-174
-221
149
14
-282
-41
88
-212
-135
128
-183
-268
165
78
-233
23
134
-216
-129
61
-207
-254
26
-70
-333
-73
57
-295
-183
105
-183
-309
36
-38
-313
-29
62
-234
-8
304
2
-123
225
193
-20
239
392
178
213
388
83
-69
283
45
-376
-81
46
-297
-202
37
-221
-293
37
-121
-414
-65
-106
-526
175
1484
2525
3731
4366
3336
1913
1320
885
378
222
126
-313
-432
-103
-241
-532
-270
-212
-581
-417
-153
-481
-548
-215
-317
-526
-271
-238
-516
-334
-119
-424
-495
-119
-230
-502
-187
-63
-370
-292
-32
-217
-259
97
-15
-255
33
123
-152
12
253
-49
-57
345
212
-83
216
372
16
109
424
122
-44
324
239
-183
41
208
-324
-258
105
-289
-375
-24
-195
-426
-137
-95
-426
-293
-79
-380
-426
-60
-208
-446
-122
-137
-460
-228
-60
-278
-326
-105
-125
-381
-137
19
-312
-222
14
-249
-337
-16
-123
-408
-107
-15
-356
-222
7
-300
-369
3
-138
-426
-157
-90
-385
-284
-60
-292
-443
-102
-150
-423
-120
-103
-430
-251
-43
-324
-357
-6
-168
-428
-158
-46
-392
-343
5
-242
-297
186
-9
-342
18
120
-142
-23
278
142
16
289
110
-208
52
12
-380
-223
-49
-429
-429
-77
-302
-527
-266
-181
-467
-302
-60
-603
-495
780
1728
2723
4179
4081
2618
1783
1144
347
199
288
-203
-603
-349
-304
-691
-596
-337
-606
-673
-359
-490
-749
-495
-439
-682
-586
-429
-625
-652
-354
-508
-770
-427
-325
-660
-509
-242
-521
-592
-178
-323
-593
-198
-105
-515
-325
-5
-270
-235
126
21
-263
33
193
-182
9
322
-20
-88
314
192
-77
174
183
-201
-96
142
-191
-277
53
-150
-425
-112
-58
-382
-280
-32
-289
-384
7
-213
-534
-108
4
-392
-308
-46
-329
-372
12
-198
-494
-120
-24
-430
-248
37
-329
-345
-2
-210
-422
-47
-2
-376
-216
46
-208
-314
-15
-162
-479
-144
-40
-394
-257
-83
-326
-375
-62
-154
-494
-168
-63
-485
-324
-36
-335
-420
-52
-211
-493
-164
-168
-496
-243
4
-327
-371
-47
-224
-381
-25
-28
-351
-106
210
-109
-211
197
93
-115
242
348
107
179
349
6
-149
241
-17
-397
-112
-102
-431
-245
-18
-354
-358
15
-207
-444
-117
-282
-446
616
2025
3020
4046
4294
2934
1667
1200
669
267
211
84
-325
-441
-193
-431
-650
-271
-251
-608
-467
-329
-610
-555
-182
-367
-654
-276
-190
-576
-454
-125
-405
-512
-75
-202
-457
-197
-181
-466
-272
21
-272
-340
33
-61
-261
41
93
-212
-38
259
15
-56
246
54
-100
293
284
-48
158
467
139
-27
292
108
-183
88
66
-334
-150
122
-315
-377
-47
-309
-462
-111
-68
-380
-248
-67
-391
-375
-61
-273
-462
-131
-98
-469
-303
-14
-379
-440
-25
-231
-477
-170
-174
-415
-193
-12
-363
-464
-43
-134
-451
-104
-64
-490
-226
19
-362
-395
-66
-169
-443
-160
-157
-591
-303
-9
-339
-339
-38
-265
-472
-109
-114
-457
-205
-40
-380
-365
-49
-212
-469
-138
-81
-420
-224
1
-338
-374
-8
-207
-423
-80
-80
-371
-89
147
-162
-154
136
66
-138
120
298
34
175
297
-74
-103
190
-92
-433
-77
-74
-494
-243
-22
-405
-417
-75
-276
-468
-51
-186
-700
51
1409
2417
3718
4429
3297
1898
1353
817
301
268
179
-309
-409
-189
-466
-639
-296
-312
-655
-504
-264
-561
-597
-203
-373
-656
-272
-265
-632
-305
-73
-462
-422
-39
-259
-454
-138
-148
-436
-203
66
-210
-277
19
-99
-262
123
125
-201
39
251
-72
-63
334
166
-25
253
309
98
302
486
71
75
440
152
-91
182
86
-255
-41
102
-325
-328
9
-201
-369
-61
-59
-399
-227
26
-308
-313
73
-147
-390
-68
-93
-394
-111
78
-317
-275
75
-160
-352
22
35
-329
-64
146
-248
-254
79
-113
-345
28
66
-359
-178
37
-278
-253
-1
-203
-324
-28
-7
-329
-178
95
-236
-223
151
-149
-312
104
-3
-338
1
111
-278
-137
107
-182
-345
10
8
-371
-129
145
-183
-157
230
14
-199
160
210
-114
134
444
129
46
318
96
-151
153
65
-342
-159
-25
-363
-336
-43
-250
-440
-114
-110
-450
-207
-108
-504
108
1593
2732
3842
4530
3384
1768
1227
916
333
37
126
-202
-480
-154
-214
-585
-306
-152
-562
-472
-176
-400
-474
-198
-287
-531
-302
-152
-498
-443
-85
-313
-480
-123
-126
-438
-199
-9
-354
-269
121
-161
-337
105
88
-185
85
265
-11
-23
278
145
-19
290
327
34
229
449
74
82
476
262
11
293
248
-120
35
160
-207
-205
95
-174
-447
-80
-101
-429
-202
-129
-399
-303
-57
-288
-472
-134
-97
-410
-178
-23
-353
-240
53
-166
-316
-10
-42
-368
-147
56
-269
-229
100
-164
-341
39
-7
-322
-115
36
-261
-288
12
-161
-432
-72
-7
-337
-47
94
-286
-191
92
-205
-368
-12
-71
-394
-121
58
-377
-281
86
-249
-395
4
32
-273
1
223
-166
-102
240
56
-78
292
313
-85
97
252
-160
-120
95
-269
-432
-96
-190
-487
-237
-103
-481
-458
-115
-357
-470
-155
-382
-362
912
2357
3311
4050
3762
2286
1123
789
559
143
46
-3
-439
-447
-154
-460
-660
-280
-304
-644
-398
-206
-534
-510
-230
-462
-640
-206
-240
-652
-382
-184
-446
-402
-107
-327
-504
-105
-90
-373
-94
88
-281
-187
131
-53
-94
291
234
-136
194
372
-71
73
442
187
77
366
286
27
233
362
70
171
388
52
-125
154
82
-247
-47
87
-281
-285
-4
-168
-315
-21
-97
-417
-108
78
-338
-252
138
-182
-322
59
-88
-334
-8
65
-277
-190
171
-69
-292
157
68
-298
-28
95
-196
-126
188
-69
-260
111
34
-346
-96
115
-206
-180
93
-153
-263
39
-26
-277
-74
104
-322
-273
171
-191
-361
66
-64
-373
-44
60
-325
-228
91
-139
-213
145
-12
-218
131
214
-91
111
472
137
17
472
352
-22
238
296
-142
-122
105
-186
-313
8
-79
-331
-202
-174
-344
-263
28
-197
-585
-257
235
996
2612
4022
4047
3264
2474
1271
468
681
381
-235
-117
-66
-460
-436
-191
-437
-577
-332
-393
-607
-349
-233
-590
-542
-225
-468
-610
-269
-349
-619
-333
-197
-578
-411
-43
-390
-501
-115
-244
-445
-72
43
-237
-163
123
-3
-200
118
162
-144
150
361
20
103
427
220
125
414
334
145
329
356
45
85
310
45
-140
186
23
-301
10
68
-265
-179
76
-168
-249
114
-19
-373
-94
41
-379
-296
35
-218
-319
41
-116
-447
-86
40
-339
-237
71
-179
-305
53
-57
-302
-38
35
-267
-160
121
-140
-282
70
-47
-368
-75
42
-282
-244
-27
-252
-341
-23
-122
-383
-100
-31
-365
-236
-13
-303
-407
-50
-126
-397
-115
-80
-472
-274
81
-162
-363
-19
18
-316
-41
94
-309
-119
293
-9
-148
372
287
-223
70
218
-242
-190
29
-309
-437
-145
-278
-494
-188
-112
-501
-458
-158
-340
-499
-324
-191
424
1904
3386
4022
3736
2978
1722
666
712
506
-172
-159
-176
-552
-487
-261
-535
-695
-292
-479
-825
-416
-255
-559
-488
-290
-615
-665
-202
-282
-642
-284
-139
-545
-376
-114
-409
-444
-83
-201
-474
-183
-51
-333
-168
76
-149
-201
163
65
-214
212
372
-48
55
373
145
92
450
284
16
320
419
75
102
356
53
-74
281
68
-292
28
133
-254
-111
165
-181
-304
60
-62
-360
-11
85
-334
-194
20
-250
-204
113
-116
-439
-113
-23
-384
-190
38
-258
-225
53
-125
-322
-58
32
-322
-261
33
-207
-329
41
-120
-481
-109
-26
-434
-205
83
-272
-328
-23
-176
-366
-104
-118
-456
-269
-9
-331
-397
-28
-143
-417
-163
-76
-411
-282
26
-241
-347
-45
-154
-352
-52
77
-228
-98
173
-81
-77
283
198
39
311
356
-29
-19
162
-211
-343
-31
-223
-447
-132
-81
-406
-291
-54
-368
-438
-6
-271
-681
173
1329
2285
3750
4470
3337
2107
1540
729
290
398
167
-324
-319
-136
-485
-603
-220
-375
-680
-353
-283
-624
-473
-200
-456
-534
-199
-311
-520
-234
-121
-431
-320
-24
-274
-369
-49
-133
-401
-118
-6
-333
-142
134
-150
-160
210
95
-160
161
281
-17
192
440
126
72
465
338
41
397
523
147
219
408
58
-70
232
98
-214
18
25
-391
-217
61
-199
-326
-8
-55
-362
-94
4
-345
-229
13
-213
-278
21
-133
-398
-49
52
-325
-163
81
-269
-263
73
-45
-282
-75
58
-287
-177
117
-217
-231
140
-101
-366
-34
39
-282
-142
99
-198
-269
56
-108
-348
-17
69
-322
-157
113
-266
-299
65
-95
-366
-49
72
-315
-169
85
-217
-244
72
-24
-196
92
196
-113
-32
284
99
15
421
399
55
289
345
-116
35
245
-192
-247
71
-137
-342
-55
-76
-402
-205
64
-225
-280
10
-349
-339
963
2280
3359
4353
4068
2508
1396
1015
618
254
198
31
-368
-301
-99
-388
-486
-223
-350
-539
-270
-194
-502
-353
-129
-424
-456
-138
-335
-543
-145
-193
-583
-302
-62
-441
-398
0
-202
-392
-111
-18
-239
-93
139
-157
-165
225
79
-136
188
239
-102
97
389
121
68
380
228
14
354
350
-21
144
385
21
-111
219
-32
-309
2
-14
-303
-155
13
-316
-363
-4
-220
-438
-82
-45
-377
-215
57
-267
-344
26
-124
-363
-69
-5
-269
-112
62
-281
-272
124
-54
-298
7
-5
-377
-137
99
-268
-223
171
-112
-381
12
30
-402
-172
157
-262
-280
135
-103
-309
-4
45
-261
-145
65
-224
-263
78
-133
-419
-6
38
-384
-193
70
-221
-184
202
-24
-255
76
182
-48
57
327
76
12
324
60
-184
60
-31
-384
-274
-32
-290
-400
-80
-276
-478
-38
-111
-513
-225
-73
-478
-88
1259
2431
3507
4289
3521
1887
1141
940
400
77
186
-203
-536
-121
-119
-592
-409
-189
-547
-520
-173
-364
-608
-273
-229
-616
-360
-37
-404
-474
-132
-301
-525
-151
-65
-444
-254
10
-306
-275
46
-142
-322
10
90
-246
-10
287
-115
-82
393
128
-169
251
337
-18
167
423
216
171
398
250
17
244
254
-112
-16
214
-192
-279
135
-167
-397
-9
-65
-397
-208
47
-258
-320
40
-101
-380
-90
23
-303
-159
54
-235
-197
145
-126
-314
107
72
-231
-32
47
-232
-125
169
-72
-295
-24
-2
-302
-78
153
-233
-226
93
-210
-371
-7
-29
-315
-151
23
-303
-307
-5
-233
-441
-104
-40
-344
-163
91
-294
-432
-19
-144
-417
-83
-56
-355
-110
116
-188
-206
154
-43
-255
205
226
-172
88
389
97
-19
189
-8
-280
-47
-54
-432
-271
-10
-352
-416
-5
-221
-559
-156
-79
-617
-508
185
883
2134
3743
4160
3281
2561
1576
442
442
500
-119
-364
-142
-402
-657
-258
-343
-778
-502
-269
-620
-641
-268
-494
-776
-315
-246
-691
-417
-145
-539
-509
-177
-419
-562
-226
-226
-490
-315
-72
-364
-445
-70
-263
-423
-44
-98
-306
-11
163
-131
-103
266
111
-147
223
276
-72
170
418
82
33
397
151
-153
169
168
-241
-133
79
-218
-282
21
-158
-467
-109
-27
-417
-248
-34
-348
-349
15
-200
-393
-62
-128
-434
-185
35
-420
-408
53
-230
-389
45
-59
-415
-107
30
-340
-267
32
-210
-347
59
-75
-457
-165
14
-307
-303
2
-229
-397
-27
-132
-470
-211
-55
-358
-312
-18
-236
-525
-204
-73
-432
-286
-23
-393
-401
-23
-288
-444
-127
-206
-488
-181
26
-356
-228
107
-146
-245
153
139
-154
171
303
-108
-70
159
-130
-313
-48
-148
-528
-346
-161
-417
-415
-197
-303
-470
-230
-156
-548
-456
202
911
2231
3874
4211
3302
2505
1513
444
503
593
-157
-418
-135
-394
-661
-317
-331
-758
-566
-303
-614
-589
-301
-512
-690
-275
-247
-680
-441
-193
-540
-489
-119
-368
-582
-207
-183
-473
-246
-91
-363
-288
-20
-192
-306
47
58
-250
7
175
-147
-36
307
101
-57
322
263
-67
240
393
11
67
432
179
-149
114
107
-247
-57
87
-297
-261
44
-209
-382
-67
-62
-395
-218
-19
-387
-397
-54
-221
-440
-148
-133
-439
-247
-69
-358
-326
0
-254
-435
-53
-131
-446
-196
-16
-349
-297
4
-211
-286
20
-133
-434
-146
-62
-372
-286
7
-187
-369
-65
-132
-457
-220
-10
-391
-420
-49
-224
-437
-71
-122
-496
-185
-36
-370
-309
-89
-295
-411
-60
-60
-401
-188
40
-273
-237
165
33
-220
11
64
-240
34
340
-7
80
424
88
-146
178
124
-272
-128
-81
-436
-347
-63
-278
-462
-70
-124
-575
-286
63
-438
-656
280
1183
2173
3917
4401
3224
2360
1594
564
414
569
-61
-447
-136
-269
-633
-390
-224
-585
-608
-288
-495
-676
-308
-326
-675
-458
-220
-531
-553
-246
-441
-581
-217
-222
-514
-259
-68
-392
-331
-36
-272
-353
31
-67
-390
-87
179
-140
-87
251
-52
-125
290
196
-42
191
371
87
132
486
239
107
439
249
-129
109
250
-126
-145
55
-173
-324
-79
-93
-407
-237
-48
-360
-326
-5
-263
-365
10
-195
-505
-191
0
-371
-347
16
-264
-422
0
-51
-411
-124
27
-347
-236
95
-137
-328
9
4
-298
-48
66
-334
-225
107
-132
-301
-11
-13
-326
-98
88
-302
-237
97
-157
-303
55
6
-296
-86
76
-144
-244
-41
-148
-248
95
-85
-337
38
147
-172
-67
241
53
-160
148
220
-102
155
460
139
163
410
50
-171
162
49
-366
-131
59
-339
-300
53
-250
-379
18
-146
-444
-144
-71
-360
187
1684
2982
3963
4343
3284
1803
1143
882
438
239
212
-211
-416
-119
-148
-521
-382
-152
-489
-493
-132
-325
-517
-181
-192
-579
-281
-3
-404
-371
3
-233
-427
-73
-72
-326
-86
52
-356
-261
210
-28
-232
105
69
-216
74
299
-16
62
405
180
77
446
354
42
293
439
142
241
532
293
60
358
294
-68
145
234
-100
-69
172
-136
-342
11
-23
-267
-50
77
-187
-209
55
-88
-286
77
65
-332
-5
148
-340
-243
195
-52
-280
100
65
-206
69
147
-194
-147
152
-31
-221
99
50
-305
-20
193
-200
-159
136
-180
-315
55
-19
-294
-30
122
-254
-232
47
-231
-329
80
-24
-380
-95
-2
-376
-266
48
-143
-315
52
36
-275
31
200
-165
-94
326
161
-32
385
408
0
133
340
-31
-138
153
-197
-406
32
-20
-384
-175
4
-364
-304
77
-217
-421
-178
-267
-14
1337
2855
3750
4063
3381
1901
925
802
511
-75
-49
55
-372
-432
-146
-376
-592
-259
-285
-589
-337
-169
-485
-442
-131
-376
-528
-109
-182
-600
-231
-46
-602
-484
-7
-213
-351
-46
-106
-358
-119
64
-220
-155
110
-124
-131
232
99
-213
87
267
-97
60
406
104
-34
332
269
-3
313
450
25
37
351
45
-183
143
71
-323
-150
59
-255
-239
-14
-309
-437
-80
-110
-422
-158
-2
-347
-234
14
-222
-326
-98
-149
-365
-130
25
-285
-185
93
-191
-298
-24
-110
-330
-101
63
-265
-199
76
-238
-390
-7
-64
-398
-140
-15
-404
-355
-11
-239
-395
22
-125
-504
-112
-54
-437
-317
-47
-270
-428
-91
-130
-455
-238
-64
-401
-336
44
-206
-284
111
-83
-308
46
205
-85
6
340
68
-165
96
-31
-327
-109
-55
-476
-485
-121
-357
-560
-186
-262
-617
-383
-145
-421
-526
-351
-141
750
2379
3593
3848
3333
2316
1111
443
515
154
-306
-149
-287
-687
-494
-285
-653
-645
-320
-627
-803
-421
-418
-709
-446
-292
-752
-629
-251
-575
-743
-339
-340
-794
-545
-242
-570
-499
-233
-473
-548
-171
-237
-543
-249
-71
-467
-371
23
-217
-346
20
-77
-365
-73
94
-188
-196
48
-90
-233
112
74
-362
-106
23
-429
-306
-34
-409
-602
-247
-293
-581
-376
-253
-548
-462
-169
-443
-544
-200
-309
-635
-401
-220
-535
-480
-166
-403
-578
-168
-224
-604
-326
-149
-479
-446
-142
-320
-419
-128
-255
-520
-256
-168
-530
-384
-68
-343
-485
-179
-236
-534
-344
-207
-538
-501
-158
-424
-603
-216
-254
-537
-290
-101
-394
-414
-172
-408
-552
-185
-212
-512
-269
-117
-474
-379
-112
-367
-353
3
-82
-293
-79
11
-287
-144
228
37
-70
238
91
-237
24
68
-333
-286
-85
-382
-488
-111
-185
-502
-298
-111
-434
-420
-29
-390
-738
40
1017
1948
3514
4420
3493
2438
1800
681
238
576
174
-378
-161
-144
-556
-497
-225
-483
-679
-355
-353
-631
-363
-198
-542
-474
-180
-415
-519
-169
-224
-496
-248
-94
-433
-351
-55
-293
-399
-18
-22
-325
-30
105
-302
-161
187
-30
-106
201
133
-113
173
373
61
133
441
206
137
461
372
111
370
502
77
64
329
73
-117
173
114
-219
-18
143
-177
-183
36
-129
-211
41
-42
-308
-20
89
-295
-204
89
-132
-303
34
58
-286
-94
109
-207
-226
79
-80
-243
133
59
-286
28
164
-191
-169
172
-6
-335
1
52
-272
15
114
-264
-175
73
-154
-232
34
-59
-305
-22
83
-309
-169
127
-138
-254
87
36
-285
-37
114
-285
-176
212
-121
-308
112
107
-166
130
307
-97
-16
407
178
74
551
539
117
263
440
77
20
192
-99
-237
143
-23
-418
-58
45
-348
-216
73
-171
-237
14
-86
310
1800
3253
4010
4172
3527
2172
1077
877
701
143
70
77
-346
-300
-70
-360
-406
-108
-260
-534
-262
-95
-407
-360
-86
-326
-466
-97
-140
-489
-212
10
-348
-288
27
-211
-307
45
9
-257
-86
95
-162
-176
165
-8
-142
282
238
-96
232
388
38
191
481
199
90
489
448
149
425
547
127
217
524
161
-8
332
170
-195
71
212
-151
-99
177
-117
-276
83
27
-270
-19
111
-255
-201
113
-155
-268
123
-36
-304
34
150
-188
-152
146
-101
-307
85
40
-293
25
136
-240
-112
236
-102
-348
75
41
-291
-12
124
-250
-139
123
-174
-242
62
-23
-248
-10
113
-241
-183
147
-149
-275
167
-28
-427
-55
75
-380
-211
100
-279
-345
67
16
-256
0
79
-250
-2
368
97
-17
344
242
-154
92
228
-259
-249
16
-331
-423
-23
-153
-503
-218
-67
-440
-348
-17
-252
-549
-262
284
1105
2791
4243
4063
3054
2146
1044
417
645
284
-348
-143
-115
-534
-386
-178
-518
-577
-249
-350
-623
-363
-229
-562
-476
-226
-501
-580
-195
-272
-580
-302
-174
-554
-409
-88
-406
-508
-168
-211
-376
-170
-81
-337
-266
56
-91
-188
92
6
-200
47
178
-96
2
346
82
-64
344
276
-108
145
330
-18
28
257
-46
-229
81
3
-348
-109
26
-437
-387
3
-233
-365
-10
-133
-449
-138
-44
-426
-255
38
-276
-301
70
-158
-448
-106
-34
-386
-236
4
-286
-344
-18
-118
-365
-77
-10
-354
-236
-16
-216
-316
-38
-91
-402
-166
4
-350
-285
12
-222
-367
-58
-170
-501
-142
7
-378
-272
-14
-276
-382
-70
-158
-397
-113
6
-290
-246
25
-153
-335
10
21
-228
153
275
-43
117
315
39
-97
163
2
-367
-174
-81
-429
-340
-49
-301
-422
-148
-243
-493
-190
26
-528
-560
331
992
2230
4017
4223
2985
2067
1335
461
338
380
-159
-425
-205
-273
-516
-350
-298
-586
-534
-303
-503
-633
-300
-350
-629
-377
-235
-597
-485
-143
-463
-530
-142
-277
-537
-298
-143
-393
-315
-20
-296
-404
30
-17
-306
-29
162
-159
-91
229
-56
-149
264
180
-90
169
289
-41
85
448
155
-20
381
257
-106
140
171
-218
-162
48
-229
-388
-64
-95
-431
-226
-85
-430
-347
-96
-333
-395
-59
-161
-455
-82
-15
-480
-256
62
-244
-347
10
-66
-410
-135
7
-369
-227
75
-243
-372
-23
-80
-383
-160
-86
-415
-216
74
-252
-405
-85
-99
-388
-194
-79
-462
-354
-41
-320
-434
-73
-123
-480
-178
19
-501
-363
44
-288
-371
34
-7
-285
-56
62
-275
-149
267
14
-141
273
176
-153
100
210
-207
-153
63
-344
-473
-123
-227
-529
-226
-42
-462
-401
-64
-307
-506
-339
-265
110
1544
3121
3848
3848
3043
1710
767
688
515
-24
-32
-67
-447
-324
-147
-480
-580
-261
-332
-598
-321
-244
-600
-426
-122
-392
-521
-199
-236
-543
-321
-147
-469
-354
-47
-332
-435
-70
-167
-426
-107
33
-312
-189
128
-155
-229
184
54
-238
83
196
-79
44
278
5
-141
234
199
-44
261
289
-118
0
244
-82
-259
60
-67
-386
-58
5
-441
-344
-56
-306
-397
-17
-126
-464
-161
-25
-390
-265
47
-235
-387
-87
-127
-397
-166
18
-354
-314
36
-205
-292
79
-130
-438
-113
-21
-332
-232
23
-250
-380
-105
-86
-284
-142
9
-347
-337
15
-237
-395
-51
-119
-384
-130
-6
-340
-291
-17
-247
-400
-35
-74
-497
-238
40
-351
-336
-35
-259
-273
36
-84
-261
-41
132
-90
-46
246
59
12
288
113
-169
53
101
-290
-261
-19
-268
-402
-118
-206
-487
-208
-83
-446
-293
28
-454
-660
329
1297
2253
3819
4299
3215
2323
1602
656
386
512
90
-380
-227
-183
-528
-451
-206
-453
-560
-282
-340
-654
-426
-215
-530
-438
-130
-409
-546
-203
-325
-533
-205
-181
-512
-403
-66
-249
-506
-173
-111
-370
-97
33
-284
-150
117
-162
-226
157
73
-209
104
264
-40
21
349
168
-75
302
280
-78
244
359
-86
0
259
-111
-310
47
35
-331
-183
-1
-386
-334
25
-296
-408
-25
-246
-560
-146
-13
-436
-364
-24
-298
-438
-67
-185
-471
-156
-70
-424
-254
-27
-321
-382
-68
-147
-401
-142
-51
-370
-205
10
-331
-363
-26
-163
-399
-114
-67
-446
-307
-52
-318
-437
-158
-186
-410
-203
-73
-326
-358
-209
-342
-365
-73
-157
-425
-196
-96
-443
-301
10
-312
-424
-93
-180
-461
-136
106
-269
-225
129
-62
-153
253
167
-147
161
219
-187
-146
57
-212
-449
-168
-193
-533
-293
-133
-473
-389
-120
-416
-457
-179
-426
-463
533
1867
2954
3979
4106
2833
1685
1153
571
195
192
-19
-505
-471
-249
-563
-698
-344
-417
-722
-425
-369
-771
-610
-266
-516
-662
-304
-314
-587
-387
-312
-609
-469
-159
-416
-528
-140
-280
-589
-240
-84
-445
-341
25
-262
-381
63
-21
-282
40
190
-184
-79
350
91
-124
247
215
-64
261
389
-33
62
344
27
-160
121
68
-292
-81
116
-320
-335
82
-150
-425
-64
-85
-492
-256
-9
-361
-315
30
-212
-366
-45
-180
-419
-75
-32
-354
-206
99
-92
-319
-18
-26
-317
-28
98
-291
-218
94
-182
-320
74
-10
-326
-76
-9
-326
-180
98
-170
-293
7
-75
-323
-96
11
-304
-245
54
-155
-366
-69
-111
-429
-127
52
-312
-221
81
-211
-331
31
-92
-401
-26
168
-169
-45
187
-133
-170
284
185
-77
326
415
-22
114
353
-51
-278
10
-48
-363
-187
-77
-399
-326
-21
-279
-382
9
-55
-433
-339
63
651
2062
3763
4303
3607
2725
1690
642
635
680
-37
-235
14
-332
-538
-154
-273
-637
-390
-253
-615
-522
-152
-434
-579
-170
-279
-595
-282
-123
-482
-408
-46
-325
-498
-89
-140
-427
-130
23
-283
-201
71
-182
-259
151
-2
-238
166
245
-115
58
366
62
-8
415
335
23
298
427
84
202
426
116
-5
303
185
-151
55
105
-229
-95
177
-170
-316
76
-24
-337
-47
30
-312
-167
22
-243
-258
80
-72
-325
13
69
-344
-195
182
-130
-277
121
29
-265
-1
131
-234
-211
84
-147
-266
84
-24
-363
-87
65
-282
-193
65
-250
-348
35
-156
-458
-101
17
-373
-305
14
-261
-374
-60
-175
-451
-177
-18
-391
-308
-13
-270
-305
51
-103
-337
-48
9
-220
1
282
31
-36
283
136
-165
58
142
-241
-253
-27
-361
-522
-100
-254
-594
-210
-118
-521
-416
-103
-358
-635
-124
567
1421
3111
4334
3755
2584
1771
839
389
529
152
-361
-184
-162
-576
-509
-245
-523
-645
-281
-379
-690
-427
-223
-594
-584
-242
-461
-584
-222
-243
-572
-261
-75
-487
-362
-70
-321
-482
-171
-94
-351
-89
40
-302
-156
131
-49
-155
140
187
-88
82
287
8
82
400
159
10
301
273
43
268
375
-45
-4
254
-50
-242
-8
-32
-364
-198
25
-351
-349
-13
-264
-381
-42
-138
-365
-127
-84
-375
-268
5
-204
-310
-17
-127
-339
-34
-21
-382
-167
99
-156
-241
50
-23
-373
-82
90
-321
-214
83
-229
-382
-21
-56
-379
-135
-5
-390
-283
7
-242
-327
-55
-174
-447
-181
-43
-406
-299
-16
-296
-394
-79
-124
-300
59
174
-291
-187
247
29
-103
297
246
-113
141
277
-146
-107
135
-241
-361
12
-177
-503
-208
-80
-446
-420
-152
-365
-356
-69
-494
-600
507
1727
2844
4027
4063
2643
1424
1070
621
76
87
12
-476
-462
-212
-461
-609
-327
-382
-683
-451
-287
-646
-554
-216
-521
-685
-285
-306
-570
-309
-209
-533
-374
-151
-458
-434
-69
-180
-454
-135
-27
-383
-183
86
-204
-242
98
38
-179
48
155
-161
-37
328
103
-33
298
180
-103
171
276
-51
-4
207
-42
-194
74
-51
-419
-104
18
-393
-270
-27
-341
-452
-69
-180
-481
-213
-100
-363
-272
-22
-278
-376
20
-119
-491
-177
-5
-371
-193
141
-248
-351
61
-65
-374
-81
63
-282
-192
42
-225
-268
65
-91
-389
-109
71
-247
-212
84
-236
-380
12
-112
-359
-47
-18
-428
-263
89
-191
-329
-14
-117
-406
-26
116
-324
-81
251
-144
-178
255
168
-65
254
429
71
110
392
58
-100
189
-56
-389
-84
32
-317
-201
10
-295
-309
15
-155
-382
-69
-162
-450
555
2113
3145
3996
4065
2812
1545
1046
735
316
150
83
-277
-405
-134
-277
-607
-260
-138
-562
-421
-124
-473
-591
-156
-283
-628
-284
-135
-478
-347
-74
-362
-419
-42
-193
-454
-114
5
-357
-231
85
-181
-237
163
21
-265
112
211
-122
47
283
18
-54
340
255
-12
315
421
62
137
497
185
-28
315
162
-106
78
133
-202
-167
138
-199
-365
59
-16
-328
-73
-30
-363
-140
113
-187
-291
-1
-27
-312
-167
25
-213
-169
107
-145
-264
115
60
-281
16
220
-178
-89
205
-102
-237
134
72
-227
58
139
-221
-125
112
-169
-308
78
-18
-399
-81
43
-336
-137
144
-193
-277
73
-35
-284
-29
51
-347
-290
70
-173
-290
39
-57
-246
76
246
-147
-152
292
111
-43
417
364
-24
250
406
-28
-17
225
-100
-256
5
-133
-394
-166
-65
-396
-270
65
-225
-310
-5
-306
-306
847
1964
2948
4155
4227
2944
1848
1316
751
293
319
171
-354
-275
-49
-423
-524
-196
-325
-605
-308
-191
-548
-432
-101
-416
-605
-183
-288
-601
-254
-195
-552
-406
-105
-397
-505
-53
-127
-446
-178
-52
-388
-272
52
-179
-325
52
32
-319
1
174
-213
-45
318
18
-112
273
181
-71
213
292
-69
52
350
-42
-272
109
-10
-343
-75
-33
-326
-198
-12
-321
-380
-54
-261
-516
-183
-115
-455
-373
-119
-354
-445
-70
-209
-514
-170
-52
-422
-308
-42
-364
-466
-63
-175
-447
-103
-41
-436
-270
52
-332
-505
-54
-166
-489
-191
-116
-402
-296
-71
-287
-397
-58
-173
-508
-196
-68
-478
-365
-78
-393
-473
-70
-167
-488
-209
-110
-430
-264
-11
-289
-340
-5
-145
-402
0
207
-179
-27
380
115
-112
197
101
-324
-127
-8
-458
-439
-104
-382
-506
-212
-355
-558
-258
-187
-536
-431
-299
-433
373
1993
3233
3841
3837
2905
1495
765
662
287
-89
-2
-274
-670
-386
-353
-745
-598
-286
-585
-721
-357
-500
-808
-401
-285
-688
-536
-275
-539
-596
-161
-335
-705
-307
-143
-492
-398
-84
-321
-412
-66
-196
-445
-124
26
-283
-194
115
-71
-153
240
114
-232
130
273
-53
124
368
67
21
339
216
-7
221
221
-175
-46
172
-235
-344
-3
-89
-380
-143
-13
-406
-272
52
-264
-399
-23
-142
-482
-150
-53
-383
-195
-7
-296
-301
-19
-132
-374
-136
3
-316
-258
15
-190
-305
-8
-113
-405
-134
-30
-396
-285
-31
-321
-327
6
-163
-450
-185
-13
-398
-320
54
-269
-440
-36
-135
-471
-119
7
-385
-228
54
-263
-368
-73
-143
-305
-12
115
-189
-132
142
-26
-123
278
309
-24
205
275
-84
43
168
-190
-326
-125
-229
-419
-175
-80
-434
-378
-115
-403
-471
-75
-319
-674
132
1288
2295
3705
4396
3261
1879
1349
716
223
230
-56
-524
-477
-321
-614
-672
-345
-496
-787
-564
-473
-723
-595
-291
-549
-766
-417
-467
-716
-349
-242
-608
-467
-164
-474
-548
-137
-275
-550
-240
-159
-454
-292
-20
-298
-384
-1
-62
-348
-55
99
-238
-67
237
-48
-140
203
86
-206
120
253
-113
-33
193
-160
-273
104
-93
-429
-186
-128
-435
-327
-60
-348
-430
-41
-173
-525
-276
-103
-445
-396
-68
-389
-480
-30
-202
-479
-127
-39
-447
-306
33
-304
-401
-1
-177
-451
-115
-65
-425
-267
-1
-337
-464
-84
-172
-458
-191
-63
-382
-310
0
-256
-422
-60
-181
-507
-152
-109
-539
-278
25
-291
-356
-26
-108
-391
-60
124
-221
-139
98
-129
-92
278
139
-46
232
297
-68
-89
153
-166
-354
-57
-191
-461
-191
-73
-436
-336
-16
-328
-428
-4
-158
-604
-271
417
1148
2722
4188
3985
2926
2109
1188
503
569
415
-185
-200
-35
-424
-401
-125
-375
-524
-283
-198
-448
-390
-104
-307
-493
-192
-232
-491
-181
-64
-357
-282
-71
-240
-397
-78
-37
-327
-81
69
-237
-134
103
-145
-161
204
119
-139
149
289
-63
95
411
104
6
336
231
42
341
375
33
135
414
117
-67
297
156
-226
-4
72
-260
-196
67
-198
-294
50
-143
-422
-113
9
-319
-254
58
-245
-352
41
-124
-384
-1
59
-318
-122
131
-155
-252
94
-17
-328
-26
87
-299
-221
101
-172
-276
0
-169
-354
-134
-58
-283
-181
-3
-289
-356
35
-96
-498
-152
34
-369
-267
-15
-325
-425
-53
-87
-337
-32
86
-325
-256
83
-77
-121
191
81
-159
90
93
-219
-131
0
-277
-433
-252
-344
-510
-268
-196
-579
-471
-135
-471
-567
-125
-331
-824
-205
868
1752
3219
4209
3300
2041
1497
723
189
296
105
-374
-396
-244
-584
-661
-247
-419
-735
-454
-317
-636
-623
-306
-532
-683
-339
-390
-650
-460
-324
-601
-557
-260
-489
-631
-222
-300
-606
-283
-195
-483
-295
-110
-356
-365
-59
-143
-420
-123
65
-214
-55
162
-166
-198
188
61
-208
125
238
-95
-5
180
-100
-196
97
-52
-348
-70
60
-344
-313
-8
-310
-414
-36
-169
-428
-154
-68
-353
-265
19
-228
-395
-18
-145
-462
-93
-27
-454
-266
63
-268
-343
14
-179
-385
-52
-8
-309
-302
-103
-239
-333
-57
-172
-490
-221
-43
-404
-314
7
-328
-442
-66
-227
-485
-215
-111
-375
-314
-100
-299
-366
-88
-195
-440
-122
33
-295
-190
102
-208
-258
207
73
-152
271
362
-146
-106
212
-75
-286
-95
-219
-494
-251
-135
-462
-359
-94
-361
-545
-203
-145
-515
-397
-159
108
1371
3036
3838
3648
3021
1950
716
513
548
-103
-310
-205
-606
-753
-334
-497
-883
-568
-457
-818
-669
-421
-733
-793
-436
-513
-794
-506
-402
-778
-633
-352
-614
-695
-329
-374
-669
-381
-234
-575
-423
-158
-425
-438
-84
-181
-412
-130
-40
-307
-106
146
-97
-183
120
54
-225
43
201
-117
-30
237
-93
-239
123
-26
-365
-94
-26
-404
-305
-85
-381
-472
-155
-255
-563
-245
-69
-459
-362
-99
-386
-493
-194
-312
-522
-250
-193
-529
-398
-108
-397
-490
-156
-257
-517
-291
-199
-484
-331
-73
-415
-502
-139
-305
-564
-252
-206
-498
-311
-89
-468
-564
-172
-317
-624
-352
-230
-604
-494
-211
-566
-630
-277
-468
-677
-453
-405
-579
-425
-213
-469
-491
-252
-397
-473
-152
-65
-351
-197
-4
-387
-466
-186
-383
-726
-583
-464
-773
-727
-501
-815
-900
-583
-644
-943
-735
-509
-926
-1014
-299
416
1466
3161
3776
2879
2001
1124
45
-129
29
-591
-998
-718
-891
-1267
-985
-877
-1237
-1158
-941
-1223
-1299
-962
-1032
-1325
-1080
-884
-1316
-1275
-833
-1111
-1266
-901
-1015
-1294
-1014
-872
-1192
-1096
-783
-1041
-1152
-798
-881
-1156
-877
-710
-1069
-971
-597
-811
-898
-546
-638
-926
-557
-385
-809
-700
-352
-583
-683
-369
-530
-840
-530
-459
-888
-758
-460
-781
-884
-539
-584
-869
-678
-506
-805
-739
-432
-685
-768
-379
-538
-842
-515
-380
-681
-550
-289
-541
-662
-325
-354
-635
-389
-235
-553
-444
-157
-452
-552
-202
-276
-520
-269
-129
-456
-391
-113
-368
-420
-92
-206
-485
-205
-108
-529
-365
-15
-311
-431
-65
-171
-446
-169
-85
-439
-316
52
-199
-325
59
-64
-315
53
188
-134
-62
248
72
16
444
385
29
225
320
1
77
231
-119
-335
-10
-58
-403
-71
66
-344
-193
55
-261
-248
41
-228
-238
1000
2435
3425
4324
4009
2486
1412
1075
823
366
263
179
-243
-195
4
-348
-474
-62
-161
-484
-171
-64
-414
-305
-76
-325
-395
-44
-142
-459
-181
-45
-356
-240
5
-243
-301
16
-56
-247
15
112
-197
-86
183
-73
-149
198
147
-129
148
305
-40
73
391
121
5
410
317
-29
271
397
7
132
377
17
-134
117
-4
-293
-63
57
-317
-256
9
-290
-373
-29
-205
-482
-164
-19
-416
-346
-10
-299
-420
-69
-240
-539
-153
-47
-461
-364
-33
-230
-393
-146
-233
-521
-227
-40
-486
-413
14
-293
-473
-102
-232
-476
-149
-95
-447
-353
-33
-267
-415
-62
-161
-426
-132
15
-382
-304
98
-233
-345
112
-3
-265
47
134
-228
-85
343
105
-12
389
227
-11
283
327
-26
-57
212
-39
-279
75
-15
-344
-19
114
-243
-164
107
-69
-171
-1
57
571
2049
3582
4303
4214
3221
1867
1129
1057
803
251
299
382
-51
-20
227
-76
-133
223
97
-149
117
233
-100
-24
272
66
-94
141
184
10
194
314
11
103
430
122
0
398
340
68
352
506
140
261
583
345
251
558
489
259
580
690
286
462
846
537
342
687
674
406
624
677
307
406
593
255
125
433
284
-36
260
385
26
92
335
39
-42
331
265
-94
162
373
-1
108
434
188
29
362
311
47
329
436
142
191
471
238
68
473
408
89
373
487
81
217
548
149
88
515
380
121
351
400
58
204
486
156
53
442
370
105
355
436
64
144
550
336
167
588
521
225
526
641
367
497
776
616
519
819
686
298
554
692
340
357
538
203
47
481
395
-8
251
440
98
191
551
136
-133
546
1308
2296
3982
4887
4013
2892
2201
1269
909
1080
608
174
384
426
40
110
451
108
-71
353
288
-31
190
330
29
128
474
167
25
436
334
52
351
498
155
300
580
202
155
643
506
236
600
630
283
489
792
520
437
815
707
425
730
887
546
574
942
727
565
995
898
508
766
918
519
518
834
514
230
590
530
184
439
571
225
323
645
327
152
540
443
119
407
562
216
340
645
336
231
505
442
226
404
572
264
331
679
362
167
519
462
192
412
529
128
177
554
310
138
451
390
98
343
504
135
134
429
201
89
439
367
29
283
420
6
145
515
284
200
602
518
160
438
653
390
531
859
634
540
844
678
329
516
551
139
215
511
134
-31
344
231
-88
200
388
-17
49
441
33
-245
543
1424
2428
4102
4727
3551
2559
1916
899
675
939
449
-41
174
275
-81
-56
189
-125
-211
159
-10
-254
27
106
-165
-67
224
-11
-165
186
104
-187
128
310
-62
6
351
85
-63
289
219
-40
266
388
83
244
544
295
182
525
482
268
519
657
372
460
832
575
398
775
724
436
676
753
349
421
673
385
199
478
438
111
296
458
190
221
476
256
146
446
303
118
458
452
39
181
524
230
17
450
447
114
381
507
83
173
581
350
130
421
396
102
373
548
233
281
530
290
158
522
414
129
397
466
144
236
575
261
51
439
378
88
307
425
132
168
367
223
170
460
419
165
474
614
244
397
781
547
434
866
767
351
627
705
291
373
545
217
89
364
285
47
338
445
25
83
415
244
175
279
90
393
1702
3133
4066
4586
4124
2720
1632
1322
1080
609
502
429
22
60
267
-61
-161
257
93
-263
126
285
-137
-79
285
44
-113
256
153
-125
185
270
-99
-13
352
159
39
345
237
29
336
487
140
220
563
349
226
591
565
287
544
749
458
470
797
608
437
770
715
411
740
878
397
464
746
380
195
492
398
105
371
507
65
126
422
107
24
441
377
41
257
349
25
125
395
145
-22
334
306
17
213
286
-2
54
390
200
33
433
395
18
224
438
102
142
520
228
26
393
312
-24
228
389
25
135
454
131
8
395
204
-134
262
443
57
113
430
171
-29
339
317
-21
252
474
151
221
554
253
109
585
569
318
560
705
446
446
692
443
243
524
434
23
179
322
-74
-7
359
76
-133
225
138
-155
209
282
-216
161
1416
2425
3624
4824
4211
2734
2072
1392
741
703
667
228
-42
181
79
-237
16
157
-190
-92
170
-167
-235
158
72
-119
106
134
-119
7
319
58
-86
315
248
-31
205
355
64
142
542
239
-48
467
502
163
475
596
269
415
717
440
374
792
642
341
677
817
479
576
850
533
412
751
587
246
476
548
168
224
484
175
36
357
284
-75
157
394
-19
28
301
33
-24
294
206
-90
186
395
4
19
403
132
-12
381
209
-100
257
409
-3
82
468
209
35
360
293
64
273
352
-30
38
458
143
-47
381
248
-74
230
344
0
65
349
104
-25
339
226
-105
120
279
24
127
430
114
-82
313
320
117
370
432
177
301
601
442
305
674
615
288
560
616
240
247
375
20
-152
206
140
-175
77
195
-134
-24
252
-13
-80
207
12
-46
1003
2428
3503
4453
4282
2791
1677
1300
944
491
364
299
-82
-95
187
-105
-341
-4
-25
-344
-64
138
-260
-194
106
-157
-267
50
-7
-297
22
258
-197
-139
234
-54
-142
194
131
-69
188
272
-22
186
501
145
9
470
454
94
331
585
312
363
659
498
398
657
630
419
648
767
405
412
704
450
199
466
411
61
258
350
-67
45
382
98
-26
316
263
12
165
232
-9
38
314
131
-38
318
249
-72
214
396
89
105
409
132
-48
355
324
-9
214
415
75
80
383
196
-48
278
283
-128
165
306
-75
92
367
66
-51
253
179
-101
112
279
-57
-12
291
46
-82
233
187
-59
170
321
109
167
398
179
4
464
494
173
398
530
269
280
479
220
15
320
216
-168
48
175
-207
-181
175
-98
-273
97
1
-272
21
121
-338
-92
1077
2119
3413
4654
4049
2459
1698
1201
587
472
402
-40
-205
10
-116
-395
-191
-129
-468
-383
-3
-254
-530
-83
-145
-481
-155
-80
-392
-257
25
-303
-396
15
-99
-351
-47
89
-248
-133
196
-65
-192
160
118
-160
182
400
-25
48
448
200
82
408
311
120
357
520
212
218
592
299
68
461
389
4
194
300
-82
-46
234
-77
-245
85
-45
-332
-83
4
-302
-196
74
-150
-281
43
-6
-356
-125
72
-222
-173
109
-117
-287
64
24
-292
-67
82
-242
-197
174
-134
-352
81
21
-290
-158
-29
-195
-88
96
-248
-299
11
-153
-342
-30
73
-294
-234
83
-183
-357
-3
-56
-377
-121
90
-218
-127
245
-51
-206
127
57
-75
175
227
-44
56
362
70
-182
178
54
-419
-187
-20
-459
-401
-62
-376
-473
-67
-186
-551
-317
-125
-442
-525
-310
51
1023
2695
3958
3838
3063
2065
871
520
651
78
-337
-48
-162
-607
-437
-250
-579
-581
-297
-448
-621
-312
-295
-585
-324
-156
-502
-476
-135
-373
-612
-213
-212
-546
-267
-107
-496
-384
8
-239
-406
-6
-26
-342
-60
82
-187
-100
158
-39
-158
212
179
-123
113
274
-40
40
369
31
-79
388
175
-225
3
112
-246
-215
148
-223
-495
-27
-129
-493
-191
-119
-435
-345
-96
-304
-423
-55
-109
-392
-155
-54
-378
-244
51
-175
-319
-50
-103
-449
-166
87
-281
-254
59
-215
-342
38
-21
-403
-215
25
-340
-334
38
-230
-424
-47
-103
-444
-189
-13
-389
-283
-6
-346
-421
-28
-101
-423
-226
-74
-428
-392
-37
-196
-282
67
25
-342
-149
66
-224
-87
269
16
-83
271
112
-243
61
152
-304
-315
-86
-354
-472
-129
-286
-622
-305
-176
-556
-461
-181
-386
-600
-456
-199
388
1821
3370
3890
3451
2737
1512
450
587
459
-253
-183
-68
-544
-523
-274
-586
-724
-357
-400
-742
-468
-264
-671
-570
-244
-608
-694
-281
-361
-600
-317
-250
-621
-450
-128
-421
-459
-136
-266
-485
-214
-57
-374
-290
29
-274
-399
44
23
-231
53
163
-151
-64
263
107
-87
208
227
-65
211
419
-16
-87
214
-86
-320
35
-67
-418
-206
-53
-376
-395
-68
-272
-455
-112
-171
-481
-269
-94
-451
-383
-10
-296
-479
-116
-171
-478
-178
-33
-376
-275
-13
-255
-356
-18
-32
-366
-208
-42
-376
-281
82
-214
-440
-93
-107
-385
-167
32
-317
-320
-36
-333
-410
-57
-152
-421
-221
-75
-412
-395
-55
-271
-480
-97
-128
-522
-205
-25
-395
-254
104
-111
-298
26
13
-241
43
224
-62
-2
286
-9
-176
159
41
-330
-129
-73
-481
-335
-94
-493
-618
-187
-224
-542
-346
-209
-472
-413
-274
-553
-82
1466
2748
3583
4077
3347
1896
1087
804
393
67
66
-245
-650
-376
-238
-620
-589
-306
-539
-664
-318
-452
-743
-417
-259
-598
-554
-243
-453
-646
-305
-300
-626
-377
-184
-503
-499
-224
-388
-530
-143
-153
-469
-188
-27
-335
-190
110
-122
-249
108
90
-232
62
266
-74
3
329
145
-92
175
196
-116
93
171
-244
-185
64
-250
-433
-148
-197
-512
-310
-132
-479
-478
-188
-389
-541
-174
-231
-596
-318
-141
-513
-461
-158
-403
-562
-236
-232
-527
-314
-144
-510
-479
-147
-310
-499
-127
-154
-589
-328
-108
-436
-395
-43
-300
-506
-158
-210
-509
-253
-90
-462
-446
-144
-346
-507
-157
-167
-525
-280
-97
-492
-451
-123
-315
-468
-147
-195
-504
-217
-95
-439
-244
56
-225
-313
7
-29
-210
74
184
-101
4
209
-90
-217
26
-77
-393
-254
-127
-445
-437
-169
-441
-605
-155
-230
-640
-353
-128
-561
-720
-165
560
1626
3337
4250
3491
2558
1784
628
322
523
-65
-464
-230
-350
-703
-537
-413
-696
-571
-242
-516
-713
-345
-355
-713
-457
-240
-602
-583
-267
-403
-577
-277
-296
-630
-318
-135
-519
-437
-127
-349
-452
-97
-119
-414
-162
22
-345
-215
261
17
-234
135
172
-140
123
374
-9
45
461
166
-28
338
250
-112
85
208
-252
-245
101
-203
-390
-75
-152
-434
-244
-84
-370
-402
-92
-277
-457
-121
-194
-466
-227
-59
-361
-344
-29
-278
-476
-83
-48
-369
-185
27
-294
-314
7
-206
-350
-59
-144
-413
-129
27
-368
-319
27
-254
-437
-44
-133
-456
-110
38
-422
-351
-120
-383
-401
-95
-128
-430
-231
-72
-432
-301
-14
-304
-326
-33
-100
-262
-16
155
-166
-174
120
-52
-105
271
219
-70
125
283
-32
-96
180
-39
-321
-30
-120
-570
-292
-42
-475
-436
-55
-347
-486
-127
-173
-476
-457
-275
22
1200
3018
4001
3881
3151
1934
835
638
628
0
-301
-70
-346
-593
-261
-359
-663
-388
-216
-602
-665
-334
-438
-549
-282
-305
-555
-362
-245
-553
-454
-125
-320
-529
-207
-160
-451
-256
-105
-330
-231
-23
-227
-296
85
2
-345
9
222
-148
-85
281
61
-77
262
195
-98
101
330
65
25
305
65
-142
207
142
-237
-57
48
-308
-307
-67
-276
-414
-165
-193
-449
-302
-79
-393
-406
-31
-247
-412
-147
-164
-414
-220
-31
-365
-300
83
-195
-397
17
-85
-417
-105
8
-336
-241
115
-161
-454
-63
-45
-420
-181
27
-316
-303
1
-208
-358
-99
-202
-408
-163
-34
-323
-366
-117
-279
-463
-149
-102
-418
-154
94
-254
-175
165
-131
-354
86
124
-222
40
205
-108
-36
155
-95
-260
-43
-104
-488
-368
-229
-571
-500
-175
-448
-614
-247
-325
-625
-333
-119
-494
-694
-150
508
1497
3316
4225
3481
2487
1597
556
267
420
-83
-445
-190
-255
-631
-425
-280
-711
-610
-199
-528
-726
-283
-296
-636
-428
-248
-566
-579
-285
-370
-503
-263
-255
-526
-321
-173
-453
-359
-57
-282
-456
-81
-68
-360
-160
50
-206
-210
158
-5
-165
236
189
-205
46
306
-5
17
321
101
-66
265
180
-244
-64
70
-365
-339
28
-238
-450
-81
-152
-516
-273
-137
-491
-433
-124
-379
-545
-164
-209
-544
-341
-147
-449
-453
-62
-301
-553
-122
-161
-484
-151
-36
-411
-330
-44
-293
-468
-86
-107
-466
-274
-134
-406
-389
-92
-308
-515
-101
-175
-547
-236
-141
-514
-408
-191
-388
-475
-193
-236
-558
-307
-102
-467
-432
-27
-230
-431
-35
-52
-361
-112
70
-227
-200
156
-35
-243
46
-49
-392
-215
-81
-471
-508
-191
-401
-605
-313
-320
-608
-435
-290
-621
-583
-158
-463
-903
-256
745
1701
3270
4252
3355
2226
1659
591
69
385
25
-528
-360
-263
-617
-663
-386
-511
-732
-432
-440
-793
-486
-284
-732
-703
-354
-546
-681
-358
-428
-754
-462
-252
-548
-500
-233
-405
-557
-237
-182
-472
-241
-32
-359
-308
35
-174
-319
121
66
-267
65
236
-92
-54
239
54
-97
242
238
-95
124
273
-112
-138
135
-141
-425
-52
-42
-483
-287
-9
-347
-349
5
-272
-513
-199
-230
-485
-202
-22
-427
-431
-103
-277
-436
-102
-109
-471
-257
-55
-345
-310
28
-155
-410
-81
-108
-458
-148
71
-315
-271
58
-201
-380
-65
-84
-387
-173
79
-358
-428
-4
-228
-452
-104
-128
-451
-221
1
-350
-383
-22
-208
-431
-87
-30
-411
-203
35
-349
-300
50
-110
-227
63
38
-273
-90
215
34
-49
285
209
-110
152
208
-235
-102
134
-299
-350
-33
-308
-520
-172
-162
-514
-279
-45
-472
-450
-3
-376
-722
149
1153
2071
3685
4429
3316
2265
1699
729
252
428
62
-483
-325
-187
-575
-628
-295
-538
-735
-319
-341
-693
-431
-275
-660
-599
-269
-464
-631
-277
-229
-624
-409
-87
-552
-567
-143
-360
-486
-118
-149
-447
-186
-30
-370
-267
133
-72
-237
156
149
-161
64
262
3
37
382
205
-12
310
266
-17
250
385
16
-47
156
-112
-312
17
-28
-386
-138
7
-417
-379
-40
-212
-428
-128
-61
-392
-239
-71
-422
-383
-55
-252
-405
-113
-170
-468
-196
4
-316
-299
50
-175
-408
-50
-10
-306
-185
-28
-331
-306
42
-214
-458
-133
-84
-370
-209
6
-335
-359
22
-215
-455
-92
-97
-435
-186
23
-339
-356
-66
-249
-408
-103
-128
-369
-228
-121
-347
-314
-10
-237
-410
-74
-119
-342
-8
200
-189
-182
178
-38
-67
306
214
25
181
277
-59
-87
193
-168
-408
-127
-177
-480
-340
-136
-386
-350
-76
-335
-529
-141
-57
-578
-526
311
1133
2407
4004
4129
2975
2264
1433
432
459
476
-184
-438
-198
-336
-615
-375
-382
-710
-440
-232
-572
-550
-231
-443
-635
-320
-325
-640
-385
-154
-588
-575
-116
-335
-578
-188
-158
-474
-272
-96
-383
-352
-2
-156
-358
-34
-6
-356
-79
232
-107
-84
232
84
-105
134
223
-6
176
365
63
73
343
63
-154
125
54
-271
-103
23
-305
-279
24
-228
-376
-54
-153
-446
-247
-93
-430
-413
-61
-282
-481
-162
-108
-404
-315
-69
-305
-311
2
-221
-335
-14
-73
-346
-156
58
-272
-338
61
-86
-363
-20
16
-348
-144
24
-326
-311
33
-124
-345
-66
-63
-372
-177
73
-266
-327
19
-203
-394
-96
-67
-343
-212
39
-257
-335
-31
-218
-406
-53
-96
-454
-198
3
-331
-265
133
-28
-257
45
58
-217
83
335
0
36
492
225
-106
222
195
-212
-75
104
-261
-364
-61
-160
-393
-93
-93
-458
-252
-35
-393
-401
-89
-492
-423
906
2125
3210
4338
3888
2255
1438
1108
557
189
166
-48
-413
-303
-137
-468
-516
-207
-391
-523
-240
-262
-562
-364
-107
-461
-453
-106
-305
-513
-166
-128
-541
-279
-5
-389
-365
-59
-296
-425
-23
-24
-388
-119
131
-228
-148
263
-16
-220
201
205
-120
105
313
-9
2
383
221
-43
272
381
46
96
324
13
-88
219
-71
-341
10
11
-316
-121
-15
-354
-216
66
-196
-374
-84
8
-344
-220
60
-243
-274
34
-126
-330
-25
6
-329
-133
93
-211
-282
46
-58
-323
-15
33
-282
-147
19
-227
-323
11
-104
-345
-17
-64
-324
-49
2
-339
-223
60
-175
-390
-37
-5
-425
-260
66
-228
-298
92
-170
-428
-59
-65
-377
-203
79
-174
-223
127
-7
-170
157
115
-195
79
352
68
45
403
209
-74
219
205
-186
-65
52
-295
-321
-110
-297
-515
-178
-89
-480
-309
-111
-461
-432
-126
-480
-470
780
2109
3261
4266
3899
2316
1199
894
533
99
82
-116
-530
-415
-239
-522
-559
-265
-447
-667
-395
-363
-623
-432
-207
-462
-497
-145
-323
-546
-160
-204
-551
-296
-67
-361
-367
6
-208
-426
-14
6
-297
-118
101
-146
-159
242
86
-148
258
287
-86
209
475
83
40
411
332
97
321
379
16
147
356
-35
-87
229
-29
-325
-31
-10
-298
-146
56
-280
-358
36
-119
-314
-70
-89
-330
-159
-10
-376
-260
167
-110
-350
6
37
-309
-116
120
-173
-171
142
-36
-221
54
12
-282
-60
169
-161
-221
139
-20
-299
-14
44
-257
-168
20
-170
-193
89
-134
-299
1
-137
-395
-125
88
-235
-241
152
-58
-229
153
159
-185
-69
234
4
-36
335
145
-32
305
252
-173
-70
175
-197
-291
-2
-272
-517
-219
-195
-541
-365
-111
-410
-394
-85
-278
-607
-432
-110
351
1876
3558
3989
3569
2632
1315
493
558
432
-220
-255
-97
-492
-528
-217
-424
-661
-340
-298
-590
-390
-245
-573
-536
-239
-444
-621
-300
-259
-616
-424
-125
-503
-570
-183
-301
-537
-254
-159
-490
-304
24
-279
-325
109
-34
-248
126
105
-237
22
268
-37
-70
232
64
-50
292
250
-101
113
383
11
-90
187
16
-180
24
2
-266
-136
35
-231
-316
27
-124
-439
-89
-44
-435
-240
2
-316
-321
-15
-201
-396
-59
-36
-357
-175
-37
-296
-219
74
-91
-316
29
77
-374
-154
144
-222
-266
84
-135
-389
-54
-38
-406
-193
63
-358
-388
70
-169
-460
-86
-79
-419
-246
-32
-291
-372
-94
-199
-361
-2
73
-323
-175
144
-155
-140
270
82
-139
170
174
-92
79
245
-102
-239
57
-196
-469
-124
-147
-537
-372
-106
-421
-450
-85
-332
-585
-150
-195
-801
-395
706
1543
2946
4288
3758
2388
1682
904
223
292
251
-297
-506
-221
-367
-665
-408
-302
-661
-571
-265
-547
-587
-225
-399
-664
-382
-276
-598
-504
-237
-503
-515
-84
-338
-645
-214
-134
-468
-275
48
-338
-456
19
-118
-377
-42
87
-233
-71
195
-69
-8
296
100
-37
256
259
45
230
430
121
21
368
126
-178
178
157
-284
-151
110
-237
-341
-7
-202
-431
-75
-23
-435
-241
25
-387
-364
55
-145
-407
-136
-47
-381
-263
-8
-323
-306
67
-143
-359
0
35
-375
-253
117
-191
-287
94
-98
-318
-8
19
-395
-206
138
-210
-320
29
-116
-378
-81
-37
-336
-164
-15
-313
-383
-84
-137
-431
-184
-61
-395
-222
17
-282
-249
56
-125
-269
93
91
-282
-62
152
-69
2
253
144
25
154
114
-95
-10
128
-228
-369
-59
-207
-506
-264
-137
-460
-389
-146
-411
-482
-144
-294
-683
-326
347
1094
2617
4077
3911
3004
2383
1217
329
566
442
-303
-353
-106
-463
-614
-303
-457
-685
-344
-308
-732
-540
-206
-514
-488
-146
-400
-650
-288
-220
-562
-360
-110
-401
-461
-137
-218
-470
-201
-71
-389
-266
-62
-264
-203
109
-50
-255
151
186
-179
84
355
70
26
332
228
9
300
378
87
253
441
37
-62
259
20
-219
112
124
-261
-144
114
-228
-340
13
-133
-421
-122
12
-379
-270
18
-314
-322
78
-147
-402
-138
-123
-299
-136
24
-236
-286
-14
-144
-307
5
30
-327
-172
76
-217
-290
73
-107
-421
-77
-33
-437
-237
18
-337
-333
-6
-204
-410
-82
-52
-464
-306
-25
-354
-441
-79
-209
-468
-117
-36
-387
-235
-29
-323
-344
-10
-145
-280
11
5
-260
-125
117
-66
-96
253
162
-24
254
188
-183
-77
99
-216
-350
-49
-236
-571
-202
-106
-511
-375
-118
-407
-531
-165
-196
-565
-399
113
658
1985
3701
4056
3360
2737
1547
407
593
531
-283
-295
-74
-517
-643
-281
-479
-776
-461
-449
-778
-576
-330
-602
-659
-325
-522
-856
-431
-250
-674
-513
-231
-597
-653
-220
-356
-645
-259
-168
-510
-336
-93
-322
-385
7
-47
-392
-37
177
-231
-64
275
-35
-67
263
158
-40
167
264
-29
65
340
0
-90
196
-43
-325
-90
-25
-361
-344
-83
-307
-468
-124
-208
-484
-159
-82
-432
-306
-72
-364
-521
-116
-116
-434
-176
-80
-455
-284
64
-335
-435
-8
-233
-459
-118
-83
-355
-205
-24
-278
-344
-11
-136
-456
-180
-64
-353
-307
-71
-395
-466
8
-181
-466
-203
-145
-405
-250
-18
-364
-432
-41
-167
-424
-142
-85
-443
-346
-46
-318
-479
-40
-152
-523
-137
7
-328
-119
136
-212
-266
70
23
-100
155
259
21
138
267
-71
-108
148
-70
-357
-100
-76
-529
-371
-40
-383
-423
-102
-297
-510
-222
-91
-493
-606
-34
747
2016
3712
4323
3401
2419
1586
546
415
566
-94
-386
-84
-262
-590
-344
-275
-646
-518
-271
-503
-531
-276
-381
-585
-299
-233
-572
-379
-124
-433
-475
-123
-294
-511
-141
-126
-504
-303
32
-252
-358
1
-69
-280
-37
61
-230
-92
227
-34
-78
284
159
-54
239
243
-53
186
416
105
71
412
180
-104
203
222
-125
-44
154
-171
-348
-32
-131
-388
-94
-4
-399
-334
-1
-287
-367
33
-160
-456
-177
-68
-356
-217
61
-254
-335
76
-57
-334
-8
90
-302
-219
128
-180
-336
27
-66
-401
-139
37
-307
-191
46
-207
-276
30
-35
-334
-54
117
-274
-238
48
-198
-325
-4
-130
-363
16
25
-379
-163
120
-175
-262
109
26
-205
121
81
-329
-20
325
-37
-93
326
239
-14
217
232
-171
-76
173
-166
-307
12
-176
-502
-140
-62
-543
-407
7
-283
-485
-70
-104
-599
-286
589
1492
3109
4447
3972
2683
1846
1040
456
550
287
-344
-252
-40
-403
-524
-262
-366
-602
-368
-232
-527
-492
-192
-451
-597
-177
-305
-583
-264
-221
-552
-370
-51
-424
-499
-32
-225
-486
-125
-65
-430
-313
5
-193
-280
30
-21
-272
12
187
-136
-40
256
47
-53
256
178
-69
223
356
10
70
259
-53
-119
132
-51
-352
-114
-5
-412
-294
18
-350
-469
-64
-194
-485
-151
-73
-453
-279
27
-249
-357
-53
-143
-410
-115
20
-326
-215
86
-214
-313
102
-36
-302
8
56
-317
-206
79
-188
-247
89
-101
-333
-43
-36
-312
-151
54
-243
-391
-46
-150
-433
-52
48
-356
-257
47
-188
-324
89
49
-311
57
188
-224
-60
218
5
-14
265
170
-36
263
350
-121
-124
168
-99
-274
41
-135
-510
-188
-59
-456
-299
-29
-358
-446
-64
-115
-489
-432
-110
433
1796
3491
4104
3463
2605
1578
544
552
532
-145
-249
-84
-387
-519
-240
-360
-634
-326
-262
-637
-448
-197
-530
-564
-190
-330
-621
-322
-169
-440
-335
-133
-391
-411
-28
-174
-435
-117
-14
-370
-205
178
-148
-284
161
82
-238
86
227
-115
63
380
93
9
332
227
1
294
354
3
157
414
90
-80
222
105
-232
33
106
-339
-223
101
-222
-370
19
-144
-474
-103
-1
-338
-195
75
-213
-366
23
-44
-379
-115
27
-257
-180
101
-146
-314
70
5
-326
-41
56
-305
-174
85
-203
-251
57
-108
-307
-9
50
-314
-186
71
-271
-401
-13
-102
-473
-160
16
-393
-259
42
-325
-341
51
-202
-496
-129
-2
-402
-233
176
-129
-247
153
11
-235
146
222
-113
18
262
21
-112
167
38
-385
-217
-94
-469
-399
-82
-324
-550
-199
-219
-536
-251
-108
-399
-445
-338
-251
568
2206
3474
3928
3730
2743
1431
738
632
327
-84
-78
-200
-541
-423
-289
-630
-586
-183
-488
-655
-225
-373
-678
-361
-203
-557
-521
-216
-456
-576
-229
-311
-615
-297
-131
-527
-443
-88
-336
-468
-61
-224
-495
-30
64
-357
-214
127
-101
-259
98
113
-189
77
247
-101
17
328
26
-44
302
122
-95
123
95
-266
-189
83
-243
-427
-132
-201
-387
-177
-87
-390
-357
-73
-313
-422
-78
-203
-513
-242
-86
-452
-378
-45
-339
-437
-68
-200
-473
-119
28
-412
-293
67
-240
-366
8
-40
-306
-96
19
-326
-256
93
-198
-363
32
-60
-350
-78
-41
-406
-277
13
-234
-328
-37
-110
-356
-155
-47
-399
-297
15
-225
-304
-45
-159
-326
-20
133
-224
-193
165
-8
-96
311
247
-84
189
303
-77
-62
187
-153
-426
-103
-184
-519
-270
-145
-475
-422
-132
-324
-468
-124
-107
-523
-445
18
571
1852
3502
4128
3599
2928
1897
673
607
604
-105
-228
4
-337
-561
-203
-273
-603
-350
-223
-574
-457
-123
-421
-580
-264
-305
-518
-281
-134
-493
-375
7
-316
-474
-95
-151
-455
-188
2
-323
-149
143
-190
-220
150
76
-155
87
258
-32
8
338
129
1
442
371
20
346
501
102
131
430
175
54
387
186
-172
105
184
-204
-105
129
-183
-313
8
-56
-330
-58
71
-295
-242
69
-174
-319
34
-10
-264
2
51
-309
-127
87
-229
-210
131
12
-232
-14
123
-176
-141
123
-80
-181
69
-15
-271
-72
111
-234
-156
203
-128
-274
77
28
-220
-42
46
-236
-175
93
-102
-269
43
40
-244
-71
41
-258
-183
157
-98
-304
50
-43
-294
66
223
-124
-85
227
45
-30
342
286
30
379
472
-47
25
341
-35
-293
13
-71
-443
-169
-20
-462
-357
-16
-328
-391
8
-124
-435
-334
-190
206
1455
3149
4060
3867
3156
1972
813
606
631
69
-116
76
-391
-590
-152
-307
-609
-344
-246
-585
-544
-228
-440
-574
-252
-295
-569
-299
-135
-521
-452
-98
-369
-595
-158
-148
-497
-195
-30
-427
-286
94
-229
-355
36
9
-266
14
203
-159
-64
277
86
-38
269
271
28
260
402
67
125
417
142
-41
209
118
-149
11
70
-240
-232
-41
-252
-376
-37
-72
-397
-127
23
-396
-270
139
-199
-404
-4
-36
-342
-19
139
-322
-274
84
-94
-200
77
-9
-249
32
134
-286
-246
142
-130
-325
77
-67
-388
-62
52
-323
-221
120
-172
-339
53
-59
-407
-147
0
-300
-210
34
-235
-348
0
-49
-402
-130
87
-292
-222
153
-76
-203
129
31
-241
-12
172
-49
87
399
146
15
305
202
-172
61
204
-312
-277
0
-335
-424
-103
-192
-461
-196
-49
-409
-351
-51
-265
-521
-235
279
1169
2911
4268
4034
2977
1920
740
106
154
-200
-745
-729
-615
-946
-1010
-750
-996
-1132
-756
-838
-1107
-825
-692
-1049
-984
-681
-929
-1024
-679
-743
-964
-685
-540
-854
-771
-469
-690
-759
-383
-458
-726
-486
-339
-620
-508
-146
-416
-560
-180
-197
-461
-225
-47
-371
-316
-12
-251
-353
59
10
-329
-130
45
-294
-343
-12
-301
-587
-190
-273
-660
-332
-205
-620
-517
-205
-497
-649
-239
-271
-611
-391
-255
-614
-525
-172
-388
-519
-236
-326
-560
-290
-149
-454
-407
-76
-344
-547
-161
-224
-510
-213
-41
-428
-403
-45
-325
-513
-127
-208
-550
-228
-15
-411
-393
-50
-321
-445
-94
-233
-568
-313
-68
-367
-349
-36
-215
-338
53
0
-370
-61
156
-173
-93
202
-58
-126
208
54
-228
-60
37
-286
-298
-87
-426
-591
-197
-263
-591
-326
-148
-491
-481
-166
-315
-464
-273
-501
-522
683
2207
3313
4012
3664
2231
1103
824
526
15
-64
-45
-461
-533
-211
-501
-802
-371
-328
-719
-439
-228
-690
-602
-244
-542
-630
-254
-307
-579
-340
-178
-501
-423
-83
-367
-492
-122
-180
-440
-238
-41
-291
-233
98
-143
-253
115
56
-169
88
277
-24
-38
312
103
-58
335
305
12
247
404
52
44
341
91
-198
108
96
-307
-120
79
-274
-306
43
-168
-404
-43
-64
-400
-139
92
-292
-280
58
-210
-303
58
-63
-369
-83
50
-312
-209
116
-90
-240
74
21
-290
-38
133
-228
-202
156
-60
-253
43
12
-304
-109
108
-233
-198
127
-132
-282
34
-32
-301
-25
149
-207
-210
75
-110
-277
69
60
-240
51
250
-75
14
355
77
-119
261
313
-5
188
420
126
141
426
183
-73
129
163
-148
-111
57
-242
-280
-24
-287
-406
36
-6
-349
-67
81
-451
-434
498
1338
2517
4195
4353
3061
2261
1538
602
563
627
-14
-273
58
-24
-395
-247
-42
-331
-389
-85
-225
-467
-180
-130
-420
-226
-63
-359
-297
55
-203
-481
-100
-48
-349
-134
20
-249
-163
121
-94
-222
146
154
-154
95
311
-40
16
409
156
-36
392
342
12
344
429
56
224
534
247
95
490
394
-13
227
340
-106
-116
221
2
-219
102
77
-246
-30
104
-219
-125
177
-45
-203
115
29
-263
29
171
-180
-151
192
-3
-245
83
104
-228
9
227
-163
-166
211
-48
-238
111
64
-222
-10
158
-170
-148
224
10
-260
74
140
-220
-33
192
-183
-183
172
-26
-213
93
64
-259
-65
126
-177
-147
145
-84
-205
94
17
-269
-91
253
18
-113
215
10
-132
252
267
51
263
494
193
127
403
121
-99
237
196
-232
-144
81
-256
-306
77
-122
-355
-27
-73
-386
-77
50
-442
-209
1007
2024
3122
4449
4214
2783
1933
1311
573
438
496
-38
-412
-120
-120
-499
-343
-141
-497
-449
-56
-362
-610
-215
-208
-567
-263
-32
-458
-421
-79
-313
-506
-180
-140
-365
-222
-100
-352
-297
28
-206
-245
125
-43
-283
38
298
-71
-89
365
154
-61
311
284
-16
251
424
86
143
496
194
-19
319
307
8
109
260
-119
-165
162
-67
-238
35
20
-283
-106
165
-211
-329
55
-64
-257
66
28
-285
-105
117
-125
-156
127
-93
-288
107
125
-250
-15
254
-97
-145
186
-41
-193
132
50
-215
36
226
-108
-145
184
57
-207
75
158
-182
38
264
-116
-110
261
31
-216
108
67
-252
-18
158
-145
-158
162
-30
-260
129
145
-217
33
226
-182
-151
217
51
-115
185
225
-41
160
318
56
150
473
353
195
419
293
-20
210
304
-82
-180
62
-102
-317
-7
9
-323
-165
-20
-274
-218
63
-176
-546
37
1085
1959
3383
4531
3815
2607
1997
1040
501
711
314
-267
-92
-29
-460
-432
-73
-316
-494
-134
-166
-455
-270
-111
-433
-408
16
-214
-521
-134
-107
-443
-200
-14
-385
-307
84
-158
-355
5
26
-269
-21
202
-109
-84
261
72
-131
211
281
-2
210
411
93
91
404
281
113
422
424
52
225
436
86
-22
292
134
-156
95
84
-270
-162
62
-183
-202
114
-155
-372
28
26
-357
-157
88
-272
-237
154
-124
-339
63
89
-282
-50
250
-168
-232
97
-174
-269
111
47
-290
-65
218
-109
-187
140
-81
-312
65
69
-274
-105
90
-183
-201
154
-53
-346
-73
14
-256
-98
136
-237
-224
182
-93
-333
38
31
-315
-107
124
-220
-246
134
-25
-136
202
99
-180
59
304
3
45
484
255
54
367
334
-31
64
230
-143
-169
157
-134
-354
-63
-53
-326
-172
53
-250
-307
3
-227
-571
-141
562
1396
3047
4459
4100
2899
2043
1090
499
638
312
-287
-183
12
-374
-446
-126
-336
-513
-247
-205
-433
-272
-78
-396
-344
-22
-242
-459
-136
-82
-445
-194
54
-336
-315
58
-133
-320
10
61
-202
-50
178
-77
-153
217
87
-162
268
301
-25
237
368
48
77
367
248
84
347
400
146
268
377
36
11
357
110
-194
94
110
-185
-81
79
-208
-261
151
-7
-345
-2
89
-218
-83
86
-142
-172
122
-34
-285
38
99
-246
-39
243
-136
-159
227
13
-171
163
169
-147
49
217
-146
-126
185
-56
-285
79
134
-220
-16
217
-150
-183
142
-32
-246
70
124
-237
-78
179
-127
-169
148
-19
-222
130
227
-115
13
267
-6
7
363
152
-32
383
412
17
262
493
93
29
335
173
-111
110
57
-314
-162
69
-127
-210
66
-108
-404
-43
49
-302
-248
-124
31
1077
2805
3919
4026
3493
2302
1026
682
722
178
-75
118
-185
-393
-128
-215
-489
-308
-122
-395
-445
-101
-274
-538
-140
-75
-466
-245
15
-378
-394
0
-229
-442
-62
-30
-366
-182
101
-144
-121
215
-6
-218
131
165
-175
40
267
-36
31
317
131
-41
246
349
-9
152
465
80
25
444
223
-108
217
224
-181
25
232
-172
-229
131
-52
-320
-6
-25
-381
-128
84
-275
-288
56
-155
-389
-11
13
-335
-149
42
-250
-293
86
52
-288
-60
43
-307
-71
143
-207
-163
125
-96
-330
-29
-1
-341
-132
34
-235
-236
19
-105
-379
-68
57
-372
-185
132
-248
-282
50
-125
-307
-22
-78
-435
-199
69
-202
-211
126
39
-139
113
166
-131
71
396
23
-40
397
193
-54
218
165
-251
-126
63
-342
-387
-1
-219
-525
-148
-60
-490
-347
-90
-389
-367
-140
-421
-258
968
2237
3305
4117
3711
2337
1334
908
471
134
124
-62
-490
-364
-194
-600
-607
-186
-350
-640
-359
-271
-563
-467
-195
-442
-561
-172
-306
-612
-212
-105
-501
-330
-101
-389
-369
-56
-214
-476
-160
-5
-334
-169
98
-179
-217
92
21
-163
105
210
-114
-25
260
67
17
324
180
-56
277
304
-111
56
262
-101
-154
137
-76
-367
-74
-41
-413
-256
-15
-334
-394
-95
-233
-418
-121
-72
-436
-240
25
-338
-336
4
-206
-433
-97
-20
-395
-218
52
-255
-299
56
-36
-372
-145
-11
-298
-100
41
-311
-296
17
-172
-404
-53
-10
-422
-309
6
-269
-332
38
-160
-468
-157
-53
-385
-228
33
-320
-381
23
-112
-360
-67
-43
-418
-252
75
-149
-211
111
-79
-358
36
168
-167
0
272
20
-32
215
48
-186
80
109
-365
-323
-56
-361
-389
-69
-314
-519
-126
-116
-537
-313
45
-404
-661
64
914
1850
3458
4351
3536
2641
1917
707
336
631
114
-433
-155
-188
-667
-435
-148
-536
-575
-278
-450
-613
-334
-247
-618
-483
-136
-497
-595
-186
-304
-596
-295
-204
-581
-419
-135
-441
-430
-74
-300
-550
-165
-36
-387
-218
76
-192
-222
133
69
-160
104
256
-83
-21
307
30
-70
347
220
-40
248
212
-175
15
209
-204
-286
75
-90
-370
-123
-104
-407
-227
1
-345
-382
28
-151
-424
-173
-80
-324
-313
-57
-255
-404
-31
-120
-394
-40
7
-421
-223
140
-171
-293
94
-41
-343
-19
31
-367
-202
74
-267
-340
54
-89
-333
-53
-37
-376
-254
39
-178
-322
10
-120
-422
-114
-88
-390
-231
-30
-296
-397
-84
-131
-365
-121
-83
-386
-229
-46
-286
-266
70
-63
-313
21
83
-270
4
332
30
-52
326
198
-152
170
179
-286
-133
31
-318
-344
-66
-307
-509
-162
-145
-446
-275
-116
-381
-355
-203
-343
64
1498
2948
3809
4102
3427
2073
1004
760
559
46
5
-58
-502
-437
-141
-471
-680
-299
-377
-688
-327
-235
-661
-506
-226
-582
-635
-212
-367
-649
-305
-175
-580
-473
-145
-461
-504
-81
-243
-508
-166
-70
-402
-170
119
-215
-230
85
-21
-159
131
244
-149
-16
353
-56
-105
363
187
-12
275
308
13
68
280
-2
-161
144
-51
-329
22
-2
-392
-199
46
-267
-327
5
-111
-415
-159
-1
-369
-274
61
-221
-351
41
-89
-402
-133
-57
-356
-213
58
-244
-371
-2
-122
-438
-117
17
-336
-177
109
-262
-347
62
-75
-417
-119
14
-350
-219
123
-181
-354
-9
-122
-360
-73
-29
-380
-195
113
-259
-403
30
-122
-459
-61
29
-349
-174
70
-243
-311
123
63
-140
160
155
-162
45
361
81
23
419
228
-96
220
237
-197
-104
103
-176
-316
-70
-185
-469
-155
-68
-430
-297
-79
-351
-355
-111
-405
-312
996
2425
3457
4227
3766
2206
1219
962
560
121
43
-46
-360
-363
-169
-443
-534
-195
-356
-616
-279
-211
-570
-437
-204
-466
-510
-168
-274
-541
-243
-138
-489
-341
-60
-311
-383
0
-79
-432
-132
34
-330
-192
121
-157
-235
212
124
-222
99
267
-120
19
390
71
-32
335
236
22
280
342
40
114
301
-40
-153
228
45
-325
11
130
-299
-187
84
-256
-392
45
13
-309
-32
72
-337
-212
161
-159
-295
102
-50
-325
39
95
-289
-103
176
-138
-209
92
-58
-235
88
146
-221
-100
191
-84
-199
153
27
-292
73
131
-248
-4
237
-142
-276
64
-22
-260
73
171
-259
-131
140
-180
-151
186
26
-194
69
210
-122
11
359
20
-82
293
193
-29
266
403
72
198
454
144
-39
156
102
-191
-88
35
-274
-237
18
-320
-395
14
-132
-429
-101
66
-363
-441
-89
359
1484
3270
4240
3797
2941
1920
786
491
657
141
-225
34
-143
-519
-341
-198
-510
-401
-93
-416
-558
-168
-201
-500
-190
-24
-442
-355
10
-314
-424
-27
-149
-362
-34
24
-367
-191
157
-108
-247
94
68
-228
50
211
-134
14
382
76
-70
335
271
11
269
396
57
108
483
225
-16
367
323
-47
150
223
-156
-68
205
-110
-275
52
-24
-344
-100
42
-321
-196
115
-227
-361
2
-84
-319
-60
48
-339
-283
68
-192
-303
71
-45
-340
3
121
-278
-163
124
-170
-311
61
34
-342
-142
31
-347
-262
75
-180
-294
30
-89
-412
-173
2
-265
-214
-3
-240
-271
6
-174
-335
-70
-65
-380
-280
5
-204
-294
44
-8
-246
9
145
-186
-122
232
46
-89
241
204
-38
221
318
-67
-31
235
-126
-343
-24
-170
-495
-208
-58
-460
-400
-23
-285
-487
-121
-175
-656
-406
379
1148
2587
4061
3909
2908
2242
1206
349
473
359
-291
-322
-78
-408
-585
-228
-309
-706
-393
-212
-614
-452
-171
-536
-575
-208
-341
-606
-343
-171
-450
-375
-125
-382
-484
-126
-209
-427
-114
-99
-448
-319
-1
-194
-309
89
38
-322
-40
169
-179
-95
228
-35
-169
237
184
-124
165
285
-78
42
386
50
-184
148
23
-326
-117
-55
-358
-266
-77
-324
-435
-144
-195
-486
-204
-56
-434
-298
-56
-403
-430
-42
-149
-402
-167
-67
-409
-307
31
-231
-327
36
-105
-424
-122
39
-306
-245
20
-202
-289
16
-144
-439
-108
-63
-425
-260
12
-217
-361
-76
-146
-412
-137
2
-350
-278
66
-189
-373
7
-65
-385
-87
31
-318
-221
68
-168
-211
132
48
-225
59
213
-171
-39
334
112
21
422
272
-142
176
259
-221
-153
80
-293
-401
-69
-229
-492
-200
-104
-432
-348
-159
-341
-348
-194
-307
106
1520
2999
3846
4022
3392
2058
998
797
596
49
-36
-80
-503
-402
-156
-515
-668
-332
-370
-668
-428
-223
-580
-559
-241
-469
-604
-251
-305
-613
-270
-128
-592
-484
-110
-351
-470
-128
-223
-497
-213
-38
-332
-253
59
-161
-252
103
44
-215
109
276
-138
-52
312
104
-64
261
263
-26
240
330
-21
78
248
-43
-179
99
8
-351
-148
65
-249
-228
87
-205
-423
-33
-87
-411
-161
-58
-379
-316
19
-217
-357
21
-137
-453
-109
50
-317
-259
-6
-255
-349
12
-59
-372
-141
21
-296
-251
55
-194
-330
16
-77
-356
-81
36
-328
-236
106
-188
-356
48
-41
-421
-121
76
-362
-306
32
-262
-375
-4
-132
-453
-145
-68
-483
-350
2
-290
-472
-115
-166
-421
-136
77
-191
-191
87
-76
-148
204
121
-64
282
334
-104
-61
209
-134
-384
-94
-201
-548
-253
-92
-498
-423
-97
-371
-556
-165
-141
-538
-493
-39
589
1869
3545
4168
3576
2802
1737
542
519
659
-97
-308
-103
-441
-611
-333
-397
-690
-468
-287
-590
-556
-231
-527
-748
-278
-248
-595
-342
-203
-545
-393
-135
-427
-463
-68
-162
-460
-173
-48
-394
-262
95
-173
-317
125
60
-292
32
252
-96
-25
325
61
-80
312
210
-79
268
386
-25
67
413
124
-100
259
198
-228
-57
61
-291
-190
91
-203
-332
42
-80
-439
-74
121
-325
-272
57
-190
-336
-46
-89
-373
-145
41
-317
-241
135
-149
-314
35
-57
-342
-66
62
-236
-168
84
-145
-317
28
15
-344
-121
111
-273
-214
134
-182
-316
57
-31
-377
-121
39
-322
-249
5
-248
-388
-27
-71
-465
-162
87
-365
-352
73
-183
-399
-6
-31
-311
-11
159
-234
-152
186
-92
-200
247
265
-27
220
312
-94
-66
179
-103
-374
-110
-117
-488
-257
-52
-444
-441
-106
-352
-503
-109
-139
-544
-490
19
707
2086
3829
4184
3279
2451
1391
416
433
465
-188
-388
-148
-435
-594
-315
-403
-651
-406
-236
-577
-538
-223
-486
-618
-218
-264
-678
-503
-225
-477
-480
-150
-315
-483
-194
-276
-515
-272
-131
-411
-371
-28
-215
-370
-32
-69
-316
-66
86
-216
-158
234
20
-247
146
179
-144
142
366
-19
-11
327
44
-187
112
58
-301
-172
-12
-338
-343
-62
-302
-450
-148
-241
-511
-237
-104
-441
-368
-37
-268
-470
-76
-102
-476
-173
-6
-370
-252
146
-133
-395
-23
-111
-384
-58
-23
-321
-181
51
-190
-337
18
-13
-333
-100
63
-276
-234
127
-159
-379
19
-6
-373
-215
-9
-324
-294
28
-240
-425
-14
-72
-476
-126
112
-294
-176
203
-103
-240
91
44
-174
68
290
-55
-18
343
26
-159
161
56
-282
-116
-3
-462
-472
-16
-248
-518
-135
-86
-493
-297
-71
-427
-361
-147
-334
123
1530
2932
3838
4087
3193
1695
893
797
437
-43
32
-74
-483
-304
-173
-513
-472
-189
-368
-578
-249
-188
-530
-318
-145
-450
-342
-42
-259
-430
-162
-158
-489
-251
65
-341
-406
66
-129
-370
47
18
-362
-119
168
-117
-85
281
37
-126
236
208
-78
181
427
65
112
446
176
8
353
360
33
162
276
-61
-81
150
-112
-290
49
8
-313
-98
23
-285
-268
33
-113
-329
-36
-77
-315
-22
-3
-340
-218
77
-129
-308
-13
-18
-279
-31
123
-234
-203
121
-64
-257
23
24
-276
-96
91
-303
-297
142
-99
-391
-20
28
-376
-176
72
-288
-257
69
-207
-379
-26
-106
-443
-219
-73
-349
-297
-11
-203
-380
-27
11
-308
-72
134
-207
-120
201
-30
-182
175
195
-146
110
337
-69
-82
199
-89
-329
-54
-174
-542
-294
-135
-492
-478
-202
-363
-473
-279
-330
-484
-394
-399
-304
618
2102
3328
3898
3647
2591
1260
665
654
196
-137
-15
-348
-660
-326
-349
-744
-491
-297
-668
-571
-288
-520
-658
-368
-347
-646
-392
-199
-568
-499
-152
-396
-598
-208
-217
-591
-292
-42
-423
-354
-17
-280
-404
-21
-2
-310
-65
173
-193
-153
211
-40
-194
215
197
-141
94
361
50
14
302
79
-97
177
110
-201
-12
136
-229
-261
39
-205
-407
-58
-143
-439
-176
2
-315
-291
19
-250
-405
-77
-104
-396
-177
18
-374
-341
49
-192
-400
-49
-76
-414
-133
121
-241
-261
99
-81
-303
35
38
-305
-79
72
-269
-197
116
-152
-367
12
-45
-347
-44
-26
-356
-273
-1
-114
-321
-40
-48
-379
-164
10
-324
-308
39
-187
-391
-24
-9
-287
-35
179
-168
-156
188
7
-89
308
272
-39
214
382
4
-89
169
-41
-370
-101
-79
-475
-277
-33
-409
-395
-15
-270
-518
-208
-150
-472
-402
-49
380
1599
3310
4106
3779
3108
2042
806
561
684
65
-268
-41
-332
-584
-256
-302
-609
-381
-243
-637
-597
-243
-408
-534
-247
-248
-552
-345
-130
-492
-469
-58
-238
-504
-172
-138
-460
-183
69
-276
-243
121
-85
-238
113
110
-218
-3
308
-6
-61
313
121
-61
341
314
-6
252
361
68
173
432
179
-33
305
272
-166
-70
79
-156
-150
5
-209
-354
-39
-37
-382
-198
-25
-356
-287
53
-244
-412
-21
-69
-356
-143
34
-266
-296
37
-105
-350
-50
16
-300
-130
66
-257
-277
52
-94
-315
-4
21
-351
-141
108
-244
-261
70
-155
-340
65
21
-392
-118
67
-337
-294
117
-102
-402
-68
-13
-329
-144
72
-233
-254
50
-155
-329
22
-26
-377
-130
131
-189
-163
247
-24
-245
203
286
-20
216
514
120
-11
329
144
-121
126
34
-387
-251
-101
-412
-376
-27
-248
-487
-176
-150
-437
-241
-110
-561
-233
1059
2090
3236
4381
3920
2416
1540
990
382
290
326
-183
-460
-170
-262
-632
-482
-260
-573
-581
-294
-520
-620
-315
-307
-588
-439
-152
-402
-480
-162
-297
-492
-115
-110
-505
-272
-35
-394
-377
59
-123
-324
52
44
-319
-77
199
-152
-118
317
140
-84
207
271
8
197
435
25
-6
454
280
34
316
277
-65
117
248
-90
-154
64
-89
-330
-35
-10
-392
-184
97
-236
-336
37
-97
-386
-42
-16
-390
-153
57
-237
-177
86
-106
-313
-31
46
-224
21
134
-267
-187
155
-42
-296
-29
37
-317
-107
159
-257
-284
71
-171
-414
-22
69
-318
-154
100
-306
-316
122
-154
-312
69
-67
-383
-173
31
-217
-286
-3
-95
-392
-117
37
-330
-160
167
-119
-107
284
60
-194
175
260
-43
141
441
209
53
266
125
-197
31
68
-332
-149
32
-354
-296
49
-186
-366
-56
-110
-402
-177
32
-437
-348
839
1947
3178
4438
4126
2556
1567
1109
568
338
320
-64
-371
-117
-123
-556
-423
-164
-502
-500
-163
-302
-520
-245
-146
-482
-352
-104
-343
-343
-1
-190
-453
-78
4
-393
-180
89
-248
-241
125
-53
-301
45
100
-171
72
310
24
30
376
214
-37
283
410
43
171
444
132
88
446
285
57
308
287
-64
19
184
-158
-274
113
-25
-323
-9
27
-328
-172
82
-244
-331
15
-148
-377
-41
-40
-393
-190
90
-229
-340
39
-86
-364
-22
8
-364
-186
65
-191
-223
62
-130
-375
-53
18
-308
-224
-21
-273
-315
33
-163
-443
-95
-26
-384
-264
-50
-320
-341
-1
-161
-401
-114
-119
-384
-174
-31
-315
-331
39
-115
-466
-89
85
-229
-74
164
-113
-225
181
155
-89
210
291
-38
138
331
-54
-95
148
-68
-383
-203
-94
-394
-312
-88
-384
-492
-113
-218
-566
-252
-92
-536
-538
111
807
2086
3860
4280
3223
2259
1387
462
404
453
-156
-349
-67
-286
-604
-293
-200
-629
-479
-156
-444
-547
-219
-310
-568
-270
-168
-574
-412
-56
-367
-441
-73
-165
-431
-174
-50
-307
-199
-2
-194
-248
85
-28
-332
87
176
-212
66
305
-3
15
338
164
-98
225
373
29
126
452
185
-12
339
295
-162
-15
190
-145
-127
55
-204
-245
44
-120
-402
-88
-30
-375
-195
-19
-332
-323
46
-107
-349
-39
-16
-345
-152
116
-217
-290
111
-37
-277
38
120
-244
-133
180
-165
-217
174
-71
-319
36
52
-306
-152
81
-182
-212
60
-143
-386
-50
-24
-329
-94
61
-269
-269
34
-104
-355
-95
-60
-427
-200
63
-286
-340
23
-85
-313
21
145
-188
-47
169
-151
-139
303
171
-125
249
332
-83
56
259
-110
-239
51
-109
-438
-125
-74
-479
-267
37
-271
-389
-11
-71
-389
-283
-218
58
1330
2945
3875
3979
3467
2294
1057
770
746
201
-35
54
-247
-438
-157
-280
-593
-295
-194
-551
-423
-154
-439
-480
-157
-294
-486
-201
-153
-457
-293
-5
-284
-421
-40
-58
-370
-126
53
-294
-181
144
-139
-220
189
101
-284
89
352
-98
32
368
42
-17
348
248
12
257
410
143
158
454
187
-30
336
203
-166
90
168
-185
-165
18
-199
-273
58
-62
-383
-122
-28
-339
-189
60
-224
-303
4
-110
-347
-41
110
-264
-195
135
-158
-328
-61
-129
-272
11
84
-295
-208
94
-148
-250
20
-79
-357
-83
84
-269
-174
87
-197
-310
32
-8
-360
-204
36
-262
-224
113
-170
-299
43
-83
-407
-95
91
-295
-247
28
-228
-297
40
-140
-439
-119
23
-329
-233
70
-141
-178
203
118
-170
113
242
-33
89
380
218
103
326
200
-50
109
118
-205
-174
26
-285
-392
-43
-171
-433
-152
-56
-389
-236
64
-367
-537
436
1501
2528
4091
4380
3045
2160
1487
556
324
434
18
-413
-237
-143
-516
-469
-177
-499
-604
-212
-339
-616
-332
-206
-525
-448
-210
-457
-540
-182
-208
-583
-340
-61
-464
-404
-30
-303
-422
-107
-171
-382
-97
92
-250
-197
150
-60
-161
176
140
-107
130
330
-42
-7
422
195
31
416
309
-59
250
397
-36
-2
261
-81
-238
117
2
-328
-96
44
-299
-248
42
-229
-358
-47
-140
-388
-166
-54
-346
-281
-3
-271
-373
33
-55
-376
-110
80
-288
-255
75
-186
-323
46
-58
-383
-91
67
-271
-200
117
-113
-257
73
-51
-360
-66
65
-294
-223
110
-171
-387
-3
-48
-367
-104
80
-302
-277
154
-124
-360
42
-5
-426
-189
82
-293
-289
26
-207
-378
-37
-44
-335
-18
198
-209
-164
158
-23
6
330
189
-11
301
319
-131
-52
179
-128
-286
-48
-176
-499
-293
-91
-405
-405
-35
-220
-432
-94
-129
-567
-449
157
813
2098
3796
4231
3447
2693
1671
582
583
638
-115
-352
-93
-368
-548
-258
-304
-670
-494
-301
-644
-569
-211
-384
-604
-326
-266
-560
-349
-163
-559
-471
-109
-350
-485
-148
-162
-453
-158
33
-307
-222
41
-179
-293
113
87
-277
91
292
-117
-71
337
191
-35
324
323
-6
253
430
88
96
387
148
-73
162
107
-182
-52
51
-296
-249
34
-295
-428
-34
-83
-368
-205
-33
-316
-310
14
-183
-406
-94
-15
-356
-181
62
-340
-309
109
-107
-288
19
1
-325
-94
115
-252
-244
75
-98
-301
4
7
-311
-81
81
-250
-263
62
-84
-353
-85
-20
-301
-76
105
-317
-280
110
-151
-347
30
8
-301
-77
-5
-307
-203
76
-136
-307
3
2
-321
-126
106
-204
-163
190
-22
-174
149
116
-194
142
456
51
109
490
182
-38
324
267
-96
106
151
-271
-243
50
-154
-319
-10
-31
-302
-100
25
-280
-186
-15
-350
72
1524
2844
3874
4434
3644
2063
1192
999
631
207
171
44
-380
-336
-118
-444
-440
-74
-317
-539
-248
-215
-485
-305
-51
-400
-482
-97
-266
-479
-134
-124
-433
-220
-10
-338
-293
69
-147
-306
55
97
-252
-152
202
-5
-72
313
149
-74
295
299
-13
239
407
88
130
438
280
102
348
384
47
193
401
29
-107
160
13
-292
38
112
-312
-140
55
-304
-270
128
-124
-404
17
19
-349
-90
70
-290
-208
145
-92
-301
66
81
-271
-42
186
-237
-233
207
-24
-279
78
112
-291
-136
127
-184
-232
163
-21
-347
25
50
-392
-145
169
-227
-286
97
-146
-435
-44
26
-316
-146
62
-292
-354
39
-105
-396
-106
-6
-315
-136
111
-159
-186
140
-43
-312
114
279
-45
150
420
93
10
264
73
-88
197
125
-299
-202
40
-250
-398
-83
-125
-376
-172
-182
-511
-286
35
-349
-580
62
866
1977
3713
4472
3457
2308
1564
681
400
529
37
-378
-123
-140
-505
-430
-250
-523
-556
-217
-393
-662
-306
-242
-657
-485
-159
-496
-591
-153
-301
-573
-224
-187
-541
-348
-36
-341
-461
-102
-202
-408
-57
65
-255
-122
155
-161
-224
190
104
-144
180
291
-63
91
351
58
-30
265
208
12
229
223
-186
-73
194
-159
-316
-21
-139
-440
-191
-73
-508
-395
-6
-337
-479
-83
-187
-461
-163
-93
-491
-313
10
-351
-431
-49
-193
-424
-109
-62
-426
-244
31
-328
-381
17
-147
-442
-128
-15
-347
-258
-22
-284
-343
-10
-151
-387
-126
-57
-373
-279
-1
-306
-432
-26
-127
-434
-140
-38
-423
-282
-27
-330
-403
-76
-169
-426
-84
64
-334
-206
173
-70
-227
117
61
-217
137
318
-119
53
447
50
-92
264
48
-262
6
19
-417
-331
-51
-353
-431
-117
-244
-379
-121
-119
-388
-317
-243
-457
168
1656
2877
3784
4158
3282
1905
1151
826
444
95
54
-145
-478
-252
-188
-533
-385
-178
-473
-551
-211
-287
-606
-291
-135
-547
-397
-43
-367
-501
-96
-210
-540
-171
-64
-452
-237
58
-219
-331
20
-44
-353
7
180
-210
-54
278
23
-97
246
245
-39
201
390
-21
35
449
204
78
435
314
-5
239
356
-76
-49
257
-84
-263
105
5
-339
-68
90
-290
-251
74
-160
-318
-1
-73
-372
-105
76
-311
-276
77
-170
-313
95
-6
-322
-40
63
-264
-165
121
-135
-269
56
-31
-365
-76
62
-336
-191
77
-246
-353
41
-18
-333
-62
5
-375
-238
76
-173
-301
-1
-98
-366
-98
7
-426
-284
98
-275
-479
-86
-160
-439
-108
-41
-386
-227
22
-173
-194
119
3
-262
74
228
-70
51
372
184
19
277
168
-159
53
112
-347
-303
108
-219
-521
-45
-88
-496
-216
-88
-444
-306
-57
-494
-529
566
1661
2627
4014
4245
2935
2012
1407
563
281
383
15
-462
-336
-212
-564
-525
-262
-525
-608
-240
-319
-645
-345
-207
-632
-501
-132
-402
-581
-241
-238
-568
-378
-157
-474
-433
-82
-263
-435
-138
-116
-434
-177
70
-284
-186
199
-66
-265
132
246
-37
109
267
3
92
363
168
36
374
368
27
177
377
17
-96
232
-20
-284
121
78
-343
-89
86
-326
-290
88
-139
-355
-39
-83
-391
-210
-3
-316
-272
100
-272
-361
39
-134
-368
-119
59
-226
-212
82
-120
-269
70
55
-261
-58
137
-186
-206
172
10
-296
7
52
-309
-112
72
-290
-250
82
-102
-293
-41
-8
-318
-162
60
-204
-222
43
-120
-304
38
13
-358
-124
126
-188
-241
25
-176
-296
73
81
-178
56
217
-144
-110
294
179
-7
325
473
120
149
351
36
-61
192
-62
-321
-20
-90
-356
-135
-38
-335
-346
48
-49
-344
-59
-135
-476
407
1836
2829
3963
4428
3205
1880
1337
796
386
331
150
-265
-325
-70
-343
-578
-207
-268
-610
-331
-133
-518
-482
-122
-319
-501
-212
-204
-474
-295
-77
-394
-438
-49
-255
-501
-95
-71
-440
-202
110
-204
-310
89
-59
-324
90
148
-149
56
290
19
-41
330
212
-4
335
407
36
189
494
130
3
339
125
-163
151
105
-279
-56
19
-330
-257
31
-117
-384
-110
-4
-343
-132
82
-327
-375
-52
-215
-428
-122
-24
-336
-223
-6
-299
-297
69
-89
-323
-27
48
-296
-130
143
-228
-245
181
-51
-320
50
90
-311
-171
165
-190
-349
55
-106
-373
-37
17
-390
-248
96
-225
-326
67
-94
-392
-17
74
-390
-215
145
-210
-312
78
-41
-331
-35
123
-193
-55
274
-59
-175
239
193
-30
205
344
83
185
381
34
-29
218
-17
-299
-91
-70
-380
-213
20
-271
-402
-98
-160
-425
-77
-2
-543
-184
955
1951
3350
4568
3958
2340
1626
1152
425
373
340
-205
-364
-67
-233
-534
-279
-213
-593
-485
-173
-415
-492
-240
-344
-514
-256
-165
-471
-428
-123
-255
-363
-63
-183
-458
-109
19
-369
-187
145
-182
-263
131
-15
-315
51
215
-145
-24
295
74
-11
301
258
44
232
385
121
201
534
240
90
416
262
-34
239
273
-193
-46
240
-137
-206
157
-26
-315
1
82
-258
-113
136
-131
-223
89
-14
-300
-26
114
-176
-59
223
-61
-180
191
54
-213
121
207
-141
-26
232
-97
-193
174
32
-225
76
152
-250
-168
170
-103
-274
89
4
-311
-43
86
-267
-196
84
-166
-279
73
-51
-402
-97
98
-232
-215
54
-151
-251
119
1
-241
165
255
-136
-39
208
-25
-10
400
253
-9
334
374
-41
43
337
10
-281
4
-76
-328
-74
-54
-357
-326
-98
-252
-424
-87
-121
-453
-298
-130
186
1482
3247
4117
3813
3036
1922
738
605
675
-18
-179
56
-327
-498
-143
-290
-578
-328
-166
-488
-490
-178
-425
-570
-212
-252
-520
-270
-108
-430
-370
-71
-329
-448
-79
-172
-491
-184
51
-339
-279
81
-244
-333
85
13
-202
55
188
-95
5
318
75
-19
301
213
-8
240
363
49
120
431
120
-86
252
138
-216
-14
128
-189
-226
23
-206
-416
-70
-66
-388
-192
-37
-378
-318
6
-249
-441
-63
-67
-442
-155
54
-309
-211
31
-227
-342
8
6
-337
-100
85
-306
-251
91
-168
-359
-64
-50
-308
-61
116
-307
-298
97
-124
-352
23
-47
-469
-179
76
-279
-269
26
-202
-384
-76
-84
-365
-100
40
-366
-314
50
-197
-379
11
-64
-328
-44
112
-170
-172
98
-69
-171
234
271
-27
123
256
-73
-122
151
-81
-311
-73
-187
-499
-257
-98
-462
-430
-112
-362
-519
-146
-147
-579
-545
-33
623
1937
3595
4138
3512
2713
1679
563
443
562
-109
-387
-117
-386
-660
-358
-394
-721
-463
-275
-629
-603
-262
-477
-722
-382
-317
-644
-480
-269
-544
-550
-190
-393
-636
-199
-170
-574
-299
-44
-426
-382
9
-189
-396
27
34
-327
-7
188
-167
-76
294
70
-89
266
250
-54
155
416
76
-88
231
133
-123
144
95
-302
-127
56
-347
-389
-14
-239
-507
-215
-144
-427
-273
-76
-429
-404
-46
-320
-513
-140
-111
-469
-276
-8
-372
-414
-90
-213
-352
-60
-35
-339
-170
-1
-308
-293
63
-165
-418
-57
13
-315
-175
44
-271
-351
-35
-195
-434
-109
-77
-405
-198
4
-386
-399
-27
-291
-509
-106
-110
-474
-264
-37
-384
-409
-58
-224
-495
-234
-165
-470
-258
-33
-334
-251
102
-60
-251
55
110
-180
36
312
70
67
338
93
-128
111
86
-249
-206
-44
-329
-334
-4
-245
-500
-193
-92
-372
-236
35
-454
-625
300
1243
2284
3859
4410
3305
2367
1697
615
323
571
66
-396
-208
-253
-625
-507
-198
-490
-657
-271
-333
-628
-328
-243
-614
-387
-148
-565
-563
-183
-302
-512
-246
-208
-528
-335
-78
-330
-337
-2
-153
-369
-37
0
-346
-118
104
-221
-154
242
126
-112
247
354
-109
52
425
142
90
459
272
-34
257
376
12
19
254
-30
-171
100
-74
-313
-9
-32
-406
-201
24
-260
-255
36
-129
-336
-88
-21
-324
-190
90
-253
-356
48
-47
-294
-41
5
-252
-125
70
-153
-261
53
10
-233
