3156
3199
3247
3292
3325
3344
3346
3335
3314
3288
3260
3234
3211
3191
3172
3156
3142
3131
3125
3126
3132
3142
3153
3159
3158
3146
3125
3098
3073
3055
3051
3067
3102
3152
3207
3255
3286
3288
3259
3200
3117
3023
2931
2854
2800
2773
2771
2785
2807
2827
2836
2831
2815
2793
2772
2762
2768
2791
2830
2876
2920
2954
2968
2958
2926
2878
2822
2770
2732
2716
2724
2756
2804
2858
2907
2940
2949
2932
2888
2823
2747
2672
2608
2566
2551
2565
2606
2667
2738
2809
2870
2911
2927
2917
2881
2827
2762
2697
2638
2596
2574
2575
2600
2645
2706
2776
2847
2911
2962
2995
3009
3002
2980
2947
2910
2877
2858
2857
2878
2923
2989
3070
3159
3245
3320
3374
3403
3403
3374
3321
3251
3173
3098
3036
2995
2983
3002
3050
3124
3215
3311
3403
3478
3529
3551
3542
3506
3452
3389
3331
3288
3271
3283
3327
3398
3489
3589
3685
3766
3825
3854
3855
3831
3790
3742
3699
3671
3668
3692
3744
3819
3909
4002
4088
4156
4199
4211
4194
4152
4094
4030
3971
3926
3902
3904
3928
3970
4023
4077
4122
4151
4160
4146
4113
4064
4008
3951
3902
3866
3846
3842
3852
3873
3898
3923
3943
3957
3962
3959
3949
3933
3911
3886
3856
3823
3787
3751
3716
3687
3667
3661
3669
3692
3724
3760
3793
3812
3811
3785
3733
3659
3570
3478
3394
3329
3288
3277
3291
3325
3369
3411
3441
3454
3444
3413
3365
3307
3248
3195
3155
3130
3121
3125
3140
3160
3181
3197
3207
3208
3200
3183
3160
3132
3103
3075
3052
3036
3030
3035
3050
3075
3106
3139
3168
3189
3199
3194
3175
3145
3107
3066
3029
3001
2985
2985
2999
3025
3058
3094
3126
3149
3161
3159
3143
3115
3079
3040
3003
2973
2954
2947
2954
2973
3002
3037
3073
3105
3130
3144
3146
3137
3117
3090
3059
3028
3001
2979
2965
2958
2959
2967
2980
2998
3018
3039
3060
3079
3095
3105
3110
3107
3098
3082
3062
3039
3016
2995
2977
2965
2956
2952
2949
2945
2940
2931
2920
2907
2894
2883
2877
2879
2889
2906
2931
2960
2988
3013
3029
3035
3028
3010
2983
2950
2914
2882
2856
2840
2835
2840
2854
2874
2895
2913
2926
2931
2925
2910
2885
2854
2820
2786
2758
2739
2732
2740
2765
2804
2856
2915
2975
3030
3072
3096
3100
3081
3044
2991
2930
2868
2812
2770
2744
2737
2747
2772
2805
2841
2874
2897
2906
2898
2873
2832
2779
2721
2663
2614
2581
2569
2582
2618
2675
2746
2820
2888
2939
2965
2962
2929
2870
2792
2704
2619
2546
2494
2467
2466
2488
2528
2576
2624
2664
2690
2700
2692
2669
2637
2601
2567
2542
2529
2530
2545
2570
2602
2634
2663
2684
2693
2690
2676
2651
2621
2590
2561
2539
2526
2525
2535
2555
2583
2614
2644
2668
2681
2681
2666
2637
2597
2550
2501
2458
2425
2406
2402
2412
2433
2463
2497
2531
2561
2587
2607
2622
2632
2637
2636
2628
2612
2586
2550
2506
2457
2407
2363
2328
2307
2301
2309
2327
2352
2379
2403
2421
2433
2441
2448
2457
2472
2494
2523
2555
2588
2614
2629
2629
2611
2579
2535
2487
2442
2407
2388
2390
2412
2452
2503
2559
2609
2645
2662
2655
2624
2574
2509
2438
2371
2316
2279
2265
2274
2304
2352
2410
2472
2531
2580
2615
2632
2631
2613
2580
2537
2490
2445
2408
2386
2381
2396
2430
2479
2537
2595
2646
2683
2698
2691
2663
2619
2566
2515
2474
2449
2445
2461
2494
2538
2583
2622
2648
2657
2647
2622
2585
2542
2499
2460
2428
2405
2390
2382
2380
2383
2389
2397
2408
2420
2432
2441
2446
2444
2435
2419
2400
2380
2365
2358
2361
2374
2394
2415
2430
2432
2416
2381
2329
2264
2195
2129
2076
2040
2023
2022
2033
2049
2063
2070
2066
2053
2031
2006
1979
1956
1937
1921
1908
1895
1879
1858
1833
1807
1780
1758
1743
1738
1744
1761
1786
1818
1852
1884
1910
1924
1925
1911
1880
1835
1780
1720
1660
1608
1567
1543
1535
1541
1557
1575
1591
1598
1594
1578
1554
1526
1502
1486
1482
1492
1513
1541
1568
1589
1599
1594
1577
1552
1527
1511
1513
1542
1604
1703
1841
2015
2222
2457
2716
2992
3283
3586
3900
4224
4558
4904
5262
5631
6008
6391
6771
7138
7481
7784
8031
8208
8298
8291
8179
7960
7639
7227
6741
6204
5643
5086
4559
4085
3680
3353
3106
2931
2814
2739
2686
2637
2578
2499
2396
2270
2129
1980
1835
1705
1596
1516
1465
1442
1442
1459
1484
1510
1529
1535
1527
1502
1463
1415
1363
1313
1274
1249
1240
1248
1270
1299
1330
1354
1366
1360
1337
1297
1244
1184
1124
1067
1017
977
945
921
901
884
868
855
844
840
842
854
873
899
929
958
982
1000
1008
1008
1000
988
973
959
945
933
921
908
892
874
853
832
813
800
793
795
806
822
840
857
867
869
861
842
816
785
754
726
705
694
694
705
724
749
779
810
838
862
877
882
875
855
823
782
735
688
647
618
605
613
642
691
754
823
890
946
982
993
975
931
867
789
710
641
590
565
568
599
650
714
780
836
875
889
878
842
788
725
661
608
571
558
569
603
654
715
777
832
872
893
892
871
835
790
744
705
680
674
687
717
758
804
845
874
883
871
837
785
722
657
599
558
540
550
589
652
733
824
915
996
1060
1100
1113
1100
1064
1010
948
885
831
793
776
785
819
873
942
1017
1089
1149
1189
1204
1193
1157
1103
1039
977
928
901
904
939
1005
1097
1205
1317
1423
1510
1573
1606
1610
1588
1547
1496
1443
1397
1363
1344
1342
1355
1380
1413
1449
1482
1508
1524
1528
1519
1497
1466
1429
1392
1359
1336
1327
1334
1355
1388
1427
1466
1496
1513
1510
1487
1446
1391
1328
1266
1213
1176
1157
1158
1178
1210
1250
1290
1322
1341
1343
1326
1291
1242
1183
1118
1054
995
946
910
888
879
881
891
905
918
926
923
908
879
838
785
726
665
608
559
524
506
505
520
548
584
621
653
675
681
672
646
607
561
512
468
433
411
404
411
429
453
479
499
511
510
496
470
435
396
357
325
303
295
301
319
347
381
414
442
460
465
454
428
390
344
295
249
211
188
181
192
219
260
307
356
397
426
437
428
398
353
296
237
183
142
121
122
146
186
237
290
335
364
371
355
318
264
203
143
93
63
55
71
109
164
227
292
349
392
415
415
394
352
296
232
168
111
68
46
45
66
106
156
208
253
281
286
267
226
170
107
50
9
-8
4
41
99
169
239
298
338
354
347
319
277
229
183
146
120
108
108
119
137
159
183
207
229
248
263
270
269
258
235
201
159
112
67
28
4
-2
12
47
99
161
226
284
328
350
348
322
274
212
145
81
29
-2
-10
6
43
95
156
215
266
300
313
305
276
232
178
124
77
45
32
42
72
119
176
234
283
313
320
298
249
178
94
7
-72
-131
-163
-165
-139
-88
-23
47
111
158
184
184
162
121
69
14
-37
-77
-102
-110
-103
-84
-56
-26
3
26
41
46
41
28
9
-13
-35
-53
-64
-67
-60
-45
-22
4
30
50
61
58
41
9
-36
-88
-141
-189
-225
-243
-241
-217
-176
-122
-64
-9
32
55
54
29
-16
-75
-140
-201
-249
-277
-281
-262
-223
-171
-115
-63
-26
-9
-15
-45
-95
-157
-225
-289
-343
-379
-396
-393
-373
-340
-300
-258
-221
-192
-173
-167
-172
-187
-211
-240
-273
-307
-340
-370
-395
-412
-420
-418
-406
-385
-356
-325
-294
-269
-252
-246
-252
-267
-289
-312
-332
-343
-344
-333
-311
-282
-250
-222
-202
-195
-202
-224
-258
-302
-349
-395
-435
-464
-479
-479
-464
-436
-398
-354
-310
-271
-240
-221
-217
-226
-245
-272
-299
-320
-331
-328
-309
-276
-231
-182
-135
-98
-74
-68
-79
-106
-143
-184
-222
-249
-260
-254
-228
-187
-135
-77
-21
27
62
80
82
68
43
12
-18
-41
-53
-51
-35
-8
26
62
94
117
130
130
119
99
74
48
25
6
-6
-11
-11
-6
3
15
29
45
62
79
93
103
107
102
87
64
35
2
-30
-56
-72
-74
-63
-38
-4
33
67
90
98
85
51
-3
-71
-147
-221
-285
-333
-360
-364
-349
-321
-289
-261
-247
-253
-281
-329
-392
-462
-529
-583
-618
-629
-617
-585
-541
-493
-450
-420
-410
-419
-449
-493
-547
-603
-654
-692
-715
-719
-704
-672
-627
-575
-521
-472
-433
-410
-403
-416
-445
-489
-540
-594
-642
-679
-700
-703
-688
-657
-616
-572
-532
-502
-486
-484
-496
-516
-537
-551
-550
-527
-477
-397
-287
-148
20
213
431
672
937
1223
1531
1859
2203
2559
2924
3291
3659
4023
4381
4731
5068
5388
5680
5932
6129
6252
6285
6214
6028
5727
5319
4821
4257
3659
3060
2491
1981
1550
1206
952
778
667
602
559
521
472
403
313
204
84
-37
-146
-236
-301
-338
-350
-343
-324
-304
-291
-293
-314
-355
-415
-489
-569
-648
-718
-773
-809
-823
-817
-794
-761
-724
-691
-669
-662
-672
-700
-741
-791
-843
-890
-926
-946
-949
-935
-906
-869
-828
-789
-759
-743
-742
-757
-788
-831
-882
-935
-984
-1024
-1050
-1060
-1051
-1026
-988
-942
-894
-853
-823
-810
-816
-840
-880
-930
-983
-1030
-1063
-1077
-1066
-1030
-973
-899
-818
-740
-677
-637
-628
-654
-711
-794
-892
-993
-1081
-1146
-1177
-1172
-1131
-1063
-977
-890
-813
-758
-733
-741
-777
-836
-904
-971
-1024
-1055
-1059
-1035
-987
-922
-851
-783
-728
-695
-687
-705
-748
-808
-876
-944
-1000
-1036
-1047
-1029
-985
-921
-845
-767
-698
-648
-623
-626
-656
-709
-776
-849
-918
-974
-1013
-1030
-1026
-1002
-963
-915
-863
-814
-771
-740
-721
-716
-724
-743
-769
-799
-828
-850
-863
-863
-848
-821
-784
-743
-704
-672
-652
-648
-660
-685
-716
-748
-771
-779
-767
-735
-685
-625
-562
-509
-472
-460
-473
-510
-563
-623
-680
-721
-740
-731
-693
-632
-553
-465
-377
-299
-236
-192
-168
-163
-175
-197
-225
-254
-278
-294
-297
-286
-258
-216
-162
-99
-34
27
77
110
123
115
86
42
-10
-63
-108
-137
-144
-128
-88
-28
44
122
197
260
306
329
331
312
279
238
196
161
139
132
142
165
197
232
263
285
294
286
264
228
185
138
94
56
29
13
8
14
26
43
60
74
81
79
66
43
8
-35
-84
-134
-181
-220
-247
-260
-257
-240
-213
-179
-146
-120
-107
-112
-136
-179
-237
-305
-377
-444
-499
-536
-553
-549
-529
-497
-461
-427
-403
-395
-405
-432
-474
-525
-577
-624
-659
-679
-682
-668
-643
-612
-581
-559
-549
-554
-575
-610
-653
-699
-741
-774
-793
-795
-782
-755
-718
-677
-636
-601
-575
-562
-562
-576
-600
-632
-667
-701
-729
-747
-754
-747
-728
-698
-661
-621
-584
-554
-534
-529
-538
-561
-597
-641
-689
-736
-776
-806
-822
-822
-806
-776
-736
-691
-646
-608
-581
-568
-570
-587
-614
-648
-682
-713
-735
-746
-746
-735
-717
-695
-674
-657
-647
-646
-654
-671
-694
-720
-747
-771
-789
-799
-797
-785
-761
-729
-692
-654
-620
-594
-580
-581
-596
-624
-661
-701
-738
-767
-785
-788
-776
-752
-719
-682
-647
-618
-600
-595
-605
-628
-662
-703
-745
-782
-810
-825
-823
-803
-768
-720
-665
-608
-558
-521
-501
-502
-523
-562
-612
-665
-713
-746
-760
-751
-722
-676
-624
-576
-543
-534
-555
-604
-678
-766
-854
-928
-975
-985
-955
-889
-793
-681
-569
-472
-403
-369
-374
-413
-479
-561
-646
-724
-783
-819
-829
-814
-779
-729
-671
-614
-564
-526
-506
-505
-522
-556
-604
-658
-713
-762
-799
-817
-816
-795
-756
-707
-652
-602
-562
-539
-535
-552
-585
-631
-681
-730
-771
-798
-809
-803
-783
-752
-716
-682
-655
-637
-633
-640
-659
-687
-718
-750
-778
-800
-812
-813
-802
-780
-750
-714
-677
-644
-620
-610
-617
-642
-683
-736
-794
-848
-889
-910
-906
-878
-828
-765
-699
-642
-603
-590
-605
-645
-705
-772
-837
-888
-916
-917
-891
-842
-779
-709
-643
-590
-556
-543
-554
-585
-631
-688
-748
-803
-849
-881
-895
-890
-868
-833
-788
-740
-695
-659
-638
-634
-648
-677
-717
-763
-806
-841
-862
-866
-853
-823
-781
-733
-685
-643
-613
-599
-603
-622
-655
-697
-741
-782
-814
-834
-838
-826
-800
-761
-714
-664
-616
-575
-546
-532
-535
-556
-593
-640
-693
-743
-783
-805
-805
-781
-735
-673
-603
-535
-478
-442
-431
-447
-485
-538
-597
-651
-690
-708
-700
-669
-618
-556
-491
-432
-386
-357
-346
-353
-371
-397
-423
-443
-454
-451
-435
-405
-366
-320
-275
-235
-205
-191
-194
-216
-257
-311
-374
-439
-498
-545
-572
-576
-556
-513
-453
-383
-312
-248
-202
-177
-176
-198
-239
-292
-350
-403
-445
-471
-481
-474
-455
-428
-401
-377
-361
-357
-365
-385
-414
-451
-491
-533
-571
-602
-624
-634
-631
-616
-591
-559
-527
-499
-482
-478
-490
-518
-559
-609
-663
-713
-757
-790
-811
-822
-824
-822
-819
-818
-821
-830
-845
-865
-889
-914
-939
-960
-975
-982
-979
-965
-940
-907
-869
-830
-796
-770
-756
-758
-774
-802
-838
-876
-909
-933
-943
-938
-918
-887
-850
-812
-782
-763
-760
-774
-805
-849
-901
-953
-999
-1031
-1042
-1027
-983
-910
-811
-688
-548
-396
-239
-83
70
220
368
520
684
867
1080
1329
1620
1954
2327
2733
3158
3589
4008
4399
4746
5037
5262
5413
5486
5480
5394
5230
4991
4682
4310
3886
3423
2937
2447
1971
1527
1130
789
509
289
122
-1
-92
-160
-215
-262
-305
-344
-380
-411
-439
-466
-494
-527
-569
-621
-682
-748
-814
-872
-916
-942
-947
-933
-903
-865
-828
-799
-787
-793
-820
-865
-924
-990
-1056
-1117
-1167
-1204
-1225
-1231
-1224
-1207
-1184
-1160
-1138
-1122
-1115
-1118
-1132
-1155
-1184
-1214
-1241
-1260
-1266
-1259
-1237
-1203
-1160
-1116
-1075
-1043
-1025
-1022
-1035
-1061
-1097
-1138
-1177
-1211
-1234
-1245
-1243
-1230
-1208
-1183
-1159
-1139
-1129
-1129
-1140
-1159
-1182
-1205
-1223
-1233
-1231
-1217
-1192
-1162
-1130
-1102
-1082
-1072
-1074
-1085
-1102
-1122
-1139
-1151
-1157
-1155
-1148
-1137
-1124
-1111
-1099
-1086
-1074
-1061
-1049
-1038
-1030
-1029
-1036
-1051
-1073
-1100
-1126
-1146
-1155
-1150
-1130
-1098
-1060
-1022
-992
-978
-982
-1005
-1044
-1092
-1140
-1180
-1204
-1207
-1187
-1145
-1086
-1016
-942
-872
-812
-769
-746
-745
-766
-806
-861
-925
-991
-1050
-1095
-1119
-1118
-1092
-1043
-979
-908
-840
-784
-750
-740
-757
-795
-847
-905
-957
-995
-1013
-1009
-983
-940
-887
-833
-787
-755
-743
-751
-778
-819
-866
-913
-949
-969
-966
-938
-888
-818
-737
-652
-573
-509
-466
-447
-454
-481
-524
-573
-619
-653
-669
-663
-634
-585
-522
-453
-386
-330
-289
-268
-266
-282
-310
-344
-376
-400
-411
-405
-383
-345
-296
-240
-181
-124
-75
-36
-10
3
3
-8
-27
-52
-79
-104
-122
-131
-130
-116
-92
-61
-27
7
33
47
48
32
1
-41
-89
-137
-178
-205
-214
-200
-165
-111
-44
29
99
157
195
206
189
144
75
-10
-101
-188
-261
-314
-342
-346
-331
-303
-273
-247
-236
-242
-266
-306
-357
-412
-464
-507
-538
-554
-558
-552
-542
-532
-525
-526
-534
-550
-575
-605
-640
-677
-713
-747
-776
-797
-809
-809
-797
-776
-747
-717
-689
-670
-664
-675
-702
-744
-795
-848
-896
-930
-946
-941
-914
-870
-815
-758
-706
-668
-649
-653
-678
-721
-777
-838
-896
-945
-979
-996
-995
-977
-946
-907
-866
-827
-794
-772
-763
-766
-780
-804
-832
-863
-890
-911
-923
-926
-918
-901
-879
-855
-833
-818
-812
-818
-835
-862
-896
-932
-966
-993
-1008
-1007
-990
-956
-909
-853
-795
-743
-704
-684
-689
-720
-774
-845
-924
-999
-1059
-1094
-1097
-1066
-1004
-919
-825
-736
-666
-626
-624
-661
-732
-828
-935
-1038
-1123
-1177
-1195
-1176
-1123
-1044
-953
-860
-778
-718
-685
-681
-704
-749
-809
-873
-934
-983
-1014
-1024
-1014
-985
-944
-895
-846
-803
-771
-751
-747
-755
-775
-801
-830
-857
-878
-892
-896
-891
-878
-857
-833
-808
-785
-767
-755
-754
-762
-781
-809
-843
-881
-917
-947
-966
-971
-961
-937
-901
-858
-813
-775
-750
-741
-752
-781
-825
-878
-933
-981
-1016
-1032
-1027
-1003
-964
-915
-864
-818
-783
-761
-753
-757
-768
-783
-796
-805
-807
-804
-798
-792
-789
-793
-804
-824
-852
-887
-927
-968
-1007
-1042
-1069
-1084
-1085
-1070
-1038
-990
-932
-869
-809
-761
-731
-727
-749
-796
-862
-939
-1015
-1081
-1128
-1149
-1145
-1117
-1072
-1018
-962
-914
-880
-862
-863
-878
-906
-939
-973
-1002
-1022
-1031
-1026
-1008
-980
-946
-910
-877
-854
-844
-850
-872
-909
-956
-1005
-1051
-1084
-1101
-1098
-1074
-1032
-978
-919
-863
-817
-786
-774
-780
-803
-837
-879
-923
-964
-1001
-1030
-1053
-1068
-1076
-1078
-1074
-1065
-1051
-1032
-1012
-991
-974
-961
-956
-960
-971
-988
-1007
-1024
-1035
-1036
-1026
-1007
-980
-950
-923
-902
-890
-890
-900
-920
-945
-970
-990
-1003
-1007
-1000
-983
-959
-932
-906
-885
-872
-871
-881
-902
-932
-966
-998
-1023
-1038
-1040
-1030
-1010
-986
-963
-948
-946
-958
-986
-1024
-1068
-1109
-1142
-1159
-1157
-1136
-1098
-1047
-989
-928
-870
-818
-776
-743
-721
-709
-707
-713
-728
-749
-773
-798
-820
-834
-837
-827
-804
-770
-730
-688
-651
-626
-615
-622
-645
-680
-722
-762
-794
-810
-806
-781
-736
-676
-608
-541
-483
-443
-426
-433
-462
-507
-559
-608
-644
-659
-649
-613
-555
-483
-408
-340
-290
-264
-265
-290
-334
-390
-448
-500
-542
-571
-589
-597
-602
-606
-614
-627
-643
-660
-675
-687
-694
-698
-702
-709
-722
-745
-775
-811
-848
-879
-898
-900
-884
-851
-805
-754
-705
-667
-646
-645
-664
-700
-746
-796
-843
-882
-910
-925
-929
-927
-921
-917
-917
-925
-940
-963
-990
-1018
-1046
-1069
-1086
-1094
-1094
-1085
-1068
-1044
-1018
-991
-966
-948
-939
-942
-960
-991
-1035
-1087
-1141
-1192
-1232
-1256
-1257
-1236
-1193
-1134
-1067
-1001
-946
-910
-900
-917
-960
-1022
-1095
-1166
-1226
-1263
-1271
-1246
-1186
-1094
-978
-842
-695
-542
-388
-233
-74
93
276
482
720
995
1312
1670
2065
2490
2933
3381
3820
4236
4615
4947
5224
5438
5585
5663
5668
5598
5454
5233
4939
4574
4146
3667
3154
2625
2103
1609
1165
786
483
258
107
20
-19
-29
-27
-28
-44
-80
-137
-212
-297
-386
-473
-553
-625
-689
-745
-797
-844
-888
-926
-957
-977
-986
-982
-968
-948
-928
-915
-915
-934
-972
-1029
-1100
-1176
-1249
-1309
-1349
-1364
-1353
-1317
-1265
-1207
-1152
-1112
-1097
-1110
-1153
-1221
-1304
-1392
-1470
-1526
-1552
-1543
-1501
-1430
-1343
-1250
-1165
-1100
-1062
-1056
-1079
-1127
-1193
-1267
-1339
-1400
-1444
-1467
-1467
-1446
-1407
-1355
-1296
-1236
-1181
-1137
-1108
-1096
-1102
-1124
-1159
-1201
-1243
-1281
-1309
-1322
-1321
-1306
-1282
-1252
-1223
-1200
-1187
-1188
-1201
-1227
-1260
-1297
-1330
-1353
-1363
-1354
-1326
-1281
-1225
-1164
-1106
-1062
-1038
-1041
-1072
-1130
-1208
-1294
-1377
-1443
-1481
-1485
-1453
-1386
-1295
-1192
-1090
-1002
-940
-910
-914
-947
-1004
-1075
-1149
-1219
-1275
-1315
-1335
-1336
-1319
-1286
-1240
-1185
-1125
-1063
-1004
-953
-913
-889
-883
-894
-920
-956
-997
-1035
-1064
-1079
-1077
-1060
-1031
-997
-964
-939
-928
-933
-955
-990
-1033
-1076
-1113
-1135
-1139
-1122
-1086
-1035
-975
-912
-856
-810
-781
-768
-771
-786
-808
-831
-849
-857
-853
-835
-805
-765
-719
-671
-626
-587
-557
-539
-534
-542
-562
-592
-627
-664
-697
-721
-731
-724
-696
-650
-588
-515
-438
-365
-303
-257
-230
-221
-227
-241
-257
-266
-262
-243
-207
-158
-102
-46
1
32
42
27
-9
-62
-123
-183
-230
-258
-260
-235
-185
-116
-38
40
108
156
180
179
154
110
56
0
-51
-89
-111
-114
-100
-73
-37
1
35
60
73
70
52
21
-22
-70
-119
-164
-199
-222
-230
-225
-209
-187
-166
-151
-148
-161
-191
-239
-300
-370
-442
-510
-568
-611
-637
-645
-637
-616
-588
-559
-534
-517
-514
-527
-555
-597
-648
-704
-759
-807
-842
-861
-862
-847
-817
-779
-737
-697
-664
-643
-634
-639
-655
-677
-703
-728
-747
-758
-760
-753
-741
-726
-713
-706
-709
-724
-751
-787
-829
-871
-906
-930
-938
-927
-899
-857
-805
-749
-698
-657
-632
-624
-635
-663
-705
-755
-808
-859
-903
-935
-953
-956
-943
-918
-883
-844
-806
-773
-751
-743
-750
-771
-802
-840
-879
-912
-934
-941
-931
-905
-866
-817
-767
-720
-685
-665
-664
-682
-717
-764
-815
-862
-898
-915
-910
-884
-840
-784
-728
-680
-649
-644
-665
-712
-776
-849
-917
-969
-996
-992
-956
-893
-811
-722
-637
-568
-522
-505
-518
-557
-615
-685
-758
-824
-878
-914
-930
-924
-899
-857
-802
-740
-675
-614
-561
-521
-498
-494
-510
-545
-595
-657
-722
-784
-836
-871
-884
-874
-842
-793
-734
-674
-624
-590
-580
-595
-632
-687
-748
-805
-848
-866
-857
-820
-759
-684
-607
-537
-486
-461
-462
-489
-536
-594
-654
-706
-743
-761
-759
-740
-707
-668
-628
-596
-575
-571
-584
-613
-657
-708
-762
-811
-846
-864
-859
-830
-781
-716
-644
-577
-522
-488
-481
-502
-547
-610
-681
-751
-809
-849
-866
-860
-833
-791
-741
-689
-641
-602
-576
-563
-564
-577
-601
-632
-669
-706
-741
-769
-787
-792
-782
-759
-726
-686
-646
-611
-588
-582
-594
-623
-665
-715
-767
-811
-840
-851
-841
-810
-763
-707
-650
-601
-568
-556
-569
-604
-658
-722
-787
-843
-881
-893
-878
-836
-774
-701
-628
-567
-526
-514
-532
-579
-648
-729
-812
-884
-935
-959
-953
-918
-859
-785
-707
-633
-574
-537
-525
-540
-577
-631
-693
-756
-812
-853
-877
-881
-866
-837
-797
-752
-707
-667
-636
-617
-609
-613
-627
-649
-674
-700
-722
-737
-743
-739
-726
-706
-682
-659
-642
-634
-640
-658
-687
-723
-760
-793
-814
-819
-806
-774
-727
-669
-607
-549
-500
-465
-448
-448
-463
-489
-520
-550
-575
-589
-591
-580
-557
-524
-486
-447
-411
-383
-366
-361
-367
-385
-410
-440
-471
-497
-517
-527
-527
-514
-492
-461
-425
-388
-352
-321
-297
-284
-281
-287
-300
-316
-330
-338
-336
-322
-295
-258
-217
-178
-148
-134
-139
-166
-209
-265
-323
-376
-415
-434
-431
-406
-366
-316
-266
-225
-199
-192
-205
-236
-281
-334
-389
-439
-480
-509
-521
-519
-501
-472
-436
-396
-360
-332
-318
-321
-342
-381
-433
-494
-555
-608
-648
-670
-670
-651
-616
-572
-525
-484
-454
-442
-450
-479
-525
-584
-651
-719
-781
-831
-865
-878
-870
-843
-800
-747
-693
-644
-610
-597
-609
-646
-706
-782
-866
-945
-1011
-1053
-1066
-1050
-1006
-940
-863
-786
-718
-667
-640
-636
-655
-690
-736
-783
-824
-856
-876
-884
-883
-875
-866
-858
-851
-844
-835
-818
-789
-742
-674
-583
-467
-328
-167
14
215
436
679
946
1241
1563
1915
2292
2690
3102
3519
3932
4332
4710
5058
5370
5638
5853
6005
6083
6076
5974
5771
5465
5060
4572
4020
3431
2835
2263
1743
1295
932
658
467
346
278
243
222
198
159
98
16
-85
-195
-307
-410
-497
-562
-602
-619
-616
-599
-578
-559
-550
-556
-579
-618
-671
-731
-794
-852
-902
-939
-962
-971
-969
-959
-945
-930
-918
-913
-917
-931
-955
-987
-1025
-1065
-1103
-1134
-1155
-1161
-1151
-1127
-1090
-1046
-999
-956
-922
-902
-896
-907
-931
-966
-1008
-1051
-1093
-1128
-1155
-1171
-1178
-1174
-1162
-1143
-1121
-1099
-1079
-1064
-1056
-1054
-1059
-1069
-1080
-1090
-1095
-1093
-1083
-1064
-1040
-1012
-984
-960
-942
-934
-936
-948
-968
-993
-1020
-1045
-1066
-1078
-1081
-1072
-1054
-1029
-1000
-972
-949
-934
-932
-944
-968
-1001
-1038
-1073
-1100
-1113
-1109
-1087
-1050
-1002
-949
-900
-861
-839
-836
-853
-887
-936
-991
-1047
-1098
-1138
-1163
-1172
-1164
-1142
-1107
-1064
-1018
-971
-930
-897
-875
-866
-870
-885
-908
-936
-962
-981
-988
-981
-957
-919
-870
-818
-769
-730
-709
-707
-726
-763
-811
-863
-911
-947
-966
-965
-946
-911
-868
-824
-784
-755
-740
-738
-747
-764
-782
-796
-801
-794
-774
-741
-699
-651
-602
-557
-520
-494
-481
-481
-492
-513
-538
-564
-585
-597
-598
-584
-557
-517
-470
-418
-368
-325
-293
-275
-272
-282
-302
-326
-347
-360
-359
-341
-305
-252
-189
-120
-53
5
48
72
77
64
36
1
-36
-68
-91
-100
-96
-80
-53
-21
13
45
71
89
100
104
103
99
95
94
97
106
121
141
166
193
220
242
257
263
257
238
208
168
123
77
36
3
-18
-27
-24
-12
3
18
26
24
11
-12
-42
-75
-105
-128
-141
-143
-137
-126
-113
-105
-104
-113
-133
-164
-202
-244
-289
-334
-377
-417
-454
-488
-518
-543
-561
-569
-567
-555
-532
-502
-469
-439
-416
-404
-408
-428
-463
-510
-565
-621
-672
-714
-744
-759
-761
-750
-732
-709
-688
-673
-666
-670
-683
-705
-730
-754
-772
-780
-773
-753
-718
-674
-626
-579
-542
-520
-517
-535
-572
-625
-688
-752
-812
-858
-886
-893
-878
-843
-794
-736
-678
-628
-590
-571
-570
-587
-619
-659
-701
-739
-766
-778
-775
-757
-725
-685
-640
-597
-559
-531
-515
-514
-527
-554
-593
-642
-695
-748
-794
-828
-844
-839
-812
-766
-706
-639
-576
-524
-491
-481
-496
-531
-580
-634
-682
-718
-736
-732
-711
-675
-633
-593
-561
-541
-535
-544
-562
-586
-611
-633
-651
-663
-671
-677
-682
-689
-698
-708
-720
-729
-736
-738
-733
-724
-709
-689
-667
-643
-617
-591
-563
-536
-508
-482
-459
-441
-431
-429
-439
-459
-488
-525
-564
-601
-632
-652
-658
-649
-626
-593
-556
-521
-494
-481
-485
-508
-546
-595
-648
-695
-730
-747
-741
-713
-665
-604
-537
-474
-422
-389
-378
-392
-429
-483
-548
-614
-674
-717
-739
-737
-710
-664
-605
-542
-487
-449
-434
-446
-484
-542
-613
-685
-747
-789
-804
-791
-749
-686
-609
-528
-455
-398
-363
-353
-367
-401
-451
-507
-562
-610
-644
-662
-663
-649
-623
-590
-558
-530
-510
-502
-504
-516
-533
-552
-568
-577
-579
-571
-555
-534
-511
-489
-472
-463
-461
-468
-483
-504
-529
-555
-579
-599
-613
-619
-616
-606
-589
-568
-545
-524
-506
-496
-493
-499
-513
-534
-560
-589
-618
-645
-669
-687
-698
-700
-691
-674
-648
-617
-584
-554
-533
-524
-531
-553
-590
-636
-684
-726
-755
-766
-755
-723
-674
-615
-554
-500
-461
-442
-445
-467
-503
-546
-586
-616
-628
-619
-590
-545
-491
-436
-390
-362
-357
-376
-420
-481
-551
-621
-679
-719
-734
-724
-691
-641
-583
-525
-477
-443
-428
-432
-453
-487
-528
-572
-611
-641
-659
-661
-648
-618
-575
-522
-464
-408
-362
-331
-321
-335
-371
-428
-496
-567
-631
-677
-697
-688
-650
-585
-502
-412
-325
-253
-202
-177
-178
-204
-248
-303
-362
-415
-457
-483
-490
-477
-445
-399
-341
-279
-218
-164
-124
-103
-105
-129
-174
-233
-299
-361
-410
-436
-433
-398
-335
-249
-151
-53
31
91
120
115
79
17
-59
-138
-209
-263
-293
-297
-278
-241
-193
-142
-98
-67
-53
-57
-79
-114
-156
-199
-236
-261
-270
-262
-238
-203
-161
-119
-83
-62
-58
-74
-110
-161
-222
-286
-345
-393
-425
-436
-428
-404
-368
-328
-293
-270
-265
-281
-317
-371
-435
-502
-563
-608
-633
-635
-615
-577
-528
-477
-432
-401
-389
-398
-427
-471
-525
-583
-635
-677
-705
-714
-706
-683
-649
-608
-567
-532
-506
-494
-498
-518
-551
-595
-643
-690
-728
-753
-759
-747
-716
-671
-616
-559
-509
-471
-452
-455
-478
-520
-576
-637
-695
-739
-763
-759
-723
-653
-549
-415
-256
-78
112
308
506
705
905
1111
1328
1566
1830
2128
2462
2831
3230
3650
4076
4493
4882
5228
5514
5726
5855
5894
5841
5696
5465
5156
4781
4353
3889
3408
2926
2460
2025
1632
1287
994
749
550
389
261
158
76
11
-39
-78
-107
-127
-141
-152
-163
-178
-198
-224
-258
-298
-343
-390
-437
-482
-522
-556
-581
-598
-606
-606
-601
-593
-585
-583
-589
-606
-635
-674
-719
-765
-808
-842
-864
-873
-869
-857
-842
-829
-825
-831
-849
-878
-914
-951
-984
-1007
-1017
-1013
-995
-965
-927
-885
-844
-807
-777
-757
-749
-752
-766
-791
-824
-863
-905
-946
-982
-1011
-1028
-1033
-1025
-1005
-975
-940
-903
-868
-839
-819
-809
-809
-819
-835
-854
-872
-886
-892
-888
-873
-849
-818
-785
-755
-732
-720
-723
-741
-770
-807
-846
-880
-902
-908
-895
-864
-820
-768
-718
-678
-654
-652
-672
-711
-761
-816
-866
-900
-915
-906
-876
-830
-776
-724
-683
-662
-663
-687
-731
-786
-844
-897
-936
-956
-954
-932
-894
-845
-793
-745
-705
-679
-668
-671
-687
-713
-744
-776
-807
-831
-848
-855
-852
-838
-815
-785
-752
-717
-685
-660
-644
-639
-646
-663
-689
-719
-749
-773
-785
-783
-763
-727
-677
-620
-562
-513
-482
-472
-488
-528
-586
-653
-717
-766
-789
-779
-734
-656
-555
-441
-326
-224
-145
-95
-76
-87
-121
-170
-225
-278
-319
-342
-343
-321
-277
-215
-140
-60
18
83
131
155
153
127
83
27
-29
-75
-102
-105
-82
-34
34
111
189
258
309
337
341
321
281
227
168
111
64
33
22
34
67
118
179
243
301
345
367
366
341
296
239
178
125
86
68
72
96
135
181
225
260
278
278
258
223
175
123
72
27
-7
-28
-36
-31
-16
5
26
42
49
42
18
-23
-81
-152
-228
-304
-371
-421
-451
-457
-440
-405
-358
-308
-263
-231
-217
-222
-246
-283
-327
-371
-409
-436
-448
-447
-433
-412
-387
-364
-349
-343
-348
-364
-388
-418
-449
-478
-501
-518
-526
-526
-521
-513
-504
-496
-492
-493
-500
-513
-531
-554
-582
-612
-642
-672
-697
-712
-715
-702
-671
-621
-554
-477
-398
-324
-268
-235
-232
-260
-315
-389
-472
-552
-619
-663
-680
-672
-642
-599
-550
-507
-474
-457
-457
-471
-495
-525
-555
-581
-599
-609
-608
-598
-580
-554
-523
-490
-455
-424
-399
-384
-381
-391
-415
-448
-486
-523
-555
-575
-580
-570
-547
-514
-479
-447
-424
-415
-420
-439
-469
-503
-536
-563
-578
-579
-566
-541
-508
-473
-442
-418
-407
-410
-427
-457
-495
-537
-576
-609
-630
-638
-631
-612
-581
-545
-506
-470
-440
-420
-411
-414
-429
-453
-484
-517
-550
-578
-598
-609
-608
-597
-577
-550
-522
-494
-471
-454
-445
-442
-444
-448
-453
-455
-454
-448
-439
-429
-419
-412
-409
-412
-421
-437
-456
-478
-500
-519
-533
-539
-535
-522
-498
-468
-433
-398
-367
-346
-338
-344
-364
-396
-435
-476
-514
-543
-559
-561
-550
-528
-498
-465
-434
-409
-391
-381
-380
-387
-400
-417
-437
-458
-477
-493
-504
-508
-505
-492
-473
-447
-420
-395
-376
-367
-371
-389
-419
-459
-502
-542
-574
-593
-596
-581
-551
-510
-466
-424
-391
-372
-372
-389
-421
-464
-509
-550
-579
-592
-585
-558
-515
-461
-406
-357
-322
-306
-313
-342
-388
-445
-505
-558
-597
-617
-616
-594
-555
-505
-452
-403
-364
-338
-330
-336
-356
-384
-416
-447
-474
-493
-502
-501
-490
-472
-448
-421
-395
-373
-358
-353
-359
-377
-406
-444
-487
-531
-571
-602
-621
-623
-609
-580
-540
-493
-447
-406
-376
-361
-363
-379
-408
-443
-480
-512
-534
-543
-538
-520
-492
-459
-427
-400
-383
-380
-391
-417
-455
-500
-549
-593
-629
-652
-657
-643
-610
-562
-504
-441
-381
-331
-296
-280
-284
-305
-338
-376
-412
-439
-453
-452
-437
-411
-381
-351
-330
-319
-321
-337
-364
-397
-433
-466
-494
-513
-525
-528
-523
-510
-492
-469
-440
-408
-374
-341
-311
-288
-274
-269
-273
-282
-294
-302
-301
-289
-263
-225
-178
-129
-83
-48
-29
-29
-48
-82
-126
-173
-214
-243
-255
-246
-217
-170
-112
-49
12
63
99
116
115
97
67
32
-1
-25
-35
-28
-5
28
65
98
117
117
92
45
-21
-99
-177
-246
-297
-323
-321
-292
-240
-173
-100
-30
28
70
91
92
75
43
3
-40
-80
-114
-138
-150
-152
-145
-132
-118
-106
-99
-102
-115
-140
-174
-218
-266
-317
-366
-409
-443
-465
-473
-466
-448
-420
-386
-352
-323
-304
-298
-307
-333
-373
-424
-481
-541
-596
-641
-674
-691
-689
-671
-637
-591
-540
-490
-446
-414
-398
-400
-418
-446
-480
-512
-535
-544
-538
-517
-486
-453
-426
-412
-417
-442
-485
-540
-601
-658
-704
-733
-741
-727
-694
-646
-586
-520
-450
-379
-309
-239
-170
-100
-27
52
141
245
371
525
713
941
1212
1525
1878
2262
2669
3087
3504
3907
4288
4638
4951
5224
5455
5641
5777
5858
5877
5825
5695
5480
5178
4791
4332
3817
3268
2713
2180
1695
1279
947
702
542
453
418
417
429
436
423
384
317
224
112
-9
-130
-242
-338
-413
-464
-490
-493
-478
-450
-415
-382
-356
-345
-352
-381
-430
-495
-572
-652
-727
-790
-835
-859
-862
-845
-815
-779
-743
-714
-697
-697
-712
-741
-781
-825
-868
-903
-928
-939
-936
-920
-894
-863
-832
-804
-785
-776
-779
-793
-817
-849
-884
-919
-950
-973
-986
-986
-972
-943
-903
-854
-801
-752
-712
-689
-687
-707
-749
-807
-874
-940
-994
-1026
-1031
-1006
-954
-881
-798
-717
-651
-608
-594
-611
-654
-715
-785
-853
-908
-945
-958
-949
-922
-881
-835
-792
-758
-738
-734
-748
-776
-813
-855
-895
-926
-944
-944
-925
-891
-845
-796
-750
-715
-698
-703
-729
-773
-826
-881
-927
-957
-965
-950
-913
-861
-802
-744
-694
-661
-646
-651
-672
-705
-744
-783
-815
-836
-844
-837
-814
-779
-734
-684
-634
-588
-552
-528
-519
-525
-543
-572
-606
-640
-670
-693
-706
-709
-702
-688
-670
-650
-631
-615
-604
-599
-600
-607
-619
-634
-648
-658
-660
-649
-623
-580
-521
-451
-377
-308
-254
-223
-221
-249
-304
-378
-459
-532
-586
-610
-597
-548
-467
-365
-253
-145
-53
15
52
60
41
3
-47
-98
-143
-176
-191
-187
-163
-123
-69
-7
59
122
177
221
248
259
254
236
208
178
150
130
124
132
155
191
234
279
319
347
360
356
334
299
255
209
171
146
141
156
192
243
303
362
411
442
449
430
387
326
254
183
122
78
56
58
80
115
156
194
220
228
216
184
136
76
12
-49
-102
-143
-171
-184
-187
-183
-175
-167
-164
-165
-173
-188
-209
-234
-262
-291
-320
-347
-371
-391
-405
-412
-412
-406
-393
-377
-360
-346
-338
-340
-352
-374
-406
-444
-482
-517
-543
-557
-558
-545
-520
-489
-455
-424
-399
-385
-382
-389
-406
-429
-454
-477
-494
-503
-503
-494
-479
-462
-447
-439
-443
-462
-496
-544
-603
-667
-728
-778
-810
-819
-801
-758
-693
-612
-526
-444
-376
-330
-311
-321
-356
-411
-478
-546
-604
-646
-665
-660
-632
-586
-530
-473
-423
-387
-370
-372
-391
-424
-464
-505
-538
-560
-568
-559
-537
-505
-467
-427
-392
-366
-353
-356
-374
-406
-449
-498
-548
-592
-623
-637
-632
-608
-568
-520
-470
-429
-405
-402
-425
-471
-534
-605
-673
-729
-764
-771
-750
-704
-637
-557
-474
-396
-331
-284
-258
-253
-271
-308
-360
-424
-491
-556
-612
-649
-663
-650
-609
-544
-463
-375
-294
-230
-193
-189
-218
-274
-349
-431
-506
-564
-597
-601
-578
-534
-478
-419
-369
-334
-318
-324
-348
-384
-426
-465
-497
-514
-515
-499
-468
-425
-376
-328
-287
-259
-249
-259
-289
-335
-393
-455
-511
-553
-574
-570
-541
-491
-428
-361
-303
-263
-250
-267
-313
-383
-466
-550
-623
-675
-697
-687
-647
-584
-505
-423
-347
-286
-247
-232
-240
-269
-312
-363
-414
-459
-492
-510
-512
-498
-470
-434
-394
-357
-328
-311
-310
-326
-359
-405
-460
-519
-577
-625
-659
-675
-670
-643
-598
-540
-473
-407
-350
-308
-288
-294
-323
-372
-434
-498
-555
-594
-610
-597
-558
-497
-424
-349
-284
-238
-219
-229
-267
-327
-401
-477
-546
-597
-624
-623
-596
-547
-484
-417
-355
-307
-281
-281
-307
-356
-421
-496
-568
-629
-670
-684
-670
-628
-564
-487
-407
-336
-284
-257
-259
-289
-342
-407
-473
-531
-571
-588
-581
-553
-513
-468
-429
-404
-395
-405
-431
-467
-506
-541
-566
-576
-571
-551
-519
-478
-433
-389
-350
-320
-302
-298
-309
-335
-373
-420
-471
-520
-561
-589
-599
-589
-561
-519
-469
-418
-374
-343
-328
-331
-350
-382
-419
-457
-489
-509
-517
-510
-489
-459
-422
-382
-343
-309
-282
-265
-256
-256
-263
-276
-293
-312
-330
-344
-351
-348
-333
-305
-264
-213
-156
-100
-52
-16
0
-5
-30
-72
-124
-177
-223
-254
-264
-251
-218
-170
-115
-60
-15
16
31
29
14
-9
-34
-55
-68
-70
-59
-37
-7
29
66
101
130
149
155
148
128
96
55
12
-29
-63
-83
-88
-76
-49
-13
26
61
86
94
82
52
6
-51
-111
-167
-212
-242
-255
-250
-231
-201
-166
-132
-104
-86
-84
-98
-128
-174
-232
-297
-362
-421
-467
-494
-500
-483
-447
-396
-339
-284
-241
-216
-214
-235
-277
-333
-395
-455
-506
-542
-560
-562
-551
-530
-504
-478
-453
-433
-416
-402
-391
-384
-380
-381
-388
-403
-425
-452
-482
-511
-537
-557
-568
-573
-571
-566
-562
-560
-563
-571
-580
-588
-593
-591
-581
-564
-541
-516
-493
-473
-457
-443
-427
-404
-366
-307
-221
-104
47
231
447
691
959
1248
1554
1874
2207
2549
2899
3256
3616
3979
4341
4697
5042
5369
5666
5923
6124
6254
6298
6240
6073
5792
5403
4918
4359
3755
3136
2539
1992
1523
1147
871
690
591
553
551
562
563
540
482
391
271
135
-5
-133
-240
-316
-359
-370
-354
-320
-279
-240
-213
-205
-220
-257
-317
-393
-480
-570
-657
-732
-791
-828
-841
-831
-802
-757
-706
-654
-611
-582
-573
-584
-613
-657
-709
-761
-807
-840
-858
-858
-844
-819
-788
-759
-736
-724
-726
-742
-771
-809
-852
-894
-930
-956
-967
-962
-941
-907
-862
-814
-767
-730
-707
-702
-716
-746
-788
-836
-880
-915
-934
-933
-913
-876
-827
-773
-721
-678
-649
-639
-650
-679
-722
-775
-830
-882
-923
-949
-956
-943
-911
-865
-809
-751
-699
-660
-639
-639
-659
-697
-747
-799
-846
-879
-893
-885
-854
-805
-743
-678
-618
-571
-543
-538
-555
-592
-641
-695
-745
-785
-808
-810
-793
-760
-714
-665
-618
-579
-555
-546
-553
-575
-608
-646
-686
-722
-751
-769
-777
-772
-756
-731
-700
-665
-631
-601
-578
-567
-567
-581
-604
-634
-665
-689
-702
-699
-679
-642
-595
-543
-495
-460
-444
-450
-477
-521
-573
-626
-668
-691
-691
-665
-618
-553
-481
-409
-347
-299
-270
-259
-264
-281
-304
-326
-343
-350
-345
-325
-290
-244
-188
-128
-67
-11
36
70
89
92
80
56
24
-10
-40
-61
-70
-62
-37
4
58
122
189
254
311
356
384
394
387
365
332
294
259
230
215
216
234
267
311
359
406
445
471
481
473
451
418
380
344
316
302
304
322
354
394
436
471
492
494
474
433
376
308
238
174
123
91
80
88
112
146
185
221
250
267
270
259
236
203
163
120
80
45
19
3
-2
5
19
37
56
69
72
63
39
1
-50
-108
-168
-226
-275
-311
-333
-340
-332
-313
-287
-259
-235
-219
-214
-223
-246
-282
-326
-372
-416
-450
-469
-471
-456
-425
-385
-341
-301
-271
-257
-260
-280
-314
-357
-402
-444
-478
-500
-509
-506
-491
-468
-440
-410
-383
-359
-344
-338
-344
-361
-389
-424
-463
-501
-529
-543
-539
-516
-476
-425
-371
-324
-294
-287
-306
-351
-415
-487
-556
-610
-638
-635
-601
-542
-466
-387
-318
-268
-245
-252
-285
-337
-401
-465
-521
-561
-582
-583
-565
-533
-491
-444
-395
-349
-310
-280
-261
-254
-261
-281
-313
-354
-400
-445
-486
-517
-534
-535
-523
-499
-468
-434
-405
-385
-376
-381
-398
-423
-452
-478
-495
-498
-485
-455
-411
-357
-302
-252
-215
-196
-198
-219
-256
-301
-346
-382
-400
-398
-374
-332
-279
-223
-175
-142
-132
-148
-187
-244
-313
-383
-447
-496
-526
-535
-525
-498
-459
-413
-367
-322
-284
-253
-230
-216
-211
-213
-223
-238
-257
-278
-297
-311
-318
-316
-305
-287
-266
-246
-232
-230
-243
-271
-311
-360
-408
-449
-475
-480
-462
-424
-370
-309
-249
-199
-168
-158
-171
-203
-249
-299
-347
-385
-407
-413
-401
-376
-342
-305
-270
-243
-226
-221
-227
-244
-268
-298
-329
-361
-390
-414
-432
-442
-444
-438
-424
-404
-380
-356
-336
-322
-318
-324
-341
-365
-393
-419
-438
-447
-440
-417
-380
-332
-278
-227
-183
-153
-141
-149
-176
-219
-273
-332
-389
-437
-471
-489
-487
-466
-430
-382
-331
-281
-241
-217
-212
-228
-264
-316
-377
-440
-494
-532
-549
-542
-512
-463
-404
-342
-287
-246
-226
-228
-250
-287
-332
-376
-412
-434
-436
-420
-386
-341
-292
-245
-209
-190
-191
-214
-256
-313
-377
-440
-494
-533
-552
-550
-528
-491
-447
-403
-367
-345
-341
-355
-384
-422
-462
-495
-515
-517
-498
-459
-405
-341
-275
-215
-165
-133
-120
-126
-150
-188
-236
-288
-338
-383
-417
-438
-444
-436
-414
-383
-345
-304
-267
-236
-215
-206
-209
-222
-244
-271
-298
-318
-329
-326
-307
-273
-226
-172
-117
-68
-31
-14
-20
-48
-96
-156
-221
-281
-325
-346
-341
-308
-252
-178
-98
-20
45
89
110
105
80
40
-8
-53
-89
-109
-110
-93
-59
-13
38
90
135
170
190
196
187
164
133
96
58
24
-3
-19
-23
-16
2
28
57
84
104
114
112
96
69
34
-4
-37
-61
-71
-63
-37
4
55
110
161
201
224
225
205
165
110
48
-15
-71
-115
-141
-151
-145
-127
-104
-79
-61
-53
-58
-77
-109
-152
-200
-250
-296
-334
-360
-375
-377
-370
-357
-345
-337
-338
-352
-380
-421
-471
-525
-575
-614
-635
-633
-606
-556
-486
-403
-318
-239
-176
-137
-125
-143
-187
-251
-327
-406
-476
-529
-558
-560
-534
-484
-417
-341
-267
-206
-165
-151
-166
-208
-272
-351
-434
-509
-566
-595
-591
-548
-469
-356
-216
-56
115
291
466
639
812
990
1179
1386
1620
1887
2189
2529
2901
3297
3708
4119
4517
4888
5220
5501
5724
5880
5966
5976
5909
5763
5539
5239
4871
4443
3971
3471
2964
2471
2011
1602
1257
982
776
634
544
492
465
448
432
409
376
334
284
229
173
116
61
6
-49
-104
-159
-213
-262
-305
-339
-363
-377
-383
-385
-386
-392
-406
-430
-464
-506
-551
-596
-635
-664
-679
-681
-671
-653
-629
-606
-587
-576
-575
-584
-603
-631
-663
-697
-728
-752
-763
-761
-743
-711
-666
-616
-564
-520
-488
-475
-483
-512
-560
-622
-689
-756
-814
-857
-881
-886
-871
-840
-796
-743
-688
-635
-590
-556
-536
-531
-541
-563
-595
-631
-666
-694
-710
-711
-697
-669
-630
-587
-545
-510
-485
-473
-475
-490
-514
-545
-579
-613
-643
-667
-685
-696
-700
-697
-690
-681
-671
-662
-657
-656
-660
-666
-674
-681
-681
-673
-656
-627
-588
-543
-496
-452
-418
-398
-396
-413
-449
-501
-562
-626
-686
-733
-762
-769
-754
-718
-667
-609
-553
-506
-475
-463
-470
-492
-522
-552
-574
-579
-565
-530
-479
-418
-356
-302
-263
-246
-254
-284
-333
-395
-461
-524
-576
-612
-628
-626
-604
-567
-518
-462
-405
-350
-303
-268
-246
-239
-247
-266
-293
-320
-343
-356
-353
-332
-293
-242
-183
-126
-78
-48
-41
-58
-95
-144
-197
-242
-268
-266
-234
-172
-87
12
114
206
277
322
337
324
288
238
183
132
93
74
76
101
144
202
267
333
391
435
461
465
448
412
364
311
260
221
199
199
222
267
328
399
471
536
589
625
640
636
615
582
542
500
462
431
410
400
398
405
415
427
436
440
436
425
406
381
352
320
289
260
236
217
206
200
201
205
211
216
218
212
199
175
142
102
57
12
-28
-59
-78
-83
-75
-56
-33
-10
7
12
1
-27
-69
-123
-182
-239
-286
-320
-335
-331
-310
-278
-240
-207
-185
-179
-194
-228
-278
-338
-400
-455
-496
-517
-517
-495
-455
-403
-346
-291
-246
-215
-201
-205
-224
-256
-295
-337
-375
-404
-421
-422
-408
-379
-340
-294
-248
-208
-180
-166
-169
-189
-223
-265
-311
-353
-387
-409
-417
-411
-394
-370
-342
-314
-291
-274
-265
-264
-270
-282
-297
-315
-332
-347
-359
-367
-370
-366
-356
-340
-318
-293
-267
-244
-228
-222
-229
-251
-285
-329
-378
-426
-465
-490
-496
-482
-451
-406
-355
-307
-268
-245
-241
-255
-285
-323
-361
-392
-410
-409
-389
-353
-305
-253
-204
-166
-145
-143
-160
-194
-238
-286
-332
-369
-390
-395
-383
-354
-315
-269
-222
-181
-149
-131
-127
-139
-166
-203
-249
-297
-343
-384
-415
-433
-436
-426
-404
-373
-336
-299
-265
-239
-223
-215
-217
-225
-236
-245
-249
-247
-237
-220
-199
-176
-155
-141
-136
-143
-160
-187
-221
-258
-293
-322
-343
-352
-350
-337
-316
-291
-265
-242
-225
-217
-218
-228
-245
-267
-291
-312
-329
-339
-340
-331
-313
-287
-257
-225
-196
-174
-162
-163
-178
-206
-243
-286
-327
-362
-384
-390
-378
-352
-313
-268
-225
-189
-167
-161
-173
-200
-237
-279
-319
-351
-370
-374
-362
-338
-307
-273
-244
-224
-218
-225
-246
-276
-311
-346
-374
-393
-398
-391
-372
-345
-315
-287
-263
-247
-241
-245
-257
-274
-295
-315
-332
-345
-350
-347
-337
-318
-293
-264
-232
-200
-172
-150
-137
-135
-146
-166
-195
-229
-264
-294
-315
-325
-324
-312
-292
-270
-250
-238
-237
-248
-270
-300
-333
-363
-384
-394
-390
-374
-349
-319
-290
-267
-254
-253
-264
-284
-308
-334
-356
-370
-375
-370
-354
-331
-303
-274
-246
-223
-206
-198
-199
-209
-227
-251
-279
-307
-333
-354
-368
-373
-369
-357
-339
-318
-297
-279
-267
-263
-268
-281
-299
-321
-344
-363
-376
-380
-376
-361
-339
-309
-274
-238
-203
-172
-147
-131
-125
-129
-143
-165
-192
-220
-246
-264
-271
-263
-240
-205
-162
-115
-72
-38
-18
-15
-27
-51
-81
-110
-131
-141
-136
-116
-83
-44
-3
35
63
80
84
77
59
35
9
-15
-34
-45
-45
-32
-6
32
78
129
178
220
248
259
249
220
176
121
64
12
-28
-51
-55
-43
-16
20
59
95
126
148
159
160
151
132
105
71
32
-10
-51
-88
-116
-131
-132
-118
-91
-57
-23
4
17
12
-12
-53
-103
-156
-200
-230
-239
-225
-192
-146
-95
-51
-22
-15
-34
-79
-144
-223
-308
-388
-456
-505
-532
-537
-521
-489
-445
-396
-347
-306
-275
-258
-255
-267
-290
-321
-355
-385
-408
-418
-413
-395
-365
-329
-293
-264
-248
-248
-266
-299
-343
-390
-434
-467
-484
-482
-464
-432
-392
-353
-320
-299
-293
-301
-319
-343
-364
-374
-367
-337
-280
-195
-81
58
219
399
594
803
1024
1257
1505
1769
2053
2357
2683
3030
3395
3773
4155
4531
4890
5218
5502
5728
5884
5958
5941
5830
5623
5325
4945
4497
4000
3478
2953
2450
1990
1589
1257
999
809
677
591
532
487
441
386
318
239
155
74
5
-46
-74
-79
-67
-43
-17
1
4
-15
-56
-118
-196
-281
-366
-443
-505
-551
-579
-590
-589
-580
-568
-558
-554
-559
-572
-595
-624
-657
-691
-721
-745
-759
-761
-750
-728
-696
-660
-626
-599
-584
-582
-595
-620
-653
-689
-721
-743
-751
-745
-725
-694
-658
-621
-590
-569
-559
-562
-576
-600
-630
-663
-696
-727
-752
-769
-779
-778
-766
-743
-712
-674
-635
-598
-571
-556
-558
-577
-613
-660
-712
-762
-802
-825
-828
-809
-770
-716
-655
-596
-546
-513
-499
-507
-534
-575
-623
-670
-708
-732
-738
-724
-692
-648
-596
-544
-499
-466
-450
-452
-472
-505
-547
-592
-633
-666
-686
-691
-682
-661
-633
-603
-574
-552
-540
-538
-545
-560
-580
-599
-616
-627
-630
-627
-618
-605
-590
-578
-568
-563
-563
-566
-572
-580
-587
-592
-594
-593
-586
-574
-558
-536
-510
-481
-450
-419
-392
-369
-354
-348
-351
-365
-385
-409
-433
-452
-461
-458
-441
-411
-370
-325
-279
-239
-212
-200
-206
-227
-260
-298
-334
-361
-371
-361
-331
-282
-219
-150
-83
-27
13
33
31
10
-23
-64
-102
-129
-140
-131
-100
-51
14
86
159
224
276
309
323
317
293
257
215
174
140
118
112
124
154
201
259
325
393
456
508
545
565
566
550
521
483
443
407
380
366
367
382
407
439
469
493
505
500
479
442
394
340
288
245
217
207
217
243
282
326
367
398
412
405
376
328
267
199
134
79
43
29
38
68
114
166
215
252
269
261
226
167
89
2
-86
-163
-221
-256
-263
-245
-208
-157
-104
-57
-25
-13
-25
-60
-117
-189
-268
-347
-416
-471
-504
-513
-499
-465
-415
-358
-301
-252
-216
-198
-199
-218
-249
-289
-329
-363
-386
-396
-391
-373
-346
-314
-283
-256
-237
-228
-231
-243
-264
-291
-321
-349
-373
-389
-395
-390
-373
-347
-315
-282
-252
-232
-225
-235
-261
-301
-349
-401
-449
-486
-506
-507
-488
-449
-397
-336
-275
-220
-180
-159
-161
-185
-231
-291
-360
-427
-484
-523
-538
-528
-492
-438
-373
-307
-251
-213
-199
-210
-242
-288
-340
-386
-420
-434
-426
-399
-357
-310
-265
-229
-209
-207
-221
-248
-282
-318
-349
-372
-384
-385
-377
-360
-340
-318
-296
-278
-265
-258
-257
-263
-274
-290
-309
-328
-343
-352
-352
-339
-315
-280
-237
-191
-146
-110
-86
-77
-88
-115
-157
-208
-263
-315
-358
-386
-396
-387
-359
-318
-269
-219
-176
-147
-137
-148
-180
-229
-288
-349
-404
-443
-460
-452
-420
-367
-299
-224
-152
-91
-50
-32
-38
-66
-113
-171
-232
-288
-330
-354
-356
-336
-298
-247
-192
-140
-102
-83
-87
-117
-169
-238
-313
-387
-449
-490
-504
-491
-452
-393
-323
-252
-190
-145
-122
-123
-146
-186
-235
-285
-328
-358
-372
-367
-347
-316
-279
-241
-207
-181
-164
-159
-163
-176
-196
-220
-247
-275
-302
-326
-345
-359
-365
-363
-353
-336
-314
-289
-265
-245
-231
-225
-227
-237
-253
-271
-289
-303
-310
-309
-299
-281
-259
-236
-216
-204
-203
-215
-239
-274
-315
-356
-390
-411
-414
-397
-361
-312
-257
-203
-161
-140
-144
-174
-229
-301
-381
-458
-521
-562
-575
-559
-517
-455
-383
-311
-249
-204
-180
-180
-199
-233
-275
-317
-353
-377
-387
-383
-366
-341
-310
-279
-251
-229
-215
-210
-214
-227
-248
-276
-308
-340
-370
-394
-408
-409
-397
-373
-340
-302
-267
-239
-223
-222
-235
-259
-289
-318
-340
-352
-350
-336
-313
-285
-259
-239
-227
-225
-231
-243
-258
-273
-287
-300
-312
-325
-340
-357
-375
-390
-400
-401
-393
-374
-348
-318
-289
-268
-258
-260
-273
-293
-313
-325
-325
-309
-276
-232
-181
-133
-96
-75
-74
-93
-125
-164
-200
-225
-233
-221
-189
-143
-89
-36
9
38
50
43
19
-16
-56
-96
-128
-150
-157
-149
-126
-89
-41
13
70
125
172
208
228
231
216
184
140
90
39
-6
-39
-57
-58
-44
-18
16
53
87
115
132
139
134
120
100
76
53
35
23
20
26
42
65
91
117
138
148
144
125
91
45
-8
-61
-107
-140
-156
-154
-135
-105
-69
-35
-11
-3
-13
-42
-86
-140
-196
-247
-288
-312
-318
-305
-278
-239
-196
-155
-123
-104
-105
-126
-169
-230
-306
-390
-474
-550
-609
-645
-656
-640
-603
-550
-491
-434
-389
-362
-356
-371
-402
-445
-490
-530
-560
-575
-573
-556
-526
-487
-444
-402
-365
-336
-317
-312
-322
-346
-384
-433
-487
-542
-588
-619
-627
-609
-563
-490
-396
-288
-177
-69
30
115
189
256
327
413
526
677
877
1130
1437
1795
2195
2626
3075
3526
3965
4379
4757
5092
5378
5613
5796
5925
6000
6018
5974
5864
5682
5424
5089
4683
4214
3700
3163
2629
2124
1672
1291
994
783
651
586
567
574
585
582
554
495
405
290
161
29
-95
-199
-279
-330
-354
-356
-342
-320
-299
-285
-283
-294
-320
-358
-405
-458
-511
-562
-608
-645
-671
-687
-691
-684
-668
-644
-617
-593
-575
-570
-580
-607
-648
-699
-752
-798
-827
-834
-813
-767
-700
-622
-545
-480
-436
-420
-434
-475
-537
-609
-682
-748
-799
-832
-846
-841
-822
-791
-754
-714
-675
-640
-613
-597
-595
-607
-633
-670
-712
-753
-787
-807
-810
-794
-762
-720
-676
-640
-617
-614
-632
-667
-713
-762
-804
-832
-841
-829
-798
-753
-700
-645
-596
-556
-527
-511
-506
-510
-523
-541
-563
-588
-616
-643
-667
-687
-699
-702
-695
-680
-661
-642
-629
-628
-641
-669
-710
-758
-804
-840
-857
-850
-815
-756
-678
-591
-507
-437
-390
-372
-384
-424
-483
-554
-626
-689
-734
-759
-759
-738
-700
-649
-593
-539
-492
-457
-439
-438
-453
-484
-524
-569
-612
-644
-662
-660
-636
-592
-530
-459
-386
-318
-264
-230
-217
-225
-251
-289
-331
-370
-400
-414
-411
-390
-353
-306
-253
-202
-157
-125
-108
-108
-123
-148
-178
-207
-227
-235
-225
-197
-154
-99
-39
20
70
106
124
122
102
68
25
-19
-59
-86
-96
-86
-55
-4
62
136
212
281
336
372
386
379
357
324
289
260
244
245
265
301
350
403
453
492
515
519
504
474
433
388
348
317
303
306
328
365
413
465
515
554
579
584
569
534
483
422
357
294
239
198
174
168
181
209
246
288
327
358
373
369
344
299
237
163
86
13
-46
-86
-103
-97
-71
-32
11
49
74
80
64
28
-25
-86
-148
-203
-243
-263
-263
-244
-211
-170
-130
-97
-78
-78
-96
-134
-187
-250
-316
-377
-428
-463
-479
-474
-451
-412
-364
-312
-262
-221
-192
-179
-180
-197
-225
-261
-301
-341
-378
-408
-430
-443
-447
-444
-434
-421
-407
-396
-388
-387
-393
-405
-422
-440
-456
-466
-469
-461
-445
-421
-395
-371
-354
-348
-355
-375
-406
-443
-479
-509
-526
-527
-510
-477
-429
-374
-316
-263
-219
-189
-175
-177
-194
-222
-257
-295
-331
-362
-383
-393
-390
-377
-353
-324
-293
-266
-246
-239
-247
-271
-310
-359
-414
-466
-509
-535
-540
-521
-480
-422
-353
-285
-226
-186
-172
-186
-227
-288
-361
-434
-495
-534
-545
-525
-477
-407
-326
-246
-176
-128
-106
-111
-142
-191
-251
-311
-363
-401
-418
-415
-393
-354
-307
-257
-210
-172
-148
-139
-147
-170
-204
-244
-287
-326
-358
-379
-387
-381
-364
-338
-306
-272
-242
-219
-205
-203
-212
-230
-256
-284
-309
-326
-331
-320
-292
-249
-195
-137
-83
-43
-23
-29
-63
-121
-197
-281
-362
-428
-470
-481
-462
-417
-352
-278
-207
-149
-114
-105
-121
-161
-217
-281
-343
-395
-432
-448
-444
-420
-381
-333
-281
-234
-197
-174
-168
-179
-204
-240
-281
-320
-352
-371
-376
-365
-340
-306
-268
-231
-203
-187
-187
-203
-233
-273
-319
-365
-405
-434
-451
-454
-443
-422
-394
-365
-339
-321
-313
-318
-334
-359
-389
-417
-440
-451
-447
-426
-390
-341
-285
-227
-176
-136
-112
-107
-121
-150
-191
-237
-283
-321
-349
-364
-364
-353
-332
-307
-282
-261
-247
-242
-247
-260
-279
-301
-323
-341
-355
-364
-368
-368
-367
-366
-366
-368
-371
-375
-379
-380
-379
-375
-370
-366
-362
-361
-363
-366
-368
-367
-361
-348
-327
-300
-270
-241
-220
-209
-212
-230
-261
-300
-343
-383
-414
-431
-433
-419
-392
-356
-316
-278
-247
-227
-219
-225
-240
-263
-289
-311
-325
-328
-318
-294
-261
-221
-183
-153
-136
-137
-157
-196
-248
-306
-362
-409
-440
-451
-440
-412
-371
-324
-279
-241
-215
-203
-206
-220
-240
-263
-283
-297
-302
-298
-284
-262
-234
-201
-168
-135
-105
-79
-59
-46
-40
-42
-50
-62
-78
-93
-106
-113
-111
-101
-82
-56
-27
2
25
39
42
30
6
-27
-66
-104
-134
-152
-155
-139
-106
-59
-4
55
109
154
186
202
203
189
166
138
111
88
73
67
72
86
105
128
150
168
179
184
180
169
153
133
113
94
79
68
63
62
67
76
88
103
117
130
139
142
140
130
114
93
69
44
22
6
-2
0
10
26
42
54
57
46
18
-26
-84
-151
-219
-281
-331
-363
-374
-367
-344
-314
-282
-258
-247
-253
-278
-317
-366
-416
-460
-491
-503
-493
-461
-413
-353
-289
-229
-180
-148
-135
-142
-167
-205
-251
-299
-342
-375
-396
-402
-394
-374
-347
-318
-292
-274
-267
-273
-292
-322
-361
-403
-447
-486
-517
-539
-549
-547
-535
-511
-478
-436
-385
-327
-262
-191
-112
-26
70
179
305
455
635
852
1109
1410
1753
2134
2546
2979
3420
3857
4278
4673
5035
5357
5636
5868
6051
6179
6247
6247
6173
6016
5773
5443
5031
4549
4014
3446
2873
2320
1813
1373
1016
749
572
476
446
463
503
546
570
562
512
421
294
142
-19
-174
-307
-405
-461
-473
-446
-388
-311
-231
-161
-112
-93
-106
-150
-219
-305
-399
-489
-566
-623
-658
-669
-661
-637
-606
-574
-550
-539
-545
-568
-607
-659
-717
-775
-827
-865
-884
-881
-856
-810
-748
-675
-601
-534
-480
-447
-439
-457
-498
-558
-627
-697
-757
-800
-820
-815
-789
-747
-698
-652
-619
-605
-613
-643
-690
-746
-801
-846
-872
-876
-855
-814
-757
-694
-631
-578
-539
-518
-515
-530
-559
-597
-639
-681
-719
-748
-767
-774
-768
-750
-722
-687
-648
-611
-580
-561
-555
-564
-588
-623
-663
-704
-737
-758
-763
-751
-721
-680
-633
-585
-545
-516
-501
-502
-516
-539
-566
-590
-605
-610
-601
-579
-546
-508
-469
-437
-417
-413
-426
-457
-503
-557
-614
-666
-705
-728
-731
-714
-681
-637
-588
-541
-502
-476
-466
-470
-487
-513
-544
-575
-600
-618
-626
-621
-605
-577
-540
-496
-449
-401
-357
-320
-295
-283
-284
-298
-321
-347
-370
-385
-385
-369
-334
-285
-226
-165
-111
-71
-51
-54
-80
-124
-179
-236
-285
-317
-326
-307
-263
-197
-116
-29
54
126
180
213
225
219
199
173
147
127
118
123
142
174
215
261
306
343
369
379
372
348
313
271
231
202
191
204
242
303
380
465
546
612
655
669
652
608
546
475
405
346
304
284
286
306
339
380
421
458
486
503
508
502
486
464
439
415
396
385
382
390
406
428
450
467
474
467
444
406
354
293
228
166
111
66
33
12
3
3
11
24
40
58
74
86
91
87
71
43
4
-42
-92
-139
-178
-205
-216
-213
-198
-178
-158
-146
-146
-161
-191
-233
-283
-334
-380
-414
-433
-435
-420
-390
-349
-302
-255
-214
-184
-169
-174
-197
-239
-295
-360
-425
-484
-530
-555
-557
-536
-494
-438
-374
-310
-255
-213
-189
-184
-196
-221
-256
-293
-328
-354
-369
-370
-358
-334
-304
-272
-246
-231
-233
-255
-296
-353
-421
-490
-551
-597
-619
-615
-586
-534
-469
-398
-332
-279
-246
-235
-246
-275
-316
-362
-406
-439
-458
-459
-441
-406
-357
-300
-240
-186
-143
-119
-116
-136
-177
-235
-302
-368
-424
-461
-473
-458
-416
-354
-281
-209
-149
-111
-100
-120
-165
-229
-300
-367
-418
-445
-445
-419
-373
-314
-253
-199
-159
-138
-135
-148
-173
-204
-234
-261
-281
-294
-300
-301
-298
-292
-283
-271
-254
-236
-216
-197
-182
-175
-179
-194
-220
-252
-285
-314
-331
-332
-315
-280
-233
-181
-130
-91
-70
-71
-96
-140
-198
-262
-321
-366
-391
-391
-365
-316
-251
-178
-107
-48
-10
1
-17
-62
-128
-207
-288
-359
-409
-433
-426
-390
-333
-264
-197
-143
-113
-113
-143
-200
-273
-350
-419
-467
-486
-472
-428
-359
-275
-189
-112
-53
-17
-7
-20
-54
-101
-155
-210
-260
-302
-334
-354
-362
-359
-347
-325
-298
-269
-241
-218
-203
-198
-204
-219
-242
-267
-291
-308
-314
-311
-297
-276
-252
-229
-211
-204
-208
-223
-249
-281
-317
-350
-378
-395
-401
-392
-370
-337
-295
-248
-202
-160
-129
-111
-110
-125
-156
-199
-247
-294
-335
-362
-372
-364
-340
-304
-261
-219
-186
-166
-163
-179
-211
-254
-302
-347
-383
-405
-409
-393
-361
-316
-264
-212
-167
-134
-119
-122
-144
-181
-228
-281
-330
-370
-396
-403
-391
-362
-319
-270
-220
-179
-151
-142
-152
-182
-225
-278
-331
-377
-411
-425
-419
-393
-349
-295
-239
-188
-151
-136
-146
-182
-242
-320
-405
-488
-555
-595
-603
-574
-510
-418
-309
-198
-98
-22
21
28
1
-53
-124
-198
-264
-312
-337
-336
-312
-272
-222
-171
-126
-91
-67
-56
-55
-60
-69
-76
-80
-79
-71
-56
-36
-12
14
39
60
75
80
72
50
16
-26
-73
-116
-149
-164
-156
-122
-64
13
98
182
252
299
314
297
250
180
99
20
-44
-82
-90
-64
-9
66
152
235
305
353
373
365
331
277
212
144
81
32
1
-10
-3
22
57
97
135
165
183
185
173
148
114
76
40
10
-11
-21
-22
-15
-4
7
16
19
18
11
2
-9
-21
-34
-50
-70
-95
-127
-163
-200
-235
-261
-274
-271
-253
-223
-189
-159
-144
-152
-187
-250
-334
-430
-524
-602
-651
-662
-635
-571
-482
-379
-279
-196
-141
-120
-132
-173
-234
-302
-367
-419
-452
-462
-450
-422
-382
-337
-296
-262
-240
-232
-237
-254
-281
-316
-354
-391
-426
-453
-470
-475
-465
-437
-393
-332
-255
-166
-65
45
163
290
429
586
766
977
1223
1509
1834
2197
2589
3002
3422
3838
4238
4611
4951
5250
5506
5713
5869
5967
6002
5966
5854
5662
5388
5038
4621
4152
3652
3140
2641
2174
1756
1399
1110
888
729
623
558
521
499
479
453
415
362
295
218
135
51
-28
-99
-160
-210
-249
-281
-306
-326
-342
-355
-364
-369
-372
-373
-376
-385
-401
-428
-466
-514
-567
-619
-664
-694
-707
-699
-673
-634
-589
-547
-515
-500
-504
-526
-562
-606
-650
-687
-711
-719
-711
-688
-656
-620
-584
-554
-533
-522
-521
-530
-547
-568
-593
-617
-638
-654
-661
-659
-647
-626
-599
-571
-546
-531
-531
-548
-583
-633
-691
-749
-798
-830
-839
-823
-783
-726
-660
-596
-543
-508
-496
-508
-540
-586
-637
-685
-722
-742
-744
-727
-695
-652
-604
-556
-513
-480
-458
-449
-453
-468
-494
-527
-566
-607
-647
-681
-707
-722
-722
-707
-677
-636
-589
-541
-499
-469
-457
-463
-488
-527
-574
-619
-654
-672
-667
-640
-592
-531
-466
-408
-369
-354
-369
-411
-476
-552
-626
-687
-722
-725
-693
-630
-545
-449
-356
-280
-231
-214
-230
-272
-333
-400
-462
-508
-531
-528
-501
-455
-398
-338
-284
-240
-212
-200
-203
-219
-243
-272
-303
-331
-355
-372
-380
-379
-368
-344
-311
-270
-224
-178
-136
-103
-82
-74
-78
-90
-106
-118
-121
-109
-80
-35
24
88
150
200
232
239
222
181
127
67
15
-19
-26
0
57
140
240
343
435
506
546
553
527
476
412
347
295
266
266
297
355
433
521
606
678
728
752
749
720
673
614
553
498
455
428
420
428
450
483
520
555
585
605
611
604
583
550
510
465
421
382
352
335
331
339
356
377
396
409
409
394
362
315
257
193
131
75
31
2
-14
-18
-13
-4
6
13
17
15
10
0
-12
-27
-44
-63
-84
-106
-127
-144
-154
-155
-145
-125
-97
-68
-42
-26
-26
-43
-80
-132
-195
-260
-319
-366
-395
-404
-395
-370
-335
-299
-266
-243
-233
-237
-254
-280
-309
-335
-352
-355
-344
-316
-276
-228
-178
-136
-107
-97
-109
-144
-197
-262
-332
-398
-453
-489
-503
-496
-469
-428
-379
-329
-286
-253
-234
-231
-241
-261
-288
-317
-343
-362
-371
-368
-353
-326
-289
-247
-203
-162
-129
-109
-104
-118
-150
-198
-257
-321
-382
-434
-468
-482
-472
-441
-391
-331
-267
-206
-156
-122
-106
-108
-127
-158
-197
-237
-273
-299
-311
-307
-288
-254
-210
-162
-117
-83
-68
-75
-105
-157
-224
-296
-362
-411
-435
-428
-392
-332
-257
-179
-111
-63
-43
-52
-87
-142
-207
-270
-322
-355
-366
-354
-321
-273
-215
-156
-101
-57
-28
-17
-26
-52
-94
-148
-207
-265
-314
-349
-364
-357
-330
-284
-227
-168
-114
-75
-55
-58
-83
-124
-173
-223
-263
-287
-290
-272
-235
-186
-132
-83
-46
-28
-31
-55
-96
-148
-202
-253
-291
-314
-318
-306
-280
-246
-210
-179
-157
-148
-154
-173
-201
-235
-269
-297
-316
-323
-318
-300
-273
-239
-202
-166
-132
-103
-81
-68
-63
-68
-82
-107
-140
-179
-221
-262
-298
-323
-334
-331
-315
-289
-260
-234
-216
-213
-224
-250
-286
-327
-364
-391
-402
-397
-374
-337
-293
-246
-203
-170
-150
-146
-155
-177
-209
-248
-288
-327
-358
-380
-388
-379
-355
-317
-268
-215
-166
-127
-104
-103
-124
-163
-215
-270
-320
-357
-376
-374
-353
-320
-282
-248
-226
-220
-232
-260
-299
-341
-379
-405
-415
-405
-376
-332
-277
-218
-160
-111
-75
-54
-52
-67
-97
-141
-193
-249
-302
-348
-381
-399
-399
-381
-350
-309
-266
-226
-196
-181
-183
-202
-236
-280
-327
-370
-402
-418
-415
-392
-352
-300
-241
-183
-133
-98
-81
-84
-106
-144
-193
-246
-297
-341
-373
-392
-397
-390
-373
-349
-323
-296
-273
-254
-243
-238
-242
-251
-266
-284
-300
-313
-317
-310
-291
-259
-217
-169
-121
-78
-47
-30
-31
-48
-78
-115
-152
-183
-201
-202
-185
-152
-106
-54
-3
40
69
80
72
47
9
-35
-78
-111
-130
-129
-107
-67
-13
48
108
160
197
217
219
204
176
141
103
66
36
13
-2
-6
-2
11
33
61
96
135
176
213
243
262
267
256
232
196
155
114
79
55
44
47
60
80
101
116
123
119
103
79
50
21
-2
-15
-16
-3
19
48
77
100
112
108
85
45
-9
-70
-131
-184
-221
-240
-237
-214
-178
-136
-98
-72
-66
-83
-124
-184
-258
-337
-412
-475
-520
-542
-541
-519
-480
-429
-372
-315
-264
-224
-199
-191
-200
-226
-265
-311
-358
-399
-429
-442
-437
-414
-378
-334
-291
-255
-232
-227
-238
-263
-298
-336
-372
-401
-420
-428
-426
-417
-403
-385
-366
-344
-320
-290
-254
-210
-157
-95
-22
63
162
279
420
590
794
1036
1316
1633
1980
2350
2733
3119
3498
3863
4211
4539
4847
5134
5399
5635
5834
5984
6067
6069
5976
5778
5473
5068
4579
4027
3442
2857
2301
1800
1377
1040
794
630
536
496
488
496
502
494
465
412
338
246
144
41
-56
-138
-200
-237
-250
-241
-214
-177
-138
-107
-93
-103
-139
-200
-283
-379
-478
-569
-642
-691
-711
-704
-674
-629
-580
-536
-505
-493
-502
-531
-573
-624
-675
-720
-753
-771
-772
-757
-729
-692
-649
-605
-566
-536
-517
-511
-520
-542
-576
-617
-660
-701
-733
-752
-756
-743
-716
-679
-638
-601
-573
-559
-563
-585
-621
-666
-712
-751
-776
-782
-767
-732
-681
-621
-559
-504
-465
-446
-451
-480
-530
-594
-664
-731
-786
-820
-828
-808
-762
-695
-616
-536
-466
-415
-391
-397
-429
-482
-545
-607
-656
-682
-683
-656
-607
-543
-477
-419
-380
-364
-376
-411
-466
-530
-596
-653
-696
-718
-720
-701
-665
-617
-564
-511
-464
-428
-406
-400
-412
-439
-479
-527
-576
-621
-655
-675
-676
-659
-626
-582
-532
-482
-440
-409
-392
-389
-398
-416
-437
-457
-473
-480
-478
-467
-448
-423
-395
-368
-343
-323
-309
-301
-300
-303
-310
-318
-326
-330
-330
-324
-314
-299
-282
-266
-251
-240
-233
-232
-234
-238
-242
-241
-235
-221
-197
-164
-124
-78
-30
17
61
97
125
141
147
141
126
103
77
51
30
18
20
37
71
120
182
252
321
384
434
465
476
465
435
392
344
298
264
248
253
282
332
398
471
541
600
638
651
635
592
528
451
373
303
252
227
231
264
322
397
480
559
626
672
692
684
650
594
524
447
373
311
265
242
243
265
303
350
397
436
456
454
426
374
303
223
142
72
21
-5
-5
18
57
102
143
170
178
162
124
68
3
-62
-120
-163
-188
-194
-183
-160
-132
-104
-83
-73
-75
-91
-118
-155
-197
-239
-277
-307
-326
-330
-320
-295
-259
-217
-174
-139
-117
-114
-133
-173
-230
-297
-366
-426
-469
-487
-479
-445
-391
-325
-258
-199
-157
-136
-139
-161
-198
-243
-286
-322
-345
-353
-347
-330
-307
-281
-257
-238
-225
-217
-215
-218
-224
-235
-250
-270
-294
-321
-349
-376
-396
-407
-405
-389
-359
-320
-278
-240
-213
-202
-210
-235
-274
-320
-363
-394
-407
-397
-363
-308
-238
-165
-97
-44
-14
-11
-35
-84
-149
-224
-297
-360
-406
-430
-430
-407
-368
-317
-263
-215
-178
-158
-156
-173
-204
-243
-285
-321
-346
-355
-346
-321
-283
-238
-192
-152
-123
-110
-113
-131
-161
-196
-233
-264
-285
-294
-288
-270
-241
-205
-168
-135
-108
-92
-88
-98
-119
-151
-190
-232
-273
-308
-334
-346
-345
-329
-300
-262
-220
-179
-145
-122
-114
-121
-143
-176
-213
-250
-281
-299
-301
-288
-261
-223
-181
-140
-107
-85
-76
-82
-100
-128
-159
-190
-217
-236
-246
-246
-239
-227
-213
-201
-193
-192
-197
-209
-226
-244
-261
-275
-283
-282
-273
-255
-231
-203
-173
-147
-126
-113
-111
-119
-138
-165
-199
-234
-268
-297
-318
-328
-326
-312
-288
-257
-224
-191
-166
-151
-149
-162
-189
-225
-266
-307
-340
-360
-364
-350
-319
-276
-226
-176
-133
-103
-89
-94
-115
-150
-191
-233
-270
-296
-307
-302
-283
-254
-220
-187
-162
-151
-158
-183
-225
-281
-344
-406
-460
-498
-515
-507
-478
-429
-368
-301
-237
-183
-143
-120
-115
-125
-145
-172
-199
-223
-242
-254
-259
-259
-254
-247
-238
-229
-219
-211
-203
-199
-198
-202
-212
-228
-249
-273
-296
-316
-330
-334
-328
-311
-286
-256
-226
-201
-184
-179
-186
-203
-229
-257
-282
-300
-307
-301
-283
-256
-226
-197
-175
-166
-172
-194
-230
-275
-324
-370
-406
-427
-431
-415
-383
-338
-285
-233
-187
-153
-136
-137
-155
-186
-225
-265
-301
-325
-334
-327
-307
-277
-243
-211
-187
-174
-174
-185
-204
-225
-243
-254
-256
-247
-228
-204
-175
-148
-123
-104
-92
-88
-90
-97
-109
-124
-142
-159
-173
-183
-185
-177
-158
-128
-90
-48
-5
31
56
68
64
47
20
-11
-41
-63
-73
-68
-50
-18
23
70
119
164
202
232
250
257
253
239
217
189
157
124
95
72
57
52
58
73
96
122
149
173
190
199
199
190
175
156
137
122
112
111
118
133
153
175
195
209
214
208
191
163
128
89
50
16
-11
-28
-33
-28
-14
4
23
39
49
48
35
12
-20
-58
-97
-133
-161
-177
-180
-170
-147
-117
-85
-57
-41
-41
-62
-104
-166
-242
-324
-403
-469
-512
-527
-512
-468
-402
-324
-247
-182
-140
-126
-144
-188
-251
-322
-388
-438
-462
-456
-421
-364
-293
-220
-155
-108
-87
-92
-124
-178
-246
-319
-389
-450
-497
-524
-532
-521
-493
-453
-403
-347
-289
-230
-171
-110
-45
29
118
230
371
547
760
1014
1306
1632
1986
2361
2749
3142
3533
3914
4283
4633
4961
5264
5536
5772
5964
6104
6183
6191
6122
5968
5727
5401
4996
4524
4003
3454
2902
2372
1888
1472
1136
887
724
638
613
627
659
688
696
672
610
512
384
239
90
-50
-169
-256
-308
-324
-310
-271
-218
-161
-112
-79
-70
-88
-132
-200
-285
-379
-472
-555
-621
-666
-687
-687
-670
-642
-611
-584
-566
-561
-569
-589
-618
-651
-683
-708
-724
-728
-721
-703
-677
-647
-616
-589
-567
-553
-546
-548
-556
-570
-587
-605
-624
-640
-654
-663
-667
-666
-659
-646
-628
-606
-584
-563
-547
-538
-538
-547
-563
-582
-600
-613
-617
-609
-589
-560
-528
-499
-480
-476
-491
-527
-578
-639
-701
-755
-792
-808
-798
-765
-712
-647
-580
-521
-476
-453
-453
-475
-515
-565
-618
-664
-697
-713
-708
-684
-646
-598
-548
-501
-464
-438
-427
-428
-439
-456
-477
-497
-514
-528
-538
-545
-550
-552
-551
-547
-539
-527
-513
-496
-481
-469
-464
-468
-481
-501
-523
-543
-555
-555
-538
-506
-462
-413
-365
-328
-309
-311
-336
-379
-434
-491
-541
-575
-588
-576
-543
-494
-436
-377
-325
-287
-264
-257
-264
-281
-301
-320
-333
-337
-331
-313
-285
-250
-210
-169
-131
-97
-73
-59
-58
-68
-89
-117
-149
-178
-201
-211
-207
-187
-151
-102
-46
12
67
114
150
174
187
190
187
182
180
183
194
212
237
269
303
338
372
403
429
451
467
478
485
487
485
480
474
467
462
462
469
483
505
533
563
592
612
618
607
578
531
474
414
361
324
312
329
374
442
522
602
670
713
724
700
645
567
478
390
317
267
247
257
291
342
398
449
486
502
493
460
406
340
267
195
133
84
52
38
39
51
70
89
103
107
98
76
41
-3
-52
-100
-141
-172
-188
-190
-178
-155
-127
-98
-74
-59
-56
-67
-89
-122
-160
-200
-235
-261
-276
-276
-260
-231
-189
-141
-90
-45
-9
10
9
-13
-56
-115
-185
-257
-323
-376
-410
-422
-414
-388
-351
-309
-271
-243
-230
-232
-249
-278
-313
-350
-382
-405
-417
-415
-400
-373
-335
-289
-238
-187
-140
-103
-79
-72
-84
-116
-164
-224
-287
-344
-388
-410
-406
-377
-326
-259
-187
-120
-68
-40
-37
-60
-102
-157
-212
-259
-290
-300
-290
-262
-224
-185
-152
-132
-130
-144
-172
-208
-245
-277
-300
-310
-309
-300
-288
-276
-268
-267
-272
-282
-293
-301
-304
-301
-291
-276
-258
-238
-217
-196
-176
-154
-132
-110
-89
-73
-64
-68
-84
-115
-156
-204
-252
-292
-319
-328
-317
-288
-247
-199
-152
-112
-84
-70
-72
-84
-104
-127
-149
-166
-177
-183
-184
-181
-177
-171
-166
-161
-155
-147
-136
-125
-114
-104
-100
-103
-114
-133
-159
-188
-216
-237
-248
-245
-229
-201
-167
-132
-105
-90
-93
-115
-152
-200
-250
-293
-321
-328
-311
-270
-210
-140
-70
-9
35
54
48
18
-32
-92
-154
-209
-247
-264
-259
-233
-192
-144
-99
-65
-48
-54
-81
-128
-187
-251
-308
-352
-376
-377
-356
-316
-264
-209
-157
-117
-94
-90
-104
-134
-175
-219
-261
-295
-315
-319
-307
-281
-245
-205
-166
-134
-114
-108
-116
-136
-166
-200
-235
-265
-289
-304
-310
-307
-297
-282
-263
-241
-219
-197
-179
-166
-162
-167
-182
-207
-238
-271
-298
-313
-312
-292
-251
-195
-131
-69
-19
11
12
-17
-72
-147
-230
-310
-373
-412
-419
-395
-344
-275
-199
-125
-65
-25
-11
-20
-52
-98
-153
-210
-261
-302
-330
-344
-344
-332
-311
-284
-254
-225
-198
-177
-163
-157
-158
-167
-181
-200
-219
-238
-254
-267
-274
-278
-277
-274
-270
-266
-263
-262
-263
-265
-268
-270
-271
-269
-262
-251
-235
-215
-190
-163
-137
-113
-95
-83
-81
-88
-103
-124
-149
-174
-196
-212
-220
-220
-213
-202
-188
-176
-169
-168
-175
-189
-210
-234
-259
-280
-295
-301
-295
-276
-247
-210
-169
-127
-91
-63
-48
-46
-58
-80
-110
-142
-171
-192
-201
-194
-169
-128
-75
-12
52
111
158
186
192
174
136
84
25
-28
-67
-83
-70
-29
35
113
193
262
309
328
317
278
222
159
102
62
47
59
96
152
217
282
336
374
392
390
371
339
300
259
221
189
163
146
138
138
146
161
182
205
230
251
267
274
272
261
241
216
189
163
142
128
122
122
128
136
145
152
155
154
147
134
116
94
66
35
2
-31
-62
-89
-111
-125
-134
-136
-136
-137
-142
-154
-175
-204
-239
-274
-304
-323
-327
-314
-283
-239
-187
-134
-90
-60
-50
-62
-95
-144
-205
-267
-325
-372
-403
-416
-411
-390
-359
-321
-283
-248
-221
-205
-202
-211
-232
-263
-303
-347
-392
-433
-465
-486
-492
-482
-457
-420
-377
-331
-288
-252
-224
-202
-183
-159
-121
-62
27
148
305
493
709
946
1199
1464
1739
2025
2327
2647
2990
3356
3742
4142
4545
4938
5306
5633
5908
6120
6260
6323
6307
6209
6028
5765
5425
5013
4539
4020
3476
2931
2411
1940
1540
1222
993
847
770
743
742
745
731
688
612
504
376
242
115
11
-62
-100
-105
-85
-50
-15
9
12
-12
-63
-138
-227
-322
-411
-485
-536
-561
-561
-539
-503
-462
-426
-403
-399
-417
-455
-509
-572
-635
-689
-725
-739
-727
-692
-638
-574
-508
-451
-412
-397
-408
-445
-503
-572
-644
-707
-752
-776
-774
-750
-709
-661
-613
-576
-555
-553
-570
-600
-638
-674
-702
-716
-712
-692
-657
-613
-566
-521
-483
-456
-440
-435
-440
-453
-472
-496
-523
-552
-582
-613
-641
-664
-679
-683
-675
-654
-623
-585
-546
-512
-488
-480
-489
-515
-556
-603
-650
-689
-712
-714
-694
-655
-600
-538
-477
-428
-397
-388
-401
-432
-476
-526
-573
-610
-634
-641
-634
-614
-588
-560
-534
-514
-500
-493
-491
-493
-497
-502
-506
-509
-512
-512
-510
-506
-497
-484
-465
-444
-421
-401
-385
-378
-380
-392
-412
-436
-459
-475
-481
-472
-449
-413
-369
-321
-276
-239
-214
-202
-205
-218
-239
-263
-286
-304
-315
-316
-309
-293
-270
-243
-214
-186
-159
-137
-121
-111
-108
-110
-115
-120
-120
-114
-97
-71
-36
4
45
80
105
114
105
79
40
-7
-52
-87
-105
-100
-71
-18
53
136
221
302
370
422
455
469
467
453
430
403
376
354
339
334
341
361
395
440
494
552
607
655
688
704
700
679
642
598
554
515
488
477
484
505
537
575
613
646
668
677
672
654
624
586
544
501
463
432
413
405
410
426
450
477
503
521
527
517
490
447
391
328
265
208
164
137
128
136
159
189
221
247
262
263
248
220
181
139
98
65
43
35
40
55
75
96
111
114
101
71
23
-39
-113
-191
-266
-332
-380
-406
-406
-379
-330
-262
-186
-112
-49
-8
5
-12
-59
-128
-212
-298
-375
-434
-468
-474
-454
-413
-360
-305
-257
-223
-208
-213
-235
-270
-310
-348
-376
-389
-383
-358
-316
-262
-203
-146
-100
-70
-60
-73
-107
-156
-213
-271
-321
-354
-365
-353
-318
-267
-206
-144
-92
-58
-45
-57
-90
-139
-195
-249
-292
-319
-326
-314
-286
-248
-209
-177
-156
-151
-162
-186
-218
-254
-285
-309
-322
-322
-310
-290
-264
-236
-209
-186
-167
-153
-144
-141
-144
-153
-167
-186
-210
-236
-260
-279
-290
-290
-276
-249
-212
-170
-127
-91
-68
-61
-73
-100
-140
-184
-226
-258
-273
-270
-246
-206
-154
-98
-47
-6
20
28
19
-6
-43
-86
-131
-173
-207
-230
-241
-237
-219
-188
-147
-101
-54
-12
16
27
18
-13
-63
-125
-191
-252
-298
-323
-321
-294
-244
-181
-113
-52
-7
15
13
-15
-61
-119
-179
-231
-269
-285
-279
-251
-206
-151
-94
-42
-5
13
10
-14
-56
-108
-163
-213
-249
-266
-260
-233
-190
-137
-85
-41
-15
-10
-28
-67
-121
-180
-236
-280
-303
-303
-280
-235
-177
-112
-49
4
42
61
59
39
2
-47
-104
-164
-222
-274
-317
-348
-365
-366
-353
-326
-289
-245
-202
-165
-138
-125
-128
-145
-174
-208
-240
-263
-272
-264
-239
-200
-153
-106
-66
-41
-33
-45
-74
-116
-162
-206
-240
-259
-260
-245
-216
-179
-142
-110
-89
-82
-90
-111
-141
-177
-213
-244
-268
-282
-286
-280
-266
-247
-222
-196
-169
-143
-120
-103
-92
-89
-96
-113
-138
-171
-207
-243
-274
-296
-306
-302
-285
-258
-225
-192
-164
-145
-138
-145
-162
-187
-215
-239
-255
-259
-250
-228
-196
-160
-124
-96
-79
-76
-88
-114
-151
-193
-236
-272
-297
-307
-303
-284
-255
-219
-183
-150
-127
-116
-117
-130
-152
-180
-208
-232
-249
-258
-255
-244
-223
-197
-168
-139
-112
-90
-77
-73
-81
-100
-131
-169
-210
-249
-279
-293
-286
-256
-203
-132
-51
30
101
153
179
179
153
109
55
4
-37
-60
-61
-43
-9
34
78
115
140
151
148
135
117
98
84
78
83
99
123
156
193
233
273
312
348
378
401
414
416
406
382
346
301
250
199
155
124
109
113
137
176
223
270
310
333
336
317
277
224
165
108
64
39
35
52
87
133
181
223
253
265
260
238
203
161
117
78
47
29
23
29
43
63
82
96
99
90
66
27
-25
-85
-148
-207
-257
-293
-313
-314
-300
-274
-242
-209
-181
-163
-157
-164
-183
-211
-244
-279
-311
-335
-350
-353
-344
-325
-299
-267
-233
-201
-175
-156
-148
-151
-164
-188
-218
-253
-288
-320
-345
-360
-365
-359
-343
-320
-293
-266
-243
-228
-223
-227
-240
-257
-272
-280
-273
-245
-192
-111
-3
130
285
454
634
821
1014
1213
1425
1654
1907
2192
2513
2871
3263
3682
4116
4551
4968
5352
5685
5953
6144
6250
6267
6193
6032
5789
5472
5093
4666
4204
3726
3246
2781
2343
1942
1587
1282
1026
818
655
530
439
376
335
312
302
300
301
302
297
282
253
209
148
74
-11
-99
-184
-259
-316
-352
-363
-353
-324
-285
-245
-212
-193
-195
-219
-264
-325
-395
-465
-527
-574
-600
-605
-589
-556
-512
-466
-423
-392
-376
-381
-408
-454
-517
-590
-666
-738
-795
-830
-840
-820
-774
-706
-623
-537
-458
-396
-358
-348
-366
-407
-463
-524
-578
-618
-636
-630
-601
-557
-504
-455
-417
-399
-406
-437
-489
-553
-621
-681
-726
-747
-742
-712
-661
-596
-527
-463
-411
-376
-362
-366
-388
-422
-462
-503
-539
-566
-581
-583
-571
-548
-515
-476
-436
-400
-374
-362
-366
-387
-423
-471
-524
-575
-618
-647
-659
-653
-630
-596
-557
-518
-487
-467
-460
-467
-484
-507
-530
-548
-556
-551
-532
-499
-455
-403
-348
-298
-256
-227
-216
-224
-249
-289
-337
-389
-437
-476
-499
-505
-493
-466
-429
-387
-347
-314
-293
-284
-290
-308
-336
-369
-404
-436
-461
-475
-476
-461
-428
-379
-316
-245
-170
-102
-48
-16
-9
-30
-75
-135
-201
-261
-304
-321
-308
-266
-200
-120
-39
33
86
113
113
90
51
4
-39
-70
-81
-69
-35
20
90
166
243
311
365
400
416
412
392
361
325
292
267
257
263
287
326
377
436
497
554
601
634
652
653
637
606
564
514
463
416
378
356
352
367
401
450
507
565
617
655
675
675
656
622
580
537
501
479
474
486
514
552
594
632
660
672
665
637
592
533
469
405
351
311
291
289
304
331
359
383
392
381
347
292
221
143
68
5
-35
-50
-37
0
53
113
171
218
248
258
249
221
180
129
73
14
-46
-106
-165
-221
-271
-313
-342
-356
-354
-335
-302
-261
-219
-181
-155
-143
-146
-163
-189
-216
-240
-253
-252
-237
-210
-175
-140
-111
-97
-100
-123
-165
-221
-284
-346
-398
-433
-446
-432
-395
-337
-266
-193
-125
-71
-37
-26
-39
-70
-112
-156
-194
-218
-225
-213
-185
-146
-104
-67
-40
-29
-35
-58
-94
-136
-180
-218
-248
-266
-273
-271
-263
-254
-247
-245
-249
-259
-272
-284
-293
-295
-289
-274
-251
-224
-195
-167
-145
-129
-122
-122
-129
-142
-158
-177
-198
-218
-238
-255
-266
-270
-265
-248
-219
-181
-136
-90
-48
-17
-3
-9
-36
-81
-138
-201
-261
-309
-339
-348
-333
-298
-246
-183
-117
-55
-3
35
54
54
36
2
-43
-94
-146
-193
-229
-251
-256
-246
-222
-187
-148
-109
-76
-55
-49
-57
-80
-113
-152
-190
-222
-242
-246
-233
-206
-166
-120
-75
-37
-14
-8
-22
-54
-99
-149
-197
-235
-256
-257
-237
-200
-152
-101
-53
-16
6
10
-1
-25
-58
-95
-131
-163
-189
-207
-218
-220
-214
-201
-182
-158
-133
-108
-86
-69
-61
-63
-75
-93
-116
-137
-153
-160
-157
-142
-118
-90
-63
-44
-37
-46
-71
-111
-162
-217
-270
-315
-347
-363
-362
-344
-313
-275
-235
-197
-168
-150
-145
-152
-169
-192
-218
-240
-254
-256
-244
-219
-183
-140
-97
-61
-37
-30
-43
-77
-127
-190
-256
-318
-367
-398
-405
-389
-349
-292
-225
-156
-94
-47
-20
-16
-36
-74
-125
-180
-230
-267
-287
-285
-265
-229
-186
-144
-111
-93
-96
-119
-159
-209
-262
-309
-344
-360
-356
-332
-292
-240
-185
-132
-88
-55
-38
-36
-50
-77
-114
-159
-205
-250
-288
-316
-331
-331
-315
-287
-248
-205
-163
-127
-102
-92
-98
-118
-151
-190
-229
-264
-288
-299
-294
-277
-248
-214
-179
-148
-126
-114
-113
-122
-138
-160
-185
-208
-230
-247
-259
-265
-266
-260
-249
-233
-214
-195
-178
-166
-161
-165
-178
-197
-220
-241
-257
-264
-259
-244
-219
-189
-158
-131
-112
-102
-102
-108
-119
-128
-134
-132
-123
-105
-80
-51
-20
11
40
66
87
102
110
108
98
78
51
20
-12
-39
-56
-57
-40
-6
44
102
162
213
249
263
252
220
171
113
58
14
-11
-11
13
60
122
190
254
305
336
344
327
290
239
183
131
91
70
70
92
132
184
240
290
328
345
340
311
262
198
126
56
-4
-48
-70
-70
-48
-8
45
104
160
208
240
252
242
210
160
96
25
-45
-106
-152
-177
-179
-161
-125
-80
-32
9
37
45
31
-3
-54
-116
-182
-243
-293
-326
-341
-335
-313
-279
-239
-200
-168
-149
-147
-163
-197
-244
-298
-352
-396
-424
-430
-412
-371
-312
-243
-175
-119
-84
-78
-103
-158
-236
-329
-424
-507
-568
-600
-598
-563
-502
-423
-338
-259
-195
-153
-138
-149
-179
-220
-261
-291
-299
-275
-216
-117
17
184
374
580
795
1012
1228
1444
1662
1890
2134
2404
2705
3041
3413
3814
4235
4663
5080
5467
5806
6078
6267
6359
6347
6227
6001
5675
5262
4780
4252
3702
3157
2641
2176
1776
1452
1202
1021
895
807
741
679
611
529
433
328
224
129
55
6
-16
-14
4
28
48
53
37
-1
-60
-133
-211
-284
-345
-386
-406
-408
-395
-375
-357
-347
-350
-370
-406
-455
-512
-571
-625
-670
-701
-714
-708
-683
-643
-590
-532
-475
-427
-395
-387
-403
-445
-507
-582
-660
-727
-774
-793
-781
-738
-672
-594
-514
-447
-400
-380
-388
-420
-468
-522
-573
-614
-637
-642
-631
-607
-578
-549
-524
-508
-503
-508
-523
-546
-574
-605
-635
-661
-682
-694
-696
-686
-665
-635
-597
-556
-515
-480
-455
-444
-448
-467
-499
-540
-583
-623
-653
-667
-662
-636
-591
-531
-464
-399
-347
-316
-312
-339
-394
-472
-562
-652
-728
-780
-798
-779
-726
-645
-549
-449
-361
-294
-259
-256
-284
-336
-402
-471
-532
-576
-598
-595
-569
-524
-466
-404
-344
-295
-260
-244
-248
-273
-316
-374
-440
-509
-572
-623
-655
-663
-644
-600
-535
-456
-373
-296
-233
-192
-178
-191
-227
-279
-338
-394
-438
-463
-466
-447
-410
-359
-303
-248
-203
-170
-153
-151
-160
-176
-193
-207
-212
-205
-187
-158
-120
-80
-40
-5
21
36
40
35
24
10
-1
-7
-3
13
39
76
121
170
219
264
301
326
339
340
329
311
290
271
260
260
275
304
347
399
455
510
557
591
609
610
593
562
521
475
429
387
355
335
329
338
361
394
435
478
519
553
577
588
586
572
549
522
496
476
465
466
478
499
525
550
569
575
565
536
489
427
354
278
204
141
93
66
60
75
109
155
206
257
300
328
337
326
293
243
178
108
37
-25
-74
-103
-113
-103
-79
-47
-15
9
19
11
-18
-65
-124
-188
-249
-299
-331
-342
-331
-302
-259
-211
-165
-128
-105
-101
-114
-142
-180
-223
-262
-293
-311
-313
-300
-274
-240
-205
-175
-156
-152
-164
-191
-229
-271
-311
-342
-358
-357
-340
-309
-270
-229
-193
-167
-154
-156
-172
-198
-231
-266
-300
-330
-354
-371
-380
-383
-377
-365
-345
-319
-288
-254
-221
-193
-173
-165
-169
-185
-212
-244
-276
-303
-319
-323
-313
-292
-264
-233
-207
-189
-184
-193
-214
-243
-276
-306
-329
-340
-340
-326
-304
-275
-244
-215
-191
-175
-167
-167
-174
-187
-204
-223
-244
-263
-279
-290
-294
-290
-277
-257
-231
-201
-171
-146
-127
-120
-125
-143
-171
-207
-247
-284
-314
-333
-340
-334
-316
-290
-261
-236
-218
-211
-215
-229
-249
-269
-284
-288
-278
-252
-213
-165
-114
-67
-31
-10
-7
-22
-53
-93
-139
-185
-225
-256
-276
-283
-278
-262
-237
-206
-171
-138
-110
-91
-84
-91
-111
-143
-183
-226
-264
-291
-305
-301
-280
-246
-204
-160
-122
-95
-83
-89
-110
-144
-185
-229
-269
-300
-320
-326
-318
-297
-266
-230
-194
-161
-136
-122
-120
-130
-150
-176
-203
-228
-246
-255
-253
-242
-222
-198
-173
-150
-132
-120
-115
-117
-126
-139
-156
-175
-195
-214
-232
-246
-255
-257
-253
-243
-228
-211
-196
-187
-186
-196
-217
-247
-282
-316
-343
-358
-356
-337
-302
-256
-205
-157
-121
-102
-103
-126
-166
-219
-276
-329
-370
-394
-399
-383
-350
-307
-260
-216
-182
-163
-161
-176
-206
-244
-285
-323
-352
-367
-368
-355
-331
-299
-266
-235
-210
-193
-185
-185
-191
-200
-210
-219
-228
-236
-243
-250
-257
-263
-266
-265
-260
-249
-235
-219
-204
-195
-194
-203
-223
-251
-281
-310
-330
-338
-329
-305
-270
-229
-190
-160
-147
-154
-181
-225
-279
-334
-381
-412
-421
-404
-364
-306
-238
-170
-112
-72
-55
-64
-96
-146
-206
-268
-323
-363
-383
-382
-362
-326
-283
-240
-203
-179
-172
-181
-205
-240
-278
-313
-338
-349
-343
-319
-282
-236
-187
-142
-108
-88
-84
-97
-123
-159
-201
-242
-279
-307
-324
-330
-324
-309
-286
-258
-227
-196
-167
-142
-123
-110
-105
-105
-108
-112
-113
-108
-94
-70
-35
8
56
104
147
178
195
192
171
132
80
20
-39
-91
-126
-140
-129
-93
-33
43
127
208
278
327
350
343
309
255
188
119
61
21
8
22
61
120
189
257
314
351
363
350
315
266
211
161
123
103
104
124
158
198
237
266
279
275
252
215
168
118
71
32
5
-8
-8
4
26
54
84
114
138
154
160
153
131
94
46
-12
-74
-134
-186
-222
-238
-232
-206
-163
-110
-56
-10
18
23
1
-46
-114
-195
-280
-356
-416
-453
-462
-444
-404
-348
-285
-226
-180
-153
-148
-167
-205
-256
-314
-368
-412
-440
-449
-439
-414
-377
-336
-297
-265
-245
-237
-242
-257
-281
-310
-339
-367
-390
-409
-422
-428
-429
-422
-408
-386
-358
-322
-281
-235
-186
-135
-82
-25
39
116
211
331
482
670
898
1166
1472
1812
2179
2565
2962
3363
3762
4152
4530
4890
5228
5540
5818
6052
6234
6350
6389
6339
6192
5942
5592
5148
4626
4047
3439
2833
2259
1746
1316
984
755
622
572
581
626
679
717
722
684
603
484
342
191
48
-72
-157
-204
-214
-193
-151
-101
-54
-20
-8
-20
-54
-109
-176
-248
-320
-384
-437
-477
-505
-523
-534
-542
-552
-566
-586
-613
-645
-679
-713
-740
-758
-763
-751
-723
-680
-627
-570
-515
-469
-440
-430
-443
-478
-529
-590
-653
-710
-752
-774
-772
-746
-700
-640
-573
-509
-456
-420
-406
-416
-448
-498
-558
-621
-679
-725
-753
-760
-748
-718
-677
-632
-590
-559
-544
-548
-570
-607
-651
-697
-735
-759
-764
-746
-707
-651
-585
-516
-453
-403
-372
-362
-373
-402
-443
-490
-536
-574
-600
-613
-611
-598
-576
-551
-525
-503
-487
-479
-479
-489
-508
-537
-576
-622
-674
-727
-776
-813
-831
-824
-789
-727
-643
-545
-445
-357
-291
-256
-256
-288
-344
-413
-481
-535
-567
-572
-550
-507
-454
-399
-356
-331
-327
-345
-380
-425
-470
-508
-531
-537
-526
-499
-461
-418
-376
-342
-319
-311
-319
-341
-376
-419
-466
-510
-547
-572
-578
-565
-532
-479
-412
-335
-256
-181
-116
-67
-35
-20
-20
-31
-48
-66
-79
-83
-78
-62
-37
-7
25
56
83
103
115
117
112
100
85
70
59
56
63
84
117
163
216
272
325
369
399
412
409
390
362
331
304
289
289
307
343
392
449
508
559
598
618
617
596
555
500
437
372
314
270
245
243
266
312
377
454
535
610
671
712
728
718
685
634
572
508
450
406
380
375
388
416
453
490
520
536
534
511
468
409
339
267
200
147
113
100
107
132
166
202
232
249
246
223
180
121
53
-18
-84
-140
-180
-203
-207
-197
-174
-144
-111
-81
-58
-46
-46
-60
-88
-127
-173
-222
-268
-304
-328
-335
-326
-301
-266
-225
-187
-157
-140
-141
-159
-192
-234
-281
-324
-358
-378
-381
-367
-338
-301
-259
-219
-188
-169
-165
-177
-202
-238
-280
-324
-364
-396
-418
-426
-421
-403
-375
-339
-300
-262
-228
-203
-188
-185
-194
-212
-238
-269
-298
-323
-339
-344
-337
-317
-287
-252
-217
-188
-170
-168
-184
-217
-264
-317
-369
-413
-439
-442
-420
-375
-311
-237
-161
-93
-43
-16
-14
-35
-75
-126
-180
-228
-263
-281
-283
-269
-244
-216
-192
-178
-180
-199
-235
-284
-340
-396
-443
-475
-484
-469
-430
-371
-298
-220
-147
-86
-45
-26
-30
-55
-93
-139
-183
-218
-239
-243
-231
-205
-171
-134
-100
-75
-62
-63
-79
-108
-147
-193
-241
-286
-324
-351
-364
-362
-344
-312
-268
-218
-167
-120
-84
-61
-54
-63
-85
-117
-153
-188
-217
-236
-242
-236
-218
-192
-163
-135
-112
-99
-99
-113
-141
-179
-225
-273
-316
-347
-363
-358
-331
-286
-226
-158
-93
-38
-2
10
-6
-47
-109
-183
-259
-327
-378
-403
-399
-367
-310
-238
-161
-90
-37
-10
-13
-48
-109
-188
-273
-351
-408
-437
-432
-395
-330
-250
-168
-97
-48
-29
-41
-81
-142
-212
-279
-333
-367
-376
-360
-325
-276
-222
-171
-128
-98
-84
-86
-102
-131
-169
-212
-256
-295
-327
-345
-348
-334
-303
-259
-206
-152
-103
-70
-56
-66
-99
-151
-216
-285
-346
-393
-417
-417
-393
-352
-299
-246
-199
-168
-156
-164
-191
-230
-275
-317
-350
-369
-371
-357
-329
-291
-250
-211
-178
-155
-144
-146
-160
-182
-211
-241
-267
-286
-294
-289
-272
-243
-207
-170
-137
-115
-109
-122
-153
-200
-258
-319
-375
-421
-449
-458
-446
-415
-372
-320
-267
-219
-181
-156
-147
-153
-173
-203
-239
-276
-308
-328
-334
-321
-290
-243
-184
-121
-63
-19
3
-1
-33
-91
-169
-257
-346
-423
-480
-511
-512
-486
-439
-378
-313
-254
-209
-182
-174
-184
-207
-236
-264
-285
-294
-290
-271
-243
-207
-170
-138
-115
-104
-108
-125
-155
-195
-240
-286
-329
-362
-381
-385
-371
-338
-288
-226
-155
-84
-18
35
70
85
78
53
15
-29
-71
-105
-123
-123
-106
-72
-29
18
61
94
113
117
105
82
51
19
-8
-26
-32
-25
-6
23
57
93
127
156
177
191
197
197
194
188
183
179
176
175
175
175
174
171
167
161
154
147
139
130
122
113
105
96
88
83
82
87
99
119
146
179
214
247
273
288
288
273
242
198
144
88
34
-10
-42
-57
-57
-44
-22
2
22
31
24
-1
-42
-97
-157
-215
-262
-291
-300
-286
-255
-213
-170
-136
-120
-126
-157
-208
-272
-340
-402
-448
-474
-476
-457
-422
-377
-331
-290
-260
-243
-238
-244
-257
-274
-291
-308
-322
-335
-345
-354
-362
-366
-367
-364
-355
-343
-329
-316
-307
-307
-319
-343
-379
-424
-472
-518
-553
-570
-564
-532
-471
-384
-275
-149
-13
130
276
425
578
743
927
1137
1383
1670
2000
2370
2774
3201
3639
4071
4485
4868
5211
5508
5755
5951
6094
6182
6212
6177
6070
5885
5617
5265
4836
4342
3800
3234
2672
2140
1662
1255
930
690
530
439
401
401
420
445
463
467
452
414
355
276
181
74
-38
-146
-244
-324
-380
-408
-406
-378
-331
-275
-219
-176
-153
-158
-192
-253
-333
-422
-512
-590
-651
-688
-702
-693
-668
-631
-592
-555
-527
-511
-508
-517
-539
-568
-603
-638
-671
-697
-714
-720
-712
-694
-666
-632
-598
-569
-550
-545
-556
-582
-620
-666
-714
-755
-783
-793
-783
-754
-708
-653
-595
-542
-501
-477
-473
-488
-519
-561
-608
-654
-693
-722
-738
-740
-729
-707
-677
-644
-611
-581
-558
-543
-538
-541
-552
-565
-578
-586
-586
-576
-556
-530
-503
-481
-470
-474
-496
-534
-584
-638
-686
-720
-734
-724
-690
-639
-577
-514
-460
-421
-402
-405
-426
-461
-503
-545
-584
-614
-634
-643
-641
-631
-612
-588
-560
-529
-498
-469
-446
-431
-425
-432
-448
-473
-504
-537
-566
-587
-597
-594
-577
-547
-506
-458
-408
-362
-323
-297
-285
-289
-307
-336
-371
-405
-431
-444
-441
-421
-386
-341
-291
-246
-212
-194
-197
-218
-255
-301
-349
-390
-418
-427
-413
-379
-326
-260
-187
-115
-49
2
37
50
44
18
-22
-69
-116
-155
-175
-172
-142
-84
-4
89
185
270
333
366
365
333
278
213
152
110
97
119
177
263
367
472
565
634
671
673
644
593
529
465
410
371
352
354
372
404
443
483
522
554
579
596
605
605
598
583
563
539
514
491
473
462
461
469
485
507
530
551
566
573
570
558
538
513
486
459
434
411
391
372
354
337
318
298
278
256
233
210
188
167
148
132
121
117
122
135
155
180
207
228
238
233
208
162
96
17
-70
-155
-231
-289
-325
-335
-322
-290
-244
-192
-141
-98
-67
-51
-51
-65
-90
-122
-155
-186
-212
-229
-237
-238
-233
-225
-218
-215
-221
-235
-259
-290
-325
-360
-391
-414
-425
-422
-407
-379
-342
-301
-260
-225
-199
-187
-191
-212
-249
-300
-358
-417
-471
-512
-534
-533
-507
-457
-388
-309
-229
-157
-103
-74
-72
-98
-146
-209
-276
-336
-382
-406
-406
-385
-345
-296
-245
-200
-167
-150
-147
-156
-172
-192
-209
-222
-229
-230
-228
-226
-225
-229
-237
-248
-262
-277
-290
-301
-310
-317
-324
-330
-337
-343
-346
-343
-333
-313
-284
-246
-205
-164
-130
-107
-101
-112
-140
-182
-233
-284
-329
-361
-375
-369
-342
-299
-244
-184
-128
-82
-53
-43
-55
-85
-131
-184
-237
-281
-311
-320
-308
-277
-230
-176
-122
-76
-46
-36
-44
-70
-106
-144
-179
-203
-212
-205
-185
-156
-125
-97
-79
-75
-85
-108
-142
-182
-221
-255
-279
-289
-286
-270
-243
-208
-171
-134
-105
-85
-79
-88
-111
-147
-191
-238
-282
-317
-337
-340
-324
-290
-241
-184
-125
-70
-28
-2
4
-10
-43
-91
-147
-205
-258
-301
-328
-338
-330
-306
-269
-225
-179
-139
-110
-95
-96
-113
-143
-182
-223
-259
-285
-296
-289
-266
-227
-180
-129
-83
-49
-31
-34
-58
-101
-158
-222
-284
-337
-372
-384
-372
-335
-280
-212
-142
-78
-29
-3
-3
-31
-81
-148
-222
-293
-352
-392
-406
-393
-356
-299
-231
-161
-98
-50
-25
-25
-50
-98
-163
-236
-308
-370
-413
-432
-425
-393
-342
-281
-218
-165
-129
-118
-132
-169
-222
-283
-341
-386
-411
-411
-387
-341
-281
-215
-152
-101
-67
-54
-62
-88
-129
-178
-227
-271
-303
-319
-317
-297
-261
-215
-163
-115
-77
-56
-54
-74
-114
-168
-231
-294
-348
-388
-407
-406
-385
-347
-299
-247
-200
-162
-139
-133
-145
-173
-213
-258
-301
-335
-353
-350
-323
-275
-210
-135
-63
-3
35
45
24
-25
-96
-178
-258
-324
-366
-377
-356
-306
-236
-156
-79
-15
26
40
25
-16
-75
-145
-215
-276
-317
-334
-323
-284
-222
-142
-53
34
110
166
195
194
166
116
50
-18
-80
-123
-142
-134
-98
-40
30
103
168
216
241
242
221
181
132
82
40
11
1
10
38
80
132
187
239
284
317
336
339
328
304
271
234
196
164
141
130
132
146
169
194
218
235
241
234
216
190
160
133
112
102
103
113
128
142
150
147
131
101
60
13
-34
-76
-108
-128
-136
-133
-123
-110
-97
-86
-78
-72
-68
-62
-53
-41
-27
-12
0
6
1
-15
-44
-83
-129
-177
-222
-258
-281
-289
-284
-269
-250
-233
-224
-231
-254
-295
-349
-409
-467
-513
-539
-539
-511
-457
-383
-301
-220
-155
-113
-102
-121
-168
-233
-307
-379
-438
-478
-494
-487
-462
-424
-382
-343
-311
-290
-280
-279
-280
-278
-266
-239
-189
-113
-6
134
309
519
762
1038
1341
1666
2007
2355
2706
3053
3393
3726
4051
4371
4686
4997
5299
5586
5844
6057
6208
6277
6248
6108
5853
5487
5024
4485
3899
3298
2716
2183
1722
1351
1073
885
772
716
693
680
659
616
545
448
333
211
95
-2
-74
-117
-134
-131
-119
-107
-104
-115
-144
-188
-243
-302
-361
-413
-454
-483
-499
-504
-499
-486
-467
-444
-418
-391
-367
-347
-336
-336
-349
-375
-412
-455
-501
-541
-573
-592
-596
-587
-568
-545
-523
-509
-505
-516
-541
-578
-624
-674
-723
-765
-795
-812
-812
-797
-768
-729
-685
-642
-606
-581
-571
-576
-595
-623
-655
-683
-701
-703
-686
-651
-603
-546
-490
-443
-412
-403
-417
-453
-508
-574
-643
-708
-761
-794
-805
-790
-753
-695
-622
-543
-466
-399
-351
-327
-331
-363
-417
-486
-560
-626
-674
-696
-688
-651
-591
-518
-446
-386
-350
-346
-374
-432
-512
-603
-690
-763
-811
-827
-809
-761
-689
-603
-514
-431
-365
-323
-307
-317
-350
-400
-458
-515
-562
-594
-606
-597
-569
-528
-481
-436
-401
-383
-385
-407
-447
-500
-556
-610
-652
-676
-678
-658
-617
-560
-492
-421
-353
-295
-251
-223
-213
-219
-236
-263
-292
-320
-342
-355
-355
-342
-317
-280
-235
-185
-136
-91
-54
-29
-18
-20
-34
-57
-83
-109
-128
-137
-133
-117
-89
-54
-18
16
41
56
59
53
42
31
26
32
51
85
131
186
244
298
341
369
379
372
349
314
273
234
202
184
183
203
243
301
371
447
521
583
627
646
637
601
542
468
390
319
267
243
251
293
365
457
558
655
735
789
809
793
746
675
590
502
423
361
324
313
326
358
400
444
481
503
507
490
455
405
347
288
234
191
162
148
148
159
174
190
200
201
188
161
120
67
5
-59
-121
-175
-216
-240
-246
-234
-208
-171
-130
-92
-63
-48
-49
-67
-98
-137
-179
-218
-248
-266
-270
-259
-238
-210
-178
-146
-120
-103
-97
-104
-125
-161
-210
-268
-331
-392
-443
-479
-493
-481
-445
-389
-321
-251
-190
-148
-134
-149
-191
-254
-326
-397
-452
-485
-489
-464
-413
-344
-266
-191
-128
-84
-63
-67
-93
-136
-190
-248
-300
-342
-367
-372
-358
-326
-283
-234
-187
-152
-133
-134
-156
-198
-252
-311
-365
-407
-430
-430
-408
-366
-312
-253
-200
-159
-136
-133
-150
-182
-224
-268
-307
-336
-351
-351
-339
-318
-294
-274
-262
-260
-271
-290
-315
-340
-359
-367
-361
-340
-305
-258
-205
-150
-99
-56
-24
-7
-4
-16
-42
-80
-125
-174
-222
-264
-296
-314
-317
-303
-274
-235
-191
-149
-116
-94
-89
-100
-127
-165
-209
-253
-293
-323
-343
-350
-347
-336
-319
-299
-278
-257
-237
-218
-202
-187
-175
-167
-162
-162
-166
-173
-181
-189
-194
-194
-188
-179
-167
-157
-151
-152
-163
-182
-209
-239
-267
-286
-293
-284
-258
-220
-173
-126
-85
-57
-47
-57
-85
-126
-175
-224
-265
-294
-306
-301
-281
-252
-218
-184
-157
-139
-133
-141
-160
-187
-218
-250
-277
-296
-303
-296
-275
-241
-197
-150
-105
-69
-48
-47
-69
-111
-171
-240
-312
-376
-426
-455
-459
-439
-399
-343
-281
-218
-165
-124
-102
-100
-116
-149
-192
-241
-289
-331
-362
-379
-380
-366
-340
-306
-267
-228
-196
-172
-160
-161
-174
-197
-228
-264
-301
-334
-360
-375
-376
-361
-331
-289
-237
-184
-135
-99
-81
-85
-111
-153
-206
-260
-305
-333
-339
-321
-281
-226
-167
-111
-71
-51
-56
-84
-130
-188
-248
-299
-336
-352
-345
-318
-273
-218
-163
-115
-85
-77
-95
-139
-203
-282
-363
-435
-488
-514
-507
-470
-407
-328
-245
-171
-117
-90
-93
-124
-176
-238
-299
-349
-378
-383
-365
-327
-278
-226
-180
-145
-127
-127
-141
-166
-197
-227
-254
-272
-281
-280
-270
-252
-228
-200
-170
-140
-113
-91
-76
-70
-76
-92
-117
-149
-183
-214
-238
-250
-248
-231
-201
-162
-119
-76
-41
-15
-2
-2
-13
-31
-53
-73
-87
-91
-83
-62
-28
15
63
110
151
180
193
187
165
128
83
38
0
-22
-24
-4
37
93
156
216
264
294
301
287
253
208
159
114
80
62
63
81
114
156
205
254
298
335
359
371
366
344
305
251
183
107
29
-43
-102
-139
-150
-131
-85
-17
66
151
228
284
313
309
273
209
127
38
-46
-115
-159
-176
-166
-136
-94
-50
-16
2
-2
-29
-74
-131
-192
-246
-286
-307
-308
-290
-257
-218
-178
-144
-124
-119
-131
-159
-198
-246
-296
-344
-386
-417
-435
-438
-426
-401
-365
-324
-283
-248
-225
-217
-227
-254
-293
-337
-379
-410
-424
-416
-386
-338
-277
-214
-157
-116
-97
-102
-131
-178
-236
-294
-344
-376
-383
-360
-307
-224
-115
17
166
329
499
677
861
1053
1255
1474
1714
1983
2283
2619
2988
3386
3804
4231
4652
5051
5411
5717
5956
6117
6190
6169
6053
5842
5540
5156
4704
4200
3667
3127
2605
2124
1704
1358
1090
900
778
708
672
652
630
596
543
472
387
296
208
130
66
17
-19
-47
-73
-101
-137
-180
-228
-279
-325
-361
-385
-393
-386
-369
-345
-322
-306
-302
-314
-343
-388
-445
-510
-575
-633
-680
-709
-719
-707
-675
-627
-570
-510
-456
-415
-394
-395
-419
-464
-525
-592
-658
-714
-751
-767
-758
-728
-681
-625
-570
-523
-493
-484
-497
-529
-576
-629
-680
-721
-745
-749
-731
-695
-645
-590
-537
-495
-468
-460
-473
-503
-546
-597
-649
-694
-727
-744
-744
-726
-692
-646
-595
-543
-498
-463
-444
-441
-453
-477
-509
-541
-567
-583
-587
-577
-558
-534
-510
-492
-486
-491
-509
-535
-565
-593
-616
-630
-636
-632
-622
-607
-589
-568
-543
-513
-479
-441
-402
-368
-346
-341
-360
-404
-470
-549
-630
-700
-745
-756
-726
-658
-560
-446
-331
-232
-162
-130
-138
-182
-252
-338
-424
-500
-555
-585
-588
-567
-529
-480
-427
-377
-335
-305
-289
-287
-297
-317
-343
-369
-391
-405
-405
-392
-364
-324
-275
-224
-174
-134
-108
-100
-111
-139
-182
-231
-281
-322
-350
-358
-344
-309
-256
-192
-124
-61
-10
23
36
29
9
-19
-46
-63
-63
-42
2
65
141
222
300
366
413
437
439
420
387
347
308
275
256
253
267
296
336
383
431
474
506
523
525
511
484
448
409
373
346
331
331
348
379
424
476
532
586
634
673
699
711
709
691
660
618
568
514
461
416
382
365
366
383
414
453
492
523
539
536
512
471
416
357
301
257
228
218
225
245
270
294
309
312
301
274
237
193
148
108
76
53
40
34
34
36
36
31
21
4
-19
-47
-77
-109
-140
-170
-197
-219
-236
-246
-247
-238
-219
-189
-152
-110
-69
-34
-10
-4
-17
-50
-100
-161
-224
-282
-324
-346
-344
-320
-279
-228
-177
-136
-110
-105
-119
-150
-192
-237
-276
-302
-313
-306
-283
-250
-212
-176
-146
-127
-121
-127
-144
-168
-196
-224
-250
-270
-283
-288
-287
-279
-267
-253
-240
-229
-223
-222
-226
-236
-249
-263
-275
-283
-284
-278
-265
-246
-223
-200
-178
-162
-153
-153
-162
-179
-203
-231
-263
-294
-324
-349
-368
-381
-385
-381
-368
-348
-323
-292
-260
-229
-201
-178
-162
-153
-153
-159
-172
-188
-205
-223
-239
-251
-260
-265
-267
-268
-268
-268
-270
-272
-275
-276
-273
-266
-252
-231
-203
-171
-138
-107
-83
-69
-67
-78
-102
-134
-171
-207
-237
-255
-260
-251
-229
-198
-161
-125
-92
-68
-54
-52
-62
-81
-107
-137
-167
-195
-219
-236
-247
-249
-246
-236
-224
-209
-195
-185
-179
-178
-184
-195
-211
-227
-241
-249
-248
-235
-210
-174
-130
-82
-38
-3
17
19
2
-32
-78
-129
-176
-212
-231
-232
-213
-180
-138
-95
-58
-34
-28
-39
-67
-107
-152
-198
-238
-267
-283
-285
-273
-250
-221
-189
-161
-140
-130
-133
-150
-179
-215
-253
-286
-309
-315
-302
-270
-222
-165
-106
-55
-19
-2
-8
-33
-74
-123
-173
-214
-243
-254
-249
-230
-200
-165
-131
-103
-85
-79
-86
-106
-136
-173
-214
-255
-290
-318
-333
-335
-322
-294
-256
-210
-162
-118
-84
-64
-63
-80
-114
-162
-217
-273
-322
-357
-372
-367
-340
-295
-239
-179
-124
-80
-54
-48
-61
-90
-130
-173
-213
-245
-263
-266
-255
-232
-200
-164
-128
-96
-74
-62
-63
-77
-102
-137
-178
-221
-260
-290
-308
-312
-300
-273
-236
-192
-148
-111
-84
-72
-77
-99
-134
-178
-225
-269
-303
-322
-324
-306
-272
-226
-175
-126
-88
-67
-67
-88
-128
-180
-236
-286
-320
-333
-321
-287
-236
-177
-120
-77
-54
-58
-89
-141
-208
-280
-345
-396
-423
-424
-399
-351
-288
-217
-148
-88
-43
-16
-8
-16
-37
-64
-92
-114
-128
-128
-115
-90
-53
-10
38
84
126
159
179
184
173
147
108
60
9
-36
-70
-85
-79
-50
-1
62
130
194
243
271
274
253
213
164
115
78
59
63
90
135
189
245
293
327
342
339
320
289
252
213
175
140
108
80
55
35
21
16
24
46
82
128
180
230
271
296
301
286
254
212
168
131
110
107
125
159
202
245
279
294
288
257
206
139
65
-7
-69
-113
-137
-138
-119
-84
-40
6
47
76
86
74
37
-25
-106
-201
-301
-395
-473
-526
-546
-531
-484
-412
-324
-236
-160
-109
-90
-107
-157
-231
-318
-402
-471
-512
-520
-493
-435
-356
-268
-184
-117
-74
-62
-80
-124
-185
-255
-322
-375
-409
-419
-407
-376
-333
-287
-249
-224
-218
-231
-261
-302
-344
-377
-391
-378
-335
-258
-149
-13
147
325
517
722
939
1170
1416
1679
1963
2267
2592
2938
3302
3682
4075
4476
4879
5274
5648
5985
6266
6470
6578
6573
6447
6197
5830
5365
4827
4248
3661
3100
2592
2157
1803
1529
1327
1181
1072
981
891
792
680
555
425
297
183
91
26
-9
-17
-3
24
55
81
94
88
62
16
-49
-125
-208
-288
-360
-419
-460
-484
-492
-490
-482
-475
-475
-487
-511
-548
-591
-637
-679
-710
-726
-725
-707
-674
-631
-585
-540
-502
-475
-462
-463
-477
-504
-539
-580
-622
-661
-693
-715
-722
-714
-690
-654
-610
-563
-520
-489
-474
-480
-505
-548
-603
-663
-718
-760
-783
-784
-760
-716
-657
-593
-532
-483
-454
-450
-471
-514
-572
-637
-698
-744
-769
-767
-737
-684
-615
-540
-471
-418
-388
-386
-410
-456
-516
-580
-640
-685
-712
-718
-703
-673
-632
-586
-543
-508
-483
-471
-473
-487
-512
-544
-580
-618
-652
-679
-694
-694
-679
-649
-606
-556
-503
-456
-422
-405
-410
-434
-475
-526
-580
-628
-661
-674
-665
-634
-586
-528
-468
-415
-376
-358
-362
-386
-426
-476
-528
-572
-601
-609
-594
-556
-501
-434
-363
-297
-245
-212
-202
-216
-250
-299
-354
-406
-448
-472
-474
-452
-410
-352
-286
-221
-164
-124
-103
-104
-123
-158
-200
-243
-278
-301
-305
-291
-259
-211
-152
-87
-23
35
82
113
127
124
104
72
33
-7
-38
-55
-52
-26
24
93
175
261
341
408
454
476
475
455
422
386
353
331
324
334
358
395
439
485
526
558
579
587
582
565
540
511
483
460
447
448
464
496
540
592
645
690
722
733
720
683
625
552
473
399
338
300
289
307
351
414
486
557
614
649
655
630
577
503
418
333
260
205
175
170
185
214
247
276
291
288
264
221
165
103
41
-13
-53
-76
-83
-75
-57
-33
-9
10
19
16
0
-28
-65
-107
-149
-186
-214
-228
-227
-211
-182
-143
-100
-58
-22
2
13
8
-12
-44
-85
-132
-179
-223
-261
-288
-303
-306
-295
-273
-243
-209
-176
-148
-130
-126
-138
-165
-204
-252
-303
-349
-386
-409
-414
-402
-376
-339
-298
-258
-225
-204
-199
-209
-234
-269
-311
-354
-390
-416
-426
-419
-395
-357
-308
-255
-205
-164
-139
-131
-143
-171
-211
-256
-299
-331
-347
-344
-322
-282
-232
-178
-129
-92
-73
-75
-98
-138
-189
-243
-291
-326
-343
-337
-311
-269
-216
-162
-114
-79
-64
-69
-95
-136
-187
-238
-283
-315
-329
-324
-302
-266
-221
-173
-129
-92
-66
-53
-52
-63
-85
-114
-149
-189
-230
-269
-304
-331
-348
-351
-340
-316
-281
-240
-198
-161
-133
-116
-112
-117
-128
-139
-144
-139
-123
-97
-64
-31
-5
9
6
-15
-52
-101
-153
-200
-236
-254
-252
-229
-190
-138
-82
-27
20
55
73
74
58
26
-18
-71
-128
-184
-235
-276
-304
-317
-314
-297
-269
-236
-204
-176
-158
-151
-157
-171
-191
-210
-225
-228
-219
-194
-156
-109
-57
-9
31
56
63
48
14
-38
-101
-169
-234
-289
-327
-345
-342
-319
-279
-231
-179
-131
-94
-71
-65
-74
-95
-125
-159
-190
-214
-229
-232
-223
-205
-180
-152
-125
-102
-88
-83
-90
-109
-136
-171
-208
-245
-276
-297
-306
-301
-281
-251
-214
-174
-140
-116
-108
-119
-148
-193
-246
-301
-346
-375
-382
-364
-323
-262
-191
-120
-57
-12
11
8
-18
-64
-122
-184
-245
-298
-338
-362
-371
-364
-343
-310
-267
-220
-173
-132
-101
-86
-89
-112
-154
-210
-273
-334
-383
-414
-421
-402
-359
-300
-232
-167
-115
-83
-76
-94
-134
-186
-243
-292
-327
-339
-328
-295
-245
-185
-127
-77
-44
-33
-43
-74
-122
-179
-240
-296
-343
-374
-386
-379
-354
-312
-259
-200
-143
-95
-62
-52
-66
-103
-159
-226
-294
-352
-388
-396
-372
-317
-239
-147
-55
26
84
114
114
86
38
-21
-80
-129
-163
-177
-170
-146
-109
-65
-21
19
51
74
87
92
90
83
75
68
63
63
69
81
98
120
143
166
183
192
190
175
147
110
68
26
-8
-29
-32
-15
21
72
133
196
253
297
324
331
319
293
257
219
185
161
151
156
174
202
237
272
302
324
333
329
313
285
250
209
167
128
95
70
56
51
55
66
83
102
119
133
140
139
129
111
86
57
28
1
-21
-36
-40
-35
-22
-3
18
36
46
45
30
-1
-48
-108
-177
-249
-319
-379
-425
-453
-461
-448
-419
-378
-331
-286
-249
-225
-217
-224
-243
-271
-300
-325
-338
-336
-317
-284
-240
-193
-150
-121
-112
-126
-163
-219
-285
-352
-410
-448
-462
-447
-408
-352
-290
-234
-194
-181
-197
-240
-304
-377
-444
-490
-503
-473
-395
-269
-101
101
327
566
811
1054
1294
1530
1765
2006
2258
2529
2824
3146
3497
3874
4273
4683
5093
5486
5844
6148
6378
6517
6552
6473
6279
5974
5571
5088
4549
3982
3415
2874
2381
1952
1597
1318
1109
961
858
787
731
679
623
558
483
401
317
238
168
112
70
42
24
11
-3
-23
-51
-90
-139
-195
-253
-308
-356
-393
-418
-432
-438
-441
-445
-454
-470
-495
-526
-559
-590
-615
-630
-634
-626
-609
-585
-558
-531
-507
-487
-473
-465
-463
-470
-484
-507
-538
-574
-613
-650
-679
-696
-697
-681
-651
-610
-567
-531
-509
-510
-535
-583
-650
-725
-799
-860
-898
-908
-886
-837
-767
-685
-601
-525
-468
-433
-424
-439
-475
-525
-580
-633
-677
-704
-712
-700
-669
-622
-566
-507
-453
-409
-380
-370
-379
-404
-442
-487
-532
-571
-599
-612
-610
-594
-567
-536
-506
-483
-470
-471
-485
-511
-543
-579
-611
-636
-650
-651
-639
-615
-582
-543
-502
-462
-427
-401
-387
-385
-398
-425
-464
-511
-561
-608
-644
-664
-662
-636
-590
-528
-459
-391
-335
-298
-284
-294
-324
-367
-414
-454
-480
-485
-468
-431
-381
-325
-273
-232
-209
-206
-222
-254
-294
-335
-371
-395
-404
-395
-371
-335
-292
-247
-206
-172
-149
-136
-133
-138
-148
-161
-173
-183
-189
-191
-190
-184
-173
-155
-131
-99
-59
-12
39
91
139
178
205
219
220
212
201
192
190
200
222
254
290
325
351
363
358
337
304
266
230
204
194
203
232
278
337
401
464
522
569
605
628
639
640
631
616
597
577
560
548
545
554
575
607
646
689
727
754
765
755
723
670
603
529
457
396
355
337
344
375
423
482
544
600
643
668
673
658
626
581
528
474
423
381
349
330
322
324
330
338
340
334
314
279
228
163
89
12
-62
-125
-171
-196
-200
-183
-149
-107
-63
-24
2
12
5
-17
-51
-90
-128
-159
-179
-185
-178
-159
-133
-104
-80
-64
-61
-72
-97
-134
-179
-228
-274
-312
-338
-350
-345
-325
-292
-252
-208
-168
-137
-120
-118
-133
-162
-202
-248
-293
-329
-351
-356
-341
-308
-260
-203
-146
-97
-64
-53
-65
-102
-157
-224
-293
-355
-402
-426
-426
-404
-363
-312
-260
-215
-184
-172
-179
-204
-241
-285
-328
-364
-388
-395
-386
-360
-319
-269
-212
-155
-103
-60
-32
-21
-30
-59
-103
-159
-220
-278
-324
-352
-357
-337
-295
-235
-167
-100
-44
-10
-1
-22
-68
-135
-211
-286
-348
-387
-399
-382
-337
-274
-200
-127
-67
-26
-11
-21
-54
-101
-156
-209
-251
-276
-282
-269
-240
-202
-160
-123
-96
-83
-85
-104
-135
-174
-217
-258
-292
-314
-321
-313
-289
-251
-202
-145
-85
-27
24
63
85
90
76
45
2
-47
-94
-131
-153
-154
-133
-94
-44
7
49
70
63
24
-45
-137
-238
-336
-414
-461
-470
-437
-368
-272
-165
-60
27
86
111
102
63
1
-71
-142
-204
-250
-275
-278
-263
-234
-196
-156
-119
-90
-73
-68
-77
-97
-127
-162
-197
-227
-249
-257
-251
-231
-199
-159
-117
-79
-51
-37
-39
-59
-93
-137
-186
-233
-271
-296
-303
-291
-262
-219
-168
-117
-71
-38
-21
-24
-45
-81
-125
-172
-214
-244
-257
-252
-230
-194
-152
-110
-76
-55
-51
-65
-94
-136
-184
-232
-276
-309
-328
-332
-320
-294
-256
-210
-163
-118
-82
-61
-57
-73
-107
-157
-216
-275
-327
-363
-377
-366
-332
-278
-212
-144
-84
-40
-18
-20
-44
-86
-138
-193
-241
-276
-293
-292
-273
-239
-195
-148
-104
-69
-48
-42
-53
-81
-122
-171
-222
-268
-303
-323
-323
-305
-270
-223
-171
-120
-79
-53
-45
-57
-86
-126
-172
-215
-250
-271
-273
-257
-225
-181
-131
-82
-42
-17
-11
-27
-63
-116
-179
-244
-300
-340
-358
-348
-312
-255
-184
-109
-39
18
56
74
74
61
43
27
20
25
42
68
99
127
149
159
158
146
128
107
87
73
66
66
72
82
96
113
133
157
185
219
257
299
339
374
399
409
402
377
336
282
221
160
105
61
34
25
33
56
88
125
159
184
195
189
166
130
84
37
-4
-31
-39
-23
14
70
138
208
270
316
338
334
303
250
182
108
39
-17
-54
-68
-61
-37
-3
32
62
78
78
60
26
-20
-72
-124
-170
-207
-232
-245
-246
-237
-220
-201
-181
-165
-155
-153
-162
-182
-212
-250
-292
-333
-368
-391
-398
-388
-360
-317
-265
-211
-161
-125
-107
-111
-139
-188
-252
-325
-397
-460
-506
-528
-523
-492
-438
-368
-293
-221
-163
-127
-117
-133
-170
-220
-272
-313
-332
-321
-274
-190
-73
70
233
406
583
760
937
1116
1303
1506
1730
1985
2273
2598
2957
3347
3758
4178
4595
4992
5355
5667
5914
6084
6168
6161
6061
5872
5599
5254
4849
4399
3924
3440
2964
2513
2100
1735
1423
1166
960
801
679
584
507
440
376
313
249
187
129
79
37
6
-15
-30
-42
-56
-76
-105
-144
-192
-247
-303
-355
-397
-425
-436
-430
-409
-378
-343
-310
-286
-277
-284
-308
-348
-400
-457
-513
-562
-597
-617
-620
-609
-588
-562
-538
-524
-522
-535
-562
-599
-640
-675
-699
-703
-685
-646
-590
-526
-464
-416
-392
-398
-434
-498
-580
-669
-750
-809
-838
-832
-790
-718
-628
-530
-440
-367
-320
-303
-315
-352
-406
-469
-532
-587
-628
-651
-656
-644
-618
-585
-549
-516
-492
-480
-483
-499
-526
-558
-588
-610
-617
-608
-580
-537
-486
-433
-388
-358
-348
-359
-391
-436
-489
-540
-583
-612
-623
-616
-594
-561
-523
-485
-452
-425
-407
-398
-398
-404
-416
-432
-450
-469
-489
-506
-521
-531
-536
-536
-530
-520
-508
-496
-486
-480
-480
-487
-502
-522
-544
-566
-584
-593
-590
-572
-539
-491
-433
-368
-303
-244
-198
-168
-157
-165
-189
-226
-267
-308
-342
-364
-371
-364
-343
-311
-273
-233
-197
-169
-151
-145
-152
-167
-189
-212
-232
-244
-243
-229
-200
-159
-109
-58
-11
26
49
57
49
29
4
-20
-37
-42
-31
-4
37
88
143
197
245
283
309
323
325
317
301
280
256
233
213
201
200
212
239
281
335
397
461
518
563
590
596
581
549
506
460
420
392
382
392
419
460
507
555
596
626
640
639
624
599
567
536
508
488
478
479
491
512
538
565
589
604
609
599
574
535
483
421
355
290
230
180
143
121
113
117
131
150
170
185
191
185
168
139
102
61
20
-13
-35
-43
-35
-15
14
46
73
88
85
60
14
-51
-128
-209
-283
-340
-372
-375
-347
-292
-218
-136
-58
3
39
45
19
-32
-102
-178
-249
-303
-332
-335
-311
-267
-214
-162
-121
-101
-106
-136
-188
-255
-327
-395
-448
-480
-485
-463
-416
-347
-265
-178
-94
-23
30
57
56
26
-29
-106
-195
-287
-372
-440
-482
-495
-476
-430
-363
-285
-207
-141
-95
-76
-83
-115
-165
-223
-281
-331
-366
-382
-380
-361
-329
-291
-250
-212
-178
-152
-134
-123
-122
-128
-141
-161
-187
-214
-241
-263
-278
-283
-276
-261
-239
-215
-195
-184
-187
-205
-236
-277
-321
-363
-393
-407
-400
-371
-323
-261
-193
-125
-67
-24
-1
1
-16
-49
-92
-138
-181
-216
-240
-251
-249
-238
-220
-200
-182
-168
-161
-160
-166
-177
-190
-205
-218
-228
-234
-234
-230
-219
-204
-186
-165
-144
-125
-111
-104
-105
-114
-129
-150
-172
-191
-206
-212
-210
-200
-184
-168
-153
-144
-144
-154
-176
-208
-246
-286
-324
-356
-377
-384
-376
-352
-314
-264
-208
-150
-99
-61
-39
-38
-56
-92
-138
-187
-231
-260
-271
-260
-229
-183
-130
-77
-34
-7
0
-14
-45
-89
-138
-185
-223
-249
-259
-255
-238
-212
-183
-156
-136
-127
-132
-151
-183
-224
-268
-310
-344
-364
-368
-355
-327
-287
-242
-197
-159
-133
-122
-127
-147
-178
-215
-253
-286
-310
-321
-316
-295
-259
-212
-160
-109
-67
-40
-33
-51
-92
-152
-224
-297
-362
-409
-431
-424
-390
-336
-272
-209
-158
-127
-123
-144
-186
-241
-299
-349
-382
-392
-376
-337
-281
-215
-148
-90
-49
-29
-32
-57
-99
-151
-206
-255
-293
-315
-319
-307
-282
-251
-219
-193
-176
-171
-177
-191
-211
-230
-247
-258
-263
-263
-260
-256
-252
-248
-244
-238
-228
-214
-195
-173
-152
-135
-127
-131
-148
-175
-210
-246
-275
-293
-293
-275
-241
-194
-143
-94
-55
-33
-30
-47
-80
-124
-171
-215
-249
-269
-273
-259
-232
-195
-152
-109
-69
-37
-13
0
2
-7
-24
-48
-76
-104
-127
-142
-145
-132
-103
-57
-1
61
121
170
202
211
196
161
110
53
2
-35
-50
-39
-3
55
125
197
260
306
327
322
293
245
186
126
73
37
20
26
52
94
147
202
254
296
325
337
333
314
283
246
206
169
140
123
120
131
157
192
232
269
296
307
296
262
208
139
64
-6
-63
-97
-105
-85
-44
12
70
121
154
164
149
111
57
-4
-63
-110
-141
-152
-145
-124
-94
-63
-36
-18
-12
-20
-40
-70
-109
-154
-201
-248
-293
-333
-366
-390
-402
-401
-386
-357
-318
-273
-227
-188
-161
-153
-166
-200
-252
-316
-381
-439
-480
-496
-486
-450
-394
-326
-257
-198
-156
-138
-143
-170
-211
-260
-308
-347
-374
-387
-387
-377
-360
-341
-320
-297
-270
-234
-184
-113
-18
105
259
442
654
893
1157
1444
1751
2078
2423
2783
3156
3537
3920
4298
4663
5006
5317
5590
5814
5982
6086
6119
6076
5950
5740
5445
5070
4625
4124
3589
3042
2510
2018
1589
1241
980
807
714
683
694
723
747
749
716
645
538
404
258
113
-14
-114
-179
-209
-206
-178
-136
-90
-50
-24
-19
-36
-74
-132
-204
-284
-367
-447
-518
-575
-617
-641
-648
-639
-617
-588
-557
-530
-510
-503
-509
-527
-554
-586
-617
-641
-655
-657
-645
-623
-592
-557
-521
-490
-465
-448
-440
-441
-451
-470
-498
-531
-570
-609
-645
-672
-686
-683
-662
-625
-576
-524
-477
-445
-435
-450
-490
-549
-617
-683
-734
-761
-758
-724
-665
-589
-508
-436
-383
-357
-361
-392
-444
-507
-570
-622
-656
-666
-654
-620
-573
-521
-471
-432
-410
-406
-420
-449
-488
-530
-568
-596
-610
-608
-591
-562
-524
-484
-448
-422
-408
-411
-430
-464
-509
-560
-610
-651
-679
-689
-678
-647
-600
-542
-481
-424
-378
-349
-340
-349
-375
-412
-454
-495
-527
-548
-554
-545
-521
-488
-448
-406
-368
-338
-318
-312
-318
-336
-363
-393
-423
-446
-459
-459
-445
-417
-381
-340
-299
-263
-235
-218
-211
-214
-224
-237
-252
-265
-275
-279
-275
-263
-241
-208
-167
-119
-68
-19
19
42
44
25
-15
-67
-123
-170
-198
-197
-163
-98
-9
92
191
274
327
345
327
277
208
131
63
15
-2
13
59
131
219
311
398
469
519
545
546
527
492
447
401
361
331
317
322
345
387
442
507
574
636
687
721
734
726
699
657
606
556
512
483
470
476
499
533
572
608
634
645
637
611
570
519
464
412
370
340
326
325
337
358
383
407
426
437
437
428
408
381
348
314
280
250
226
208
196
188
182
176
165
150
127
98
64
27
-10
-43
-70
-88
-95
-91
-77
-53
-23
11
43
70
86
88
73
38
-14
-79
-153
-228
-295
-346
-377
-384
-368
-332
-282
-227
-174
-132
-105
-97
-107
-134
-172
-217
-262
-301
-330
-344
-342
-324
-292
-249
-199
-150
-107
-77
-65
-73
-102
-147
-202
-260
-311
-348
-366
-362
-338
-297
-247
-196
-151
-120
-105
-108
-127
-158
-196
-235
-273
-305
-330
-348
-357
-359
-353
-341
-322
-300
-275
-251
-230
-216
-210
-213
-223
-238
-253
-263
-264
-252
-228
-192
-151
-110
-75
-55
-51
-67
-100
-146
-197
-245
-284
-308
-312
-298
-267
-225
-177
-132
-96
-75
-70
-84
-113
-155
-203
-252
-296
-329
-348
-349
-332
-301
-258
-210
-163
-121
-91
-76
-78
-96
-126
-164
-201
-232
-249
-249
-227
-187
-132
-71
-11
39
69
75
55
9
-55
-131
-206
-271
-316
-336
-328
-292
-236
-165
-92
-24
28
59
66
49
12
-38
-96
-151
-198
-231
-246
-243
-223
-190
-149
-106
-65
-33
-12
-5
-12
-32
-63
-102
-143
-182
-215
-237
-246
-241
-223
-196
-163
-129
-101
-83
-78
-86
-105
-132
-161
-188
-206
-212
-205
-185
-157
-126
-97
-76
-68
-74
-95
-127
-167
-209
-246
-273
-288
-287
-271
-242
-204
-163
-122
-88
-64
-53
-58
-76
-107
-146
-190
-233
-270
-297
-311
-310
-293
-262
-221
-175
-129
-89
-59
-44
-45
-62
-94
-135
-179
-222
-256
-276
-280
-266
-238
-199
-156
-117
-89
-77
-84
-112
-156
-213
-276
-336
-385
-417
-427
-415
-379
-325
-257
-183
-111
-48
-2
21
20
-7
-55
-119
-191
-262
-323
-366
-385
-378
-347
-296
-232
-165
-103
-53
-22
-12
-22
-50
-91
-138
-185
-226
-259
-279
-286
-282
-268
-247
-225
-204
-187
-177
-174
-179
-190
-204
-218
-229
-233
-229
-215
-193
-165
-137
-112
-96
-94
-107
-135
-176
-227
-280
-329
-366
-388
-390
-370
-332
-278
-216
-152
-94
-50
-23
-18
-35
-71
-123
-186
-250
-310
-359
-392
-404
-395
-367
-322
-266
-205
-148
-99
-65
-46
-44
-57
-80
-108
-135
-156
-166
-163
-148
-124
-94
-63
-34
-13
-1
0
-7
-20
-37
-53
-66
-72
-70
-59
-40
-15
14
45
76
103
124
139
146
147
141
133
123
116
113
116
127
146
169
195
220
241
255
258
253
239
219
196
174
157
149
150
160
179
204
231
256
276
289
292
287
273
252
228
204
181
164
153
150
155
168
186
208
231
252
270
280
281
271
250
218
178
133
85
39
-1
-32
-53
-63
-63
-57
-47
-37
-30
-27
-28
-33
-40
-47
-54
-59
-61
-64
-68
-75
-88
-107
-132
-163
-197
-234
-271
-308
-342
-374
-402
-426
-444
-454
-456
-447
-427
-398
-361
-320
-279
-244
-218
-203
-202
-215
-238
-269
-303
-336
-364
-384
-393
-389
-372
-346
-311
-273
-238
-211
-199
-203
-228
-271
-328
-392
-452
-500
-525
-519
-481
-409
-308
-187
-54
83
217
344
466
589
721
872
1055
1279
1548
1864
2223
2618
3037
3468
3895
4308
4695
5050
5366
5641
5869
6048
6172
6233
6226
6141
5972
5717
5376
4958
4476
3948
3397
2847
2322
1844
1431
1094
836
657
549
499
492
511
538
560
563
541
491
414
317
206
93
-12
-101
-168
-210
-227
-223
-204
-178
-153
-136
-134
-151
-187
-244
-317
-400
-487
-570
-639
-688
-712
-710
-684
-639
-584
-530
-488
-465
-466
-493
-540
-601
-664
-721
-760
-776
-765
-731
-676
-610
-542
-480
-431
-401
-392
-404
-434
-479
-532
-589
-643
-689
-724
-744
-749
-741
-721
-695
-667
-642
-623
-614
-615
-625
-641
-659
-675
-685
-687
-678
-660
-632
-599
-563
-528
-498
-476
-464
-463
-475
-499
-532
-571
-613
-653
-687
-709
-719
-715
-699
-672
-640
-606
-576
-554
-541
-540
-548
-563
-582
-600
-613
-619
-616
-604
-584
-559
-534
-510
-491
-479
-475
-479
-489
-503
-521
-541
-561
-580
-598
-612
-623
-629
-627
-618
-600
-574
-542
-508
-478
-456
-446
-451
-472
-504
-543
-581
-610
-623
-616
-587
-538
-477
-412
-353
-309
-285
-285
-306
-344
-389
-433
-466
-483
-480
-460
-424
-381
-337
-300
-275
-264
-267
-282
-304
-327
-347
-359
-360
-350
-327
-294
-252
-204
-153
-102
-54
-13
18
37
41
30
7
-25
-62
-96
-120
-130
-119
-88
-37
29
101
172
232
272
290
283
256
214
168
128
102
98
118
162
225
298
370
433
479
502
500
478
441
397
356
326
314
324
355
404
466
533
597
651
688
705
699
673
630
577
519
465
421
392
382
392
418
458
504
551
590
616
625
617
592
554
509
462
419
384
361
348
346
351
359
365
368
364
354
338
318
297
276
256
238
222
208
194
179
165
150
135
122
111
103
96
90
82
70
54
31
1
-33
-70
-106
-138
-164
-180
-186
-182
-168
-148
-123
-98
-76
-61
-55
-62
-80
-110
-147
-189
-231
-266
-291
-301
-297
-278
-249
-214
-181
-155
-141
-143
-159
-188
-224
-262
-296
-320
-332
-330
-315
-293
-266
-242
-224
-218
-225
-245
-276
-314
-352
-386
-410
-417
-407
-377
-330
-271
-207
-146
-95
-62
-50
-62
-95
-145
-205
-267
-321
-362
-385
-387
-370
-336
-292
-242
-194
-155
-128
-118
-126
-150
-188
-235
-285
-332
-368
-388
-391
-374
-339
-292
-238
-186
-142
-113
-104
-115
-144
-187
-236
-284
-322
-344
-347
-329
-293
-244
-191
-141
-102
-82
-84
-107
-150
-206
-268
-326
-372
-400
-405
-387
-347
-292
-229
-166
-111
-71
-50
-49
-67
-100
-140
-182
-219
-244
-255
-251
-232
-201
-163
-122
-84
-53
-32
-24
-28
-43
-68
-98
-128
-154
-172
-179
-172
-153
-124
-88
-53
-25
-11
-13
-35
-75
-128
-190
-251
-305
-343
-362
-360
-340
-305
-262
-217
-177
-146
-126
-116
-115
-118
-123
-126
-125
-120
-112
-100
-88
-76
-65
-56
-49
-42
-37
-33
-31
-32
-38
-49
-67
-90
-117
-144
-168
-185
-193
-191
-179
-160
-138
-116
-101
-97
-105
-128
-162
-203
-246
-284
-311
-323
-316
-292
-252
-204
-154
-109
-77
-61
-66
-90
-132
-184
-241
-296
-341
-371
-382
-374
-347
-305
-254
-200
-150
-109
-84
-78
-91
-122
-167
-220
-274
-320
-352
-364
-353
-319
-265
-199
-127
-61
-8
24
31
12
-29
-87
-153
-220
-278
-320
-342
-342
-321
-284
-236
-185
-138
-104
-85
-86
-106
-142
-189
-240
-288
-325
-345
-345
-326
-290
-241
-188
-139
-99
-76
-72
-88
-123
-171
-226
-280
-327
-361
-376
-372
-348
-308
-256
-200
-145
-100
-68
-55
-61
-86
-125
-175
-228
-277
-316
-340
-346
-333
-303
-261
-213
-164
-123
-96
-87
-99
-129
-175
-229
-283
-328
-354
-358
-335
-288
-221
-145
-70
-6
37
52
39
-1
-60
-128
-194
-246
-276
-280
-256
-208
-144
-72
-3
55
95
114
112
91
59
21
-16
-43
-59
-59
-44
-17
18
55
88
114
130
135
130
118
103
88
78
73
75
84
100
121
147
176
208
242
275
306
330
344
344
326
292
242
182
120
64
25
9
22
61
124
201
280
351
400
421
411
372
310
236
161
98
56
41
54
91
146
209
270
318
347
352
333
292
233
163
91
23
-35
-78
-104
-114
-108
-90
-65
-39
-15
0
3
-9
-34
-72
-117
-165
-208
-242
-262
-265
-253
-227
-193
-156
-125
-105
-99
-110
-137
-177
-224
-273
-318
-354
-377
-385
-380
-363
-338
-309
-282
-262
-253
-256
-273
-301
-339
-380
-418
-447
-463
-460
-437
-397
-342
-279
-216
-162
-124
-105
-109
-135
-177
-230
-283
-331
-363
-374
-360
-320
-256
-171
-69
44
163
286
412
541
679
831
1005
1207
1445
1725
2047
2412
2812
3241
3688
4138
4578
4994
5372
5700
5969
6170
6297
6346
6314
6200
6005
5733
5389
4984
4529
4038
3529
3018
2523
2059
1641
1278
977
738
561
439
363
324
310
311
316
320
315
301
277
245
205
162
116
71
25
-19
-62
-105
-145
-182
-214
-240
-259
-270
-278
-284
-296
-318
-353
-404
-469
-542
-616
-681
-727
-746
-733
-689
-619
-531
-439
-355
-292
-259
-259
-294
-357
-439
-530
-617
-689
-738
-760
-755
-726
-681
-628
-576
-535
-510
-506
-521
-552
-594
-639
-680
-712
-728
-729
-714
-686
-651
-614
-579
-550
-531
-522
-524
-534
-550
-567
-583
-593
-597
-591
-575
-551
-520
-486
-453
-427
-412
-411
-427
-458
-503
-556
-612
-661
-697
-715
-711
-682
-632
-566
-489
-412
-343
-291
-262
-259
-284
-334
-403
-482
-561
-632
-686
-718
-723
-704
-664
-609
-547
-487
-435
-398
-379
-379
-397
-428
-469
-514
-557
-593
-619
-631
-629
-614
-589
-557
-523
-489
-461
-440
-427
-421
-422
-425
-429
-431
-430
-428
-424
-420
-418
-420
-425
-432
-438
-442
-440
-431
-415
-393
-366
-337
-311
-287
-267
-252
-238
-225
-210
-193
-173
-151
-131
-115
-105
-104
-111
-126
-143
-160
-171
-173
-164
-143
-114
-79
-44
-14
8
19
18
6
-13
-34
-53
-65
-65
-51
-22
21
76
139
205
269
324
365
390
395
382
354
316
275
239
215
209
223
258
308
367
427
480
518
537
537
519
490
458
430
414
415
433
467
514
565
614
654
683
696
695
682
661
638
615
597
586
583
586
594
605
616
625
628
626
616
598
572
539
501
460
420
384
356
337
330
335
350
372
397
420
437
444
438
416
380
332
275
215
156
103
59
28
11
5
10
20
32
40
40
30
7
-28
-73
-123
-172
-216
-247
-261
-256
-232
-194
-145
-95
-50
-18
-4
-10
-37
-81
-136
-197
-254
-303
-338
-357
-360
-348
-324
-293
-258
-225
-197
-177
-168
-171
-187
-215
-254
-299
-345
-386
-418
-433
-429
-404
-360
-302
-236
-171
-118
-85
-77
-97
-143
-209
-285
-362
-429
-474
-492
-481
-442
-381
-307
-230
-162
-110
-82
-79
-99
-139
-190
-243
-291
-327
-347
-350
-337
-311
-278
-243
-211
-187
-174
-171
-178
-195
-217
-242
-265
-285
-297
-301
-293
-275
-247
-213
-175
-140
-113
-99
-101
-122
-159
-209
-265
-319
-363
-389
-393
-373
-332
-276
-214
-158
-116
-96
-103
-134
-184
-246
-308
-358
-388
-393
-370
-323
-260
-190
-125
-73
-43
-38
-56
-96
-149
-208
-264
-311
-341
-354
-347
-322
-282
-233
-178
-126
-82
-51
-38
-44
-70
-112
-165
-221
-270
-306
-322
-315
-286
-241
-188
-137
-99
-81
-87
-117
-166
-225
-285
-335
-367
-377
-364
-332
-287
-235
-183
-137
-99
-72
-54
-45
-43
-48
-61
-81
-111
-149
-194
-241
-285
-320
-340
-339
-318
-277
-223
-163
-107
-62
-36
-31
-47
-80
-124
-169
-209
-235
-245
-235
-207
-167
-118
-69
-25
6
21
16
-9
-53
-112
-181
-251
-316
-366
-397
-402
-381
-335
-272
-199
-128
-70
-33
-26
-49
-100
-171
-253
-331
-395
-434
-444
-423
-375
-308
-233
-162
-105
-70
-61
-80
-120
-177
-240
-301
-351
-385
-399
-393
-369
-333
-292
-251
-217
-196
-189
-199
-223
-257
-297
-336
-367
-387
-390
-377
-347
-304
-254
-201
-151
-111
-84
-73
-78
-98
-128
-165
-202
-236
-262
-275
-276
-263
-239
-208
-174
-143
-119
-109
-115
-137
-173
-220
-271
-318
-354
-373
-372
-351
-312
-263
-211
-165
-134
-122
-131
-161
-206
-260
-312
-357
-385
-394
-381
-349
-301
-245
-186
-132
-89
-62
-55
-68
-99
-146
-202
-261
-316
-361
-388
-395
-381
-346
-295
-234
-168
-107
-56
-20
-4
-7
-27
-61
-102
-145
-181
-203
-207
-190
-152
-94
-22
55
128
188
226
236
217
169
99
16
-67
-139
-190
-211
-199
-155
-85
2
93
176
241
279
288
269
225
166
103
47
8
-9
0
32
84
145
207
259
294
307
299
271
228
178
129
86
54
35
29
33
45
61
77
90
97
98
92
77
55
25
-9
-46
-81
-110
-130
-137
-131
-111
-82
-50
-20
1
7
-3
-31
-72
-122
-173
-218
-253
-273
-277
-266
-245
-218
-191
-168
-154
-153
-165
-192
-231
-281
-337
-394
-447
-489
-516
-523
-507
-470
-417
-353
-289
-234
-198
-188
-206
-252
-319
-397
-473
-536
-574
-581
-554
-495
-413
-316
-218
-131
-66
-31
-31
-64
-127
-213
-310
-408
-496
-563
-603
-611
-586
-531
-451
-354
-248
-140
-36
61
154
247
347
465
609
788
1007
1268
1567
1899
2252
2619
2986
3346
3693
4022
4331
4619
4887
5134
5355
5544
5691
5785
5813
5764
5629
5403
5088
4692
4231
3725
3197
2672
2173
1721
1329
1008
759
579
460
391
360
353
357
361
356
338
303
249
179
97
8
-79
-158
-223
-267
-289
-290
-273
-246
-218
-195
-187
-198
-229
-280
-344
-416
-486
-546
-590
-613
-615
-598
-566
-524
-482
-445
-419
-410
-420
-447
-489
-541
-596
-648
-689
-714
-719
-705
-673
-629
-580
-533
-497
-477
-476
-495
-531
-578
-629
-675
-711
-729
-729
-711
-677
-632
-585
-540
-504
-481
-472
-479
-498
-527
-561
-595
-626
-651
-664
-667
-657
-635
-603
-564
-523
-482
-447
-423
-411
-415
-433
-465
-506
-551
-594
-631
-657
-667
-662
-640
-604
-557
-502
-445
-390
-343
-309
-293
-299
-326
-375
-442
-520
-600
-671
-725
-752
-748
-714
-654
-578
-495
-421
-365
-335
-333
-357
-400
-450
-497
-530
-542
-532
-502
-457
-408
-362
-328
-312
-314
-334
-367
-407
-448
-483
-510
-524
-526
-515
-493
-461
-423
-383
-343
-308
-283
-271
-275
-296
-335
-387
-447
-508
-561
-599
-615
-607
-574
-520
-453
-380
-311
-254
-216
-197
-198
-213
-237
-259
-274
-274
-256
-222
-173
-117
-60
-12
21
35
28
1
-40
-89
-137
-176
-201
-206
-192
-159
-112
-57
0
52
95
127
146
155
155
152
149
148
153
166
185
211
242
276
312
349
384
416
444
465
479
484
481
469
450
428
405
386
376
377
392
421
462
511
561
607
641
658
656
635
599
554
509
470
446
439
452
481
519
560
594
615
618
601
565
515
457
398
343
299
267
249
242
246
254
263
269
269
258
237
205
163
114
65
19
-16
-38
-40
-24
10
57
109
161
203
232
242
235
211
175
132
88
45
6
-27
-55
-80
-103
-125
-146
-164
-180
-192
-199
-202
-201
-198
-194
-191
-190
-190
-192
-194
-193
-191
-185
-177
-167
-155
-145
-138
-134
-133
-135
-138
-143
-148
-153
-157
-161
-165
-170
-177
-186
-197
-208
-221
-233
-246
-257
-266
-272
-275
-273
-267
-256
-239
-216
-187
-154
-121
-91
-68
-59
-65
-89
-128
-180
-238
-291
-332
-351
-344
-308
-246
-164
-76
8
73
111
116
86
25
-58
-151
-241
-315
-365
-384
-372
-331
-269
-195
-120
-52
-1
29
33
12
-30
-88
-156
-227
-291
-342
-374
-384
-371
-335
-281
-214
-142
-73
-16
22
36
23
-14
-72
-142
-215
-279
-327
-352
-350
-323
-276
-217
-158
-110
-80
-75
-95
-138
-194
-254
-305
-339
-347
-328
-282
-218
-147
-79
-25
6
10
-14
-58
-115
-173
-220
-247
-247
-217
-160
-84
3
89
162
213
234
223
181
113
25
-71
-164
-245
-305
-338
-342
-319
-273
-212
-144
-78
-25
11
26
18
-8
-49
-98
-149
-194
-229
-252
-262
-260
-251
-235
-215
-194
-173
-151
-129
-105
-80
-56
-32
-13
2
10
12
9
3
-4
-9
-10
-6
2
13
23
30
30
21
3
-23
-52
-80
-101
-110
-104
-83
-48
-6
37
72
91
88
62
16
-43
-104
-157
-191
-199
-179
-131
-65
11
83
140
174
181
160
119
63
1
-56
-103
-135
-151
-152
-140
-119
-91
-62
-36
-15
-3
-4
-20
-54
-103
-167
-237
-305
-362
-398
-408
-388
-340
-272
-193
-116
-53
-14
-3
-22
-67
-129
-200
-269
-327
-368
-390
-392
-377
-348
-309
-265
-219
-175
-132
-93
-56
-24
4
26
41
48
46
32
6
-31
-78
-132
-188
-240
-281
-307
-313
-298
-265
-220
-171
-126
-95
-84
-96
-130
-183
-245
-307
-363
-405
-428
-433
-422
-399
-369
-336
-303
-272
-239
-202
-160
-110
-53
9
71
126
167
188
186
159
112
52
-15
-78
-131
-165
-179
-172
-148
-114
-78
-47
-26
-19
-27
-46
-72
-101
-128
-148
-159
-161
-154
-141
-123
-101
-78
-53
-30
-10
5
11
6
-13
-44
-86
-135
-183
-222
-245
-246
-223
-176
-113
-42
25
79
110
112
83
29
-44
-125
-202
-265
-306
-319
-304
-263
-203
-132
-63
-5
32
43
24
-24
-96
-184
-276
-361
-426
-464
-468
-439
-380
-300
-212
-130
-67
-33
-36
-77
-153
-255
-370
-485
-587
-663
-705
-712
-683
-627
-552
-470
-394
-334
-297
-289
-309
-356
-423
-502
-585
-661
-722
-762
-776
-760
-716
-646
-557
-457
-359
-275
-216
-194
-214
-278
-380
-510
-652
-788
-901
-978
-1009
-994
-939
-854
-757
-665
-593
-549
-540
-559
-599
-646
-685
-701
-686
-635
-549
-432
-293
-142
14
167
311
447
575
697
818
943
1076
1222
1386
1573
1786
2028
2299
2596
2911
3235
3551
3844
4094
4286
4405
4442
4396
4267
4064
3800
3488
3145
2783
2415
2052
1700
1364
1049
756
487
245
33
-148
-296
-411
-492
-541
-563
-561
-541
-510
-475
-443
-420
-411
-421
-449
-496
-558
-629
-702
-770
-826
-865
-882
-878
-854
-815
-770
-726
-692
-675
-679
-706
-753
-816
-886
-957
-1019
-1066
-1093
-1098
-1083
-1052
-1011
-967
-928
-898
-884
-887
-905
-938
-980
-1027
-1073
-1113
-1142
-1156
-1152
-1131
-1093
-1041
-981
-917
-857
-805
-766
-741
-732
-736
-749
-769
-790
-810
-826
-838
-848
-857
-866
-877
-889
-903
-915
-924
-928
-928
-925
-921
-918
-920
-927
-938
-952
-965
-970
-964
-942
-904
-852
-792
-730
-674
-632
-611
-611
-633
-672
-723
-777
-827
-866
-892
-901
-897
-883
-863
-845
-832
-830
-840
-862
-893
-929
-965
-995
-1015
-1019
-1006
-977
-935
-887
-838
-797
-770
-762
-775
-806
-849
-898
-941
-971
-981
-966
-929
-874
-811
-750
-701
-673
-671
-695
-740
-798
-859
-910
-945
-956
-943
-907
-855
-794
-733
-680
-639
-615
-605
-608
-619
-635
-651
-663
-671
-673
-670
-661
-646
-626
-600
-568
-530
-487
-443
-400
-363
-337
