-582
-258
24
-148
-280
-161
-201
-301
-85
-11
-116
-90
27
-44
-97
167
211
146
454
388
-77
238
303
32
207
276
267
44
22
-7
-275
-229
-161
-391
-440
-186
-155
-254
-327
-556
-629
-276
62
853
2567
4485
6013
6585
5227
2702
1431
1226
492
50
86
-107
-448
-644
-536
-530
-638
-660
-611
-533
-509
-463
-632
-793
-575
-657
-713
-452
-408
-694
-726
-499
-697
-624
-370
-457
-386
-300
-613
-654
-460
-447
-345
-166
44
-168
-248
256
361
45
324
680
547
624
644
614
822
872
685
626
589
534
424
102
191
-147
-521
-88
2
-360
-380
-248
-458
-359
-77
-355
-647
-336
-193
-377
-253
-215
-603
-615
-398
-468
-455
-428
-389
-458
-423
-260
-352
-457
-273
-270
-437
-306
-350
-365
-251
-330
-554
-516
-165
-373
-453
-225
-275
-311
-486
-390
-371
-489
-161
-406
-833
-473
-359
-357
-92
-271
-472
-464
-398
-423
-514
-275
-150
-517
-564
-418
-650
-476
-182
-299
-176
-64
-146
-150
-82
-14
-137
-43
98
199
129
-82
112
-111
-287
-88
-254
-323
-235
-364
-400
-354
-567
-566
-213
-283
-636
-567
-446
-520
-185
857
2306
4071
5991
6415
4295
1777
1001
945
133
-296
-62
-237
-527
-536
-600
-759
-579
-633
-1030
-838
-677
-741
-472
-526
-797
-678
-632
-671
-643
-783
-869
-715
-410
-445
-677
-563
-432
-456
-535
-489
-381
-313
-100
-151
-227
21
188
-12
29
508
416
333
608
680
686
814
1001
803
696
797
420
114
307
342
99
-22
72
-29
-319
-166
-95
-374
-478
-440
-354
-330
-378
-356
-252
-218
-396
-439
-138
-199
-401
-153
-216
-314
-408
-400
-159
-361
-393
-275
-283
-267
-138
-147
-293
-45
41
-302
-435
-330
-399
-276
-62
-210
-286
-82
86
-139
-314
-187
-224
-257
-89
-104
-285
-243
-272
-471
-19
5
-583
-314
-56
-92
-49
-75
-146
-288
-188
-25
-134
6
238
137
72
268
307
94
193
203
19
213
293
178
199
85
0
-148
-231
-3
-264
-555
-318
-207
-240
-85
-2
-414
-443
175
802
2204
4362
5866
6207
4686
2327
1197
594
251
107
-80
45
-266
-705
-500
-457
-610
-468
-478
-685
-656
-276
-175
-550
-513
-467
-651
-437
-383
-553
-634
-692
-486
-307
-467
-561
-467
-310
-211
-69
-52
-416
-421
-120
41
51
-79
97
363
374
438
685
790
500
766
971
444
626
1012
684
483
632
435
206
106
124
149
-142
-171
-274
-457
-202
-242
-418
-146
-97
-349
-244
-54
-271
-436
-117
-203
-521
-212
-322
-603
-410
-235
-133
-234
-337
-283
-146
-171
-211
-283
-264
-142
-358
-296
-89
-234
-222
-52
-157
-318
-190
-139
-348
-340
-60
-252
-533
-195
-43
-315
-225
-27
-155
-89
-102
-380
-431
-337
-186
-278
-385
-215
-299
-287
-86
-22
-146
-208
-196
-359
-137
154
73
55
67
82
4
91
415
203
64
352
381
252
295
295
26
49
67
-233
-78
-87
-406
-149
-102
-435
-308
-94
-369
-404
-401
-394
328
1465
3213
5218
6479
6274
4188
2036
1369
944
273
69
73
-172
-733
-825
-481
-492
-484
-540
-670
-596
-503
-774
-927
-640
-538
-594
-579
-539
-586
-540
-488
-730
-662
-442
-554
-566
-476
-443
-507
-476
-247
-139
-180
-297
-395
-281
33
265
151
42
409
584
427
614
759
839
969
875
514
225
342
315
131
183
187
156
-187
-371
-219
-415
-317
-358
-433
-215
-299
-504
-620
-366
-374
-497
-313
-358
-454
-228
-47
-464
-511
-258
-471
-388
-205
-354
-318
-268
-435
-384
-274
-130
-48
-314
-357
-256
-351
-258
-220
-371
-393
-322
-303
-315
-66
-183
-447
-189
-234
-426
-107
-6
-434
-496
-171
-184
-411
-219
-128
-360
-343
-127
-150
-402
-329
-227
-259
-8
158
58
120
217
80
191
420
273
168
307
368
258
85
194
126
-300
-162
42
-248
-317
-186
-281
-302
-260
-395
-386
-182
-424
-423
46
422
1624
3487
5328
6384
5456
3276
1579
799
444
305
82
-398
-421
-338
-561
-626
-595
-504
-539
-566
-540
-530
-441
-532
-662
-720
-668
-619
-479
-347
-641
-695
-431
-541
-589
-432
-496
-369
-186
-326
-399
-229
-160
-234
-55
156
-69
-101
225
301
461
695
690
552
585
885
974
805
670
638
631
431
305
331
106
23
46
-106
-91
-19
11
-227
-450
-528
-470
-232
-366
-349
-163
-117
-143
-415
-464
-402
-340
-206
-233
-235
-133
-245
-511
-508
-304
-322
-310
22
-33
-331
-343
-293
-346
-285
-175
-266
-25
236
-244
-462
-314
-376
-370
-258
-141
-250
-339
-202
-261
-322
-113
-193
-342
-150
-250
-466
-314
-151
-238
-249
-75
-123
-154
185
357
-22
-298
-48
235
148
61
-10
23
207
292
161
-117
-8
-212
-361
-29
-222
-467
-368
-195
-448
-540
-129
-172
-355
-306
-122
413
1753
3551
5289
6210
4952
2550
987
735
474
-236
-153
18
-454
-571
-339
-509
-708
-574
-574
-627
-597
-717
-657
-633
-484
-239
-687
-788
-426
-493
-620
-634
-562
-540
-563
-599
-666
-414
-193
-409
-447
-201
-212
-331
-126
76
-56
-6
128
114
355
709
660
454
763
957
534
551
787
694
494
326
289
152
12
-88
-230
-269
-155
-280
-375
-224
-345
-479
-427
-401
-257
-255
-324
-379
-329
-60
-303
-628
-377
-335
-501
-328
-319
-366
-184
-205
-328
-138
-115
-481
-395
-162
-324
-436
-324
-129
-170
-351
-213
-178
-247
-207
-212
-387
-544
-186
-212
-492
-255
-210
-366
-259
-194
-327
-205
-203
-417
-345
-89
-7
-402
-331
-112
-308
-74
157
-52
-105
161
73
-109
227
260
-50
107
350
87
-86
-7
-81
-161
-302
-289
-392
-425
-215
-379
-442
-289
-320
-366
-367
-346
-134
602
2090
3978
5683
6408
4985
2589
1553
1038
142
-153
-8
-250
-527
-438
-571
-670
-497
-640
-828
-767
-517
-562
-826
-546
-599
-861
-541
-454
-689
-761
-519
-408
-694
-758
-527
-443
-437
-377
-420
-300
-137
-275
-313
-212
-262
-27
441
346
152
330
589
668
717
852
767
370
477
914
599
468
626
340
322
375
-7
-139
28
-21
-312
-398
-302
-393
-439
-336
-327
-437
-355
-399
-519
-330
-301
-410
-393
-264
-167
-364
-473
-254
-426
-613
-252
-364
-622
-293
-270
-569
-267
-3
-393
-378
-255
-488
-428
-155
-171
-324
-198
-240
-338
-236
-212
-400
-497
-274
-303
-380
-287
-377
-451
-327
-177
-218
-288
-202
-177
-379
-346
-69
-254
-239
-213
-655
-523
-110
-160
-201
38
41
107
187
102
48
-38
100
251
151
177
352
77
-57
167
11
-134
-66
-121
-33
-119
-284
-495
-622
-234
-359
-525
-235
-288
-539
-180
643
1628
3615
5908
6721
5368
3084
1576
811
486
256
-85
-229
-240
-402
-559
-558
-624
-774
-710
-661
-691
-590
-555
-638
-646
-454
-449
-708
-630
-590
-737
-482
-118
-275
-785
-707
-395
-490
-522
-370
-322
-376
-410
-411
-138
204
40
24
363
351
464
735
658
529
604
806
970
776
668
815
548
346
381
235
144
25
-118
-130
-82
-62
-277
-445
-341
-302
-342
-239
-277
-396
-144
52
-345
-515
-127
-255
-482
-244
-294
-416
-300
-237
-409
-494
-116
66
-186
-297
-130
-180
-354
-60
-63
-342
-221
-257
-422
-380
-222
-145
-110
-66
-346
-390
-48
-188
-331
-160
-143
-156
-112
-191
-335
-498
-273
-138
-297
-102
-150
-306
-138
68
24
69
140
-89
36
300
353
218
136
152
-96
-152
113
273
59
9
149
-382
-468
-47
-381
-594
-318
-262
-270
-266
-460
-480
-276
243
1368
3117
4936
6001
5465
3324
1269
596
629
275
-42
-87
-295
-511
-707
-577
-404
-833
-792
-347
-486
-538
-334
-469
-693
-624
-530
-647
-581
-464
-478
-240
-508
-861
-604
-407
-346
-389
-351
-421
-475
-228
-321
-372
-64
-28
24
283
144
205
413
409
651
628
737
839
622
614
664
737
550
210
495
461
-217
-105
112
-86
49
212
-322
-680
-377
-382
-461
-319
-331
-499
-330
-178
-406
-325
-212
-326
-374
-281
-277
-475
-211
-53
-350
-418
-261
-214
-328
-253
-182
-269
-250
-142
-289
-412
-81
-24
-285
-243
-125
-361
-245
-53
-401
-327
-102
-279
-421
-264
-80
-117
-176
-247
-416
-379
-42
-145
-324
-145
-136
-155
-66
-36
-25
191
225
166
91
122
251
45
180
313
6
59
291
-32
-322
-158
-154
-155
-257
-296
-268
-413
-260
-299
-558
-251
-230
-623
19
979
1910
3754
5756
6292
4689
2575
1373
683
287
154
-15
-341
-415
-421
-638
-487
-320
-667
-656
-447
-642
-646
-518
-568
-631
-475
-565
-750
-563
-451
-502
-556
-460
-418
-582
-569
-450
-354
-365
-431
-343
-329
-186
-119
-248
36
213
2
123
399
504
586
566
533
610
823
861
697
721
652
368
269
310
347
235
-68
-151
-212
-200
-164
-428
-421
-188
-210
-177
-237
-420
-467
-309
-144
-266
-378
-346
-310
-428
-300
-215
-440
-315
-76
-367
-522
-219
-241
-261
-96
-204
-431
-406
-75
-52
-162
-140
-220
-290
-290
-286
-366
-236
-63
-156
-223
-54
-288
-580
-223
-241
-337
-192
-293
-94
-128
-390
-310
-212
-133
-267
-351
-169
-143
-365
-345
-10
-49
-208
90
251
94
34
299
94
-352
210
247
-75
309
323
34
163
297
-13
-159
-118
-225
-409
-355
-209
-385
-382
-305
-507
-639
-525
-276
39
807
2076
3989
5976
6579
5190
2631
1499
1136
122
142
240
-362
-384
-256
-504
-681
-519
-493
-645
-456
-249
-518
-745
-315
-319
-722
-467
-349
-623
-582
-360
-572
-761
-492
-379
-509
-543
-453
-325
-270
-397
-494
-282
-101
-201
-163
161
237
74
325
479
382
532
614
701
854
833
734
755
699
518
399
204
110
3
-96
-27
-211
-437
-272
-155
-391
-479
-300
-310
-356
-306
-364
-486
-412
-215
-387
-402
-96
-383
-572
-389
-397
-374
-291
-225
-422
-550
-378
-300
-395
-249
-242
-448
-189
-170
-513
-238
21
-277
-135
-101
-512
-381
-237
-386
-395
-35
-72
-495
-235
-38
-266
-296
-170
-301
-427
-116
47
-380
-600
-313
-219
-248
-105
-77
-156
14
145
6
45
163
50
177
275
336
263
-103
57
-94
-208
101
-79
-97
116
-104
-501
-475
-321
-439
-344
-131
-216
-397
-440
-418
-182
831
2389
3993
5654
6272
4422
1933
1027
533
53
88
-15
-272
-459
-427
-507
-697
-636
-661
-621
-550
-731
-804
-629
-467
-572
-768
-507
-252
-627
-783
-548
-484
-320
-312
-685
-671
-515
-533
-564
-444
-147
-178
-264
-2
-50
-165
133
196
174
258
361
466
587
780
680
495
774
892
724
674
535
303
85
167
62
-78
29
-197
-429
-344
-300
-472
-453
-255
-295
-407
-176
-49
-269
-459
-421
-463
-466
-238
-434
-518
-220
-293
-496
-298
-53
-214
-425
-362
-204
-252
-308
-304
-334
-284
-234
-177
-193
-204
-247
-317
-138
-104
-339
-226
-178
-406
-453
-205
-175
-479
-185
-16
-352
-377
-249
-364
-332
-192
-248
-87
-161
-333
-165
-4
298
221
-217
114
292
-3
113
147
88
218
175
-128
-161
-25
-96
-264
-186
-186
-550
-442
-108
-336
-526
-259
-236
-505
-390
-182
441
1883
3511
5215
6114
5120
2874
1215
721
503
93
-267
-433
-666
-718
-443
-397
-560
-657
-669
-681
-727
-564
-510
-730
-577
-427
-730
-670
-584
-730
-577
-429
-552
-599
-473
-499
-476
-499
-536
-422
-420
-425
-429
-301
38
133
134
35
-31
116
255
732
614
328
818
654
363
638
664
518
582
492
151
116
-52
-238
-182
-114
-202
-454
-282
-157
-506
-437
-93
-350
-541
-360
-371
-413
-277
-320
-524
-466
-339
-430
-474
-277
-324
-439
-269
-185
-270
-327
-278
-374
-493
-287
-262
-452
-286
-314
-420
-236
-125
-72
-284
-354
-287
-324
-88
-185
-435
-335
-239
-333
-438
-301
-268
-360
-223
-129
-301
-392
-265
-329
-436
-212
-182
-340
-368
-263
-75
-52
149
271
-98
-71
191
69
167
294
53
-34
157
158
-130
139
339
-264
-419
-310
-317
-404
-448
-346
-520
-287
-273
-512
-203
-303
-318
403
1673
3704
5632
6532
5538
2956
1456
1053
318
-49
-23
-164
-478
-555
-483
-594
-524
-567
-847
-784
-581
-635
-695
-560
-443
-764
-882
-579
-614
-615
-524
-573
-665
-701
-574
-539
-575
-446
-392
-512
-353
-314
-473
-89
-151
-290
52
-24
-28
192
452
461
462
838
829
427
529
603
508
656
642
437
230
265
137
-157
-167
-142
-154
-228
-291
-475
-616
-315
-351
-485
-295
-272
-267
-387
-425
-331
-454
-444
-294
-327
-462
-318
-271
-526
-333
-233
-516
-290
-95
-455
-347
-113
-288
-362
-370
-242
-216
-251
-130
-278
-338
-208
-318
-136
117
-481
-701
-204
-295
-477
-340
-200
-264
-276
-54
-155
-529
-434
-167
-298
-339
46
-93
-465
-285
-386
-284
184
252
-92
-24
237
3
53
315
173
14
211
231
27
65
192
24
-200
-211
-259
-366
-463
-455
-498
-501
-255
-329
-475
-364
-370
-108
907
2658
4502
5957
6501
4792
2180
1329
935
-28
-117
-121
-454
-394
-431
-621
-763
-582
-574
-745
-498
-498
-498
-434
-615
-604
-717
-667
-352
-431
-529
-441
-507
-691
-652
-550
-651
-396
-252
-675
-569
-206
-328
-300
-163
-203
-91
82
156
237
371
593
607
426
573
665
761
991
730
456
611
627
306
122
143
95
-143
-239
-237
-308
-156
-178
-343
-331
-314
-472
-475
-166
-348
-510
-137
-348
-623
-303
-315
-492
-303
-160
-366
-419
-295
-282
-282
-237
-341
-463
-347
-366
-268
-72
-209
-299
-351
-239
-69
-273
-319
-18
61
-345
-306
-103
-456
-292
-115
-276
-187
-59
-182
-388
-354
-303
-212
-94
-251
-435
-363
-143
-178
-400
-177
63
-42
-112
62
97
9
143
331
337
93
26
72
74
235
125
-158
302
45
-610
-52
-91
-382
-337
-290
-272
-504
-354
-279
-340
-285
-253
82
1058
2795
4464
5849
6166
4090
1628
962
827
223
-15
-108
-301
-445
-480
-495
-705
-711
-602
-676
-614
-346
-432
-723
-540
-528
-790
-560
-411
-556
-634
-628
-632
-705
-606
-412
-416
-320
-148
-393
-507
-316
-399
-328
-157
-83
93
36
56
261
416
544
381
435
823
882
794
810
719
459
359
407
273
131
304
393
48
-228
-219
-445
-356
-160
-315
-329
-408
-391
-382
-280
-77
-222
-418
-295
-394
-508
-165
-169
-442
-324
-323
-503
-244
-83
-211
-335
-209
-132
-488
-417
-47
-185
-225
-17
-255
-428
-221
-153
-264
-71
-211
-458
-213
-108
-288
-357
-20
-55
-338
-258
-276
-348
-293
-227
-226
-217
-199
-281
-320
-188
-212
-216
-79
-94
-133
-124
89
100
-91
134
384
272
120
106
87
92
251
103
-134
125
71
-276
35
-2
-526
-517
-315
-309
-279
-139
-383
-467
-463
-612
-167
689
1961
3847
5561
6387
5458
2857
1396
1259
472
-106
-55
-124
-357
-358
-518
-839
-623
-497
-599
-728
-750
-638
-672
-551
-455
-610
-699
-600
-634
-684
-526
-544
-605
-581
-472
-413
-473
-394
-456
-482
-420
-484
-396
-331
-99
38
-46
1
126
491
531
341
429
644
813
675
590
779
598
338
493
480
332
327
205
-202
-325
-37
-195
-427
-229
-282
-505
-337
-190
-381
-417
-156
-181
-502
-459
-408
-491
-306
-82
-219
-532
-525
-425
-508
-401
-173
-252
-241
-201
-362
-328
-198
-242
-279
-170
-249
-394
-81
-1
-554
-503
-52
-197
-256
49
-173
-501
-310
-124
-240
-370
-108
-163
-345
-167
-278
-497
-264
-112
-409
-227
-68
-333
-160
20
-231
-226
218
381
28
3
363
263
44
65
58
69
372
380
-180
-137
141
-46
-14
-149
-396
-361
-469
-380
-382
-468
-205
-298
-404
-206
-126
438
1818
3543
5260
6675
5966
2963
1250
1181
536
-81
-4
-139
-407
-424
-491
-559
-634
-567
-467
-704
-637
-365
-684
-749
-521
-587
-636
-576
-542
-557
-411
-472
-712
-593
-300
-490
-687
-441
-253
-412
-487
-223
-146
-290
-151
-18
-19
343
303
73
428
706
617
618
919
890
528
833
933
433
485
558
289
208
121
-81
-214
-149
-36
-315
-362
-151
-308
-261
-170
-420
-399
-177
-331
-529
-255
-191
-388
-328
-151
-117
-527
-430
-142
-346
-311
-228
-282
-322
-139
5
-353
-381
-180
-428
-209
97
-225
-274
-108
-337
-304
38
-12
-324
-335
-135
-208
-315
-303
-251
-259
-145
-76
-290
-153
-49
-248
-115
-134
-380
-373
-189
-159
-331
-36
213
-118
-154
188
129
79
466
329
-16
209
160
68
333
276
-1
3
378
309
-105
-31
-11
-524
-447
-99
-596
-654
-128
-228
-417
-275
-152
94
1146
2885
4404
5781
6177
4276
1923
1075
777
379
181
-16
-298
-515
-575
-496
-653
-720
-441
-513
-676
-487
-590
-878
-539
-276
-615
-700
-473
-354
-592
-606
-453
-493
-426
-494
-443
-422
-483
-483
-401
-271
-172
-89
2
41
-55
215
387
246
453
515
359
576
773
824
841
798
727
734
841
695
542
475
639
281
-502
-475
-379
-440
-438
-313
-281
-367
-120
-183
-483
-348
-231
-254
-143
-303
-397
-337
-473
-496
-512
-404
-319
-410
-140
-51
-412
-416
-245
-366
-297
-50
-155
-323
-506
-527
-307
-176
85
-17
-271
-62
-66
-317
-415
-302
-331
-410
-180
-142
-212
-101
-189
-252
-101
-267
-388
-329
-278
-199
-261
-232
-127
-179
28
217
-178
-322
-58
121
8
-63
42
39
356
459
66
0
258
232
-23
126
224
-97
-117
31
-77
-169
-224
-387
-490
-350
-202
-374
-461
-241
-572
-570
412
1470
3147
5025
6386
6150
3740
1744
1198
635
77
37
-173
-308
-218
-558
-675
-425
-608
-720
-550
-634
-795
-657
-483
-719
-575
-303
-507
-660
-604
-502
-705
-756
-601
-402
-379
-567
-474
-588
-420
-248
-290
-141
-370
-419
-111
255
140
-2
373
433
282
513
785
718
739
857
756
588
768
704
341
392
178
-72
86
65
-11
-122
-265
-215
-337
-477
-287
-244
-451
-238
-77
-394
-345
-271
-401
-279
-223
-405
-435
-154
-259
-593
-386
-307
-519
-380
-112
-225
-369
-201
-130
-155
-254
-341
-300
-302
-52
-68
-411
-317
-173
-255
-314
-180
-189
-259
-201
-220
-337
-203
-210
-430
-72
-49
-644
-449
-52
-336
-287
-49
-323
-340
-159
-185
-180
-283
-183
25
142
169
5
-182
31
246
86
244
263
63
143
268
282
14
-4
321
-52
-475
-224
-185
-440
-473
-251
-318
-503
-378
-309
-341
-325
-118
662
2377
4419
5991
6541
4927
2391
1411
1055
315
139
-64
-561
-587
-392
-439
-613
-673
-598
-492
-643
-712
-747
-779
-467
-581
-947
-654
-506
-805
-691
-336
-462
-800
-634
-483
-653
-518
-331
-344
-372
-387
-253
-293
-355
-78
-198
-179
303
147
127
586
564
577
777
672
725
779
656
532
406
532
473
179
285
174
-119
-89
-314
-419
-350
-318
-250
-374
-271
-209
-368
-255
-252
-437
-349
-235
-523
-537
-324
-341
-373
-384
-180
-347
-474
-162
-413
-490
-178
-267
-444
-241
109
-375
-529
84
-72
-373
-250
-194
-316
-386
-198
-120
-315
-191
-148
-409
-191
-19
-269
-304
-148
-191
-387
-264
-132
-427
-290
-185
-326
-92
-185
-358
-273
-167
-233
-237
-81
-158
-141
104
279
305
259
161
63
43
209
247
12
243
385
-142
-214
27
-85
-228
-276
-210
-147
-244
-325
-428
-486
-294
-389
-577
-146
439
1335
3035
4872
6188
5784
3654
1627
821
595
63
-246
-207
-256
-365
-494
-680
-676
-583
-388
-340
-778
-866
-498
-555
-668
-392
-566
-934
-470
-272
-648
-581
-496
-659
-614
-435
-233
-209
-519
-620
-403
-287
-288
-218
-210
-64
165
106
167
406
188
399
917
481
358
815
916
644
679
859
423
284
582
418
44
81
-96
-544
-370
-70
-157
-273
-346
-442
-459
-193
-139
-468
-313
-72
-376
-431
-104
-384
-566
-316
-424
-410
-226
-369
-445
-176
-173
-425
-344
-220
-461
-385
-97
-235
-462
-322
-33
-164
-271
-86
-218
-295
-151
-282
-367
-210
-61
-275
-335
-67
-115
-280
-243
-252
-458
-294
-99
-222
-179
-157
-350
-396
-197
-213
-364
-105
180
199
29
99
198
-159
-61
378
325
171
177
202
127
193
185
-38
43
-81
-267
-237
-252
-341
-344
-159
-283
-520
-368
-178
-345
-505
-195
456
1529
3401
5323
6078
5570
3620
1341
653
572
146
-143
-249
-326
-472
-646
-663
-705
-586
-388
-659
-736
-568
-717
-778
-638
-493
-476
-760
-748
-599
-675
-425
-382
-713
-615
-444
-550
-494
-356
-428
-388
-220
-324
-415
-120
39
-15
141
302
263
348
676
495
357
747
848
622
635
693
500
413
477
419
235
67
-174
-351
-162
15
-222
-437
-368
-322
-378
-277
-256
-361
-312
-268
-490
-554
-221
-237
-525
-356
-251
-499
-444
-233
-180
-342
-489
-379
-332
-344
-217
-248
-351
-223
-313
-431
-204
-108
-246
-422
-396
-336
-329
-133
-202
-363
-150
-108
-269
-341
-300
-344
-229
-26
-399
-556
-147
-83
-419
-374
-28
-212
-500
-282
-260
-441
-197
-147
-342
-84
-74
-361
-177
-20
-6
82
94
170
75
112
299
42
47
181
75
60
66
176
59
-132
-12
-97
-251
-232
-275
-268
-251
-387
-529
-434
-352
-460
-285
186
650
2163
4486
6074
6424
5238
2985
1325
841
425
77
-20
-177
-467
-703
-539
-499
-909
-878
-565
-656
-698
-630
-666
-685
-618
-518
-534
-576
-554
-760
-803
-554
-584
-603
-454
-406
-617
-717
-366
-329
-446
-229
-273
-363
-157
-121
-181
133
273
185
374
598
573
486
679
923
810
612
736
813
597
515
225
-73
77
6
-205
-218
-224
-292
-328
-286
-367
-414
-291
-279
-393
-394
-329
-522
-473
-159
-275
-351
-303
-497
-476
-315
-272
-232
-259
-269
-325
-416
-299
-187
-357
-390
-31
-154
-368
-142
-193
-391
-242
-125
-411
-355
-47
-229
-441
-234
-38
-224
-309
-258
-355
-302
-257
-390
-389
-295
-175
-156
-460
-273
-148
-469
-239
-205
-276
-221
-284
-130
46
213
120
-154
-39
172
100
46
260
148
-10
277
231
-5
53
-35
-171
-4
-192
-525
-475
-346
-459
-568
-301
-209
-237
-125
-341
-364
573
1873
3546
5584
6437
5031
2532
1175
772
295
145
147
-284
-702
-331
-439
-949
-607
-593
-877
-633
-566
-782
-583
-479
-766
-720
-232
-277
-754
-639
-488
-799
-767
-408
-322
-370
-422
-521
-606
-537
-288
-274
-327
-170
-371
-333
118
321
343
330
474
387
498
821
570
616
980
750
417
476
625
544
346
165
-84
-229
-102
-77
-295
-284
-153
-358
-518
-233
-158
-395
-302
-323
-525
-314
-146
-321
-460
-285
-211
-401
-463
-417
-348
-363
-393
-327
-230
-175
-337
-492
-217
-140
-285
-149
-275
-417
-296
-194
-220
-221
-90
-176
-368
-310
-201
-205
-53
-89
-430
-420
-320
-414
-390
-264
-91
-190
-404
-375
-398
-250
-200
-150
75
-128
-158
-136
-188
-4
-70
-186
103
305
275
314
242
40
-130
121
96
-208
-13
85
-128
-206
-157
-324
-347
-224
-279
-339
-402
-420
-401
-374
-264
70
871
2445
4323
5783
6133
4273
1809
954
821
323
-82
-81
-141
-293
-639
-726
-713
-719
-429
-579
-519
-564
-866
-673
-536
-588
-630
-720
-472
-509
-717
-447
-648
-776
-544
-493
-512
-356
-250
-515
-605
-379
-224
-128
-94
-247
-336
4
207
28
190
555
656
507
503
649
732
777
655
418
394
571
352
144
139
-32
-243
-155
55
-171
-387
-325
-256
-386
-421
-285
-376
-364
-307
-399
-378
-377
-358
-375
-386
-185
-273
-529
-197
-158
-346
-211
-427
-536
-317
-241
-275
-168
-86
-367
-444
-114
-263
-458
-33
-75
-380
-58
-87
-441
-331
-206
-306
-348
-217
-126
-275
-379
-208
-154
-281
-253
-316
-290
-46
-135
-380
-280
-152
-396
-334
-105
-469
-414
79
-1
-303
-191
127
47
74
203
20
-19
25
146
107
145
430
251
8
96
181
-63
-77
20
-242
-101
-139
-621
-511
-116
-244
-459
-209
-120
-371
-578
-323
271
1150
3076
5198
6438
6151
3891
1660
972
755
301
-114
-293
-298
-572
-785
-570
-534
-596
-655
-669
-567
-686
-684
-699
-717
-524
-688
-709
-555
-588
-484
-376
-639
-716
-389
-526
-493
-318
-536
-541
-589
-283
10
-399
-369
-130
-138
61
314
235
290
700
644
338
535
819
635
600
895
649
308
404
448
252
84
166
-28
-168
-64
-261
-327
-157
-223
-432
-333
-282
-482
-274
-74
-336
-404
-164
-235
-423
-362
-357
-426
-205
-103
-383
-497
-456
-397
-193
-39
-110
-352
-286
27
-320
-303
14
-468
-559
-59
-6
-383
-262
-74
-394
-266
-55
-283
-348
-267
-317
-157
54
-86
-375
-389
-188
-246
-413
-266
-62
-128
-178
-189
-237
-308
-328
-295
-275
-68
102
-69
-413
-53
228
12
199
121
83
370
418
237
113
124
28
-14
156
202
53
21
86
-144
-377
-246
-283
-349
-377
-514
-413
-247
-328
-426
-70
694
1814
3598
5703
6716
5476
2909
1323
908
489
313
104
-447
-446
-335
-545
-584
-504
-643
-737
-500
-502
-677
-513
-419
-720
-495
-345
-806
-646
-408
-579
-622
-417
-473
-723
-423
-264
-448
-264
-121
-353
-316
-195
-250
-67
35
30
-39
142
501
369
512
698
616
766
876
861
736
567
809
844
153
156
367
131
229
177
-146
-237
-187
-190
-420
-439
-189
-437
-429
-101
-78
-294
-408
-401
-327
56
-153
-476
-305
-417
-414
-238
-198
-124
-360
-172
51
-522
-435
-26
-252
-263
-66
-339
-401
-140
-96
-167
-146
-79
-86
-87
-165
-351
-413
-171
-149
-185
95
-199
-487
-296
-227
-267
-353
-228
-120
-179
-337
-275
-279
-408
-167
143
258
-216
-337
-14
56
168
52
64
299
283
114
261
354
115
94
20
-136
-72
93
-90
-459
-164
79
-326
-421
-311
-435
-374
-234
-430
-576
-156
573
1562
2985
4818
6165
5580
3337
1450
740
424
107
-137
-79
-211
-706
-541
-365
-725
-616
-289
-470
-757
-646
-524
-673
-723
-520
-452
-635
-472
-376
-642
-526
-424
-579
-470
-349
-496
-460
-372
-360
-381
-415
-256
-175
-33
104
-95
18
235
268
465
546
592
546
604
849
882
752
624
608
484
376
292
68
112
82
-142
-127
-47
-189
-345
-202
-212
-295
-235
-139
-225
-379
-265
-400
-538
-243
-159
-345
-351
-249
-252
-328
-214
-117
-274
-306
-173
-276
-391
-8
-49
-584
-210
46
-232
-255
-215
-250
-134
110
-285
-600
-247
-181
-160
23
-146
-368
-263
-107
-210
-293
-142
-110
-356
-298
-56
-248
-364
-135
-148
-318
-159
-88
-374
-376
-51
-34
-199
47
177
142
185
35
-1
221
436
129
15
202
99
130
199
41
-167
-33
86
-121
-270
-342
-347
-435
-336
-198
-344
-119
-363
-828
-193
754
1700
3407
5666
6588
5310
3121
1541
874
411
159
-55
-288
-234
-372
-617
-670
-564
-507
-723
-554
-511
-832
-466
-334
-856
-685
-349
-720
-731
-449
-643
-744
-472
-227
-465
-657
-532
-527
-337
-248
-378
-446
-481
-311
-145
7
187
178
201
260
245
483
757
645
567
696
733
668
618
660
493
246
479
384
-42
-11
37
-147
-398
-239
-165
-392
-152
-189
-520
-378
-183
-239
-312
-231
-198
-481
-418
-166
-419
-195
-102
-527
-437
-167
-226
-395
-202
-124
-388
-309
-34
-66
-305
-269
-314
-461
-137
-58
-293
-206
-83
-194
-268
-103
-152
-311
-112
-257
-290
-137
-339
-292
-108
-129
-303
-446
-239
24
-221
-328
-139
-317
-239
138
-323
-709
-294
-34
-248
-133
248
181
78
89
8
45
289
340
51
6
320
418
136
56
8
-199
151
90
-198
-199
-338
-365
-499
-251
-273
-527
-229
-171
-456
-405
175
932
2449
4718
6371
6263
4375
2164
1157
961
386
-152
-145
-169
-460
-543
-425
-508
-712
-689
-591
-679
-679
-627
-496
-472
-510
-499
-689
-755
-521
-540
-716
-405
-423
-811
-540
-151
-600
-611
-217
-455
-351
-24
-22
-165
-164
24
-30
-32
325
519
588
722
671
513
645
722
648
724
641
424
453
467
248
106
130
85
-135
-128
-9
-381
-545
-59
-166
-533
-279
-301
-364
-197
-336
-421
-252
-121
-331
-473
-315
-216
-361
-262
28
-406
-631
-279
-143
-235
-397
-229
-235
-373
-52
-217
-505
76
177
-365
-354
-37
-189
-379
-219
-249
-283
-169
-248
-366
-119
-86
-236
-92
-89
-207
-402
-302
-157
-356
-177
-120
-304
-220
-193
-256
-140
-78
-258
-211
-133
-263
-355
-289
-29
-125
-70
402
211
-123
257
380
107
296
301
49
109
245
227
32
35
217
-6
-294
-118
-234
-522
-151
-117
-468
-361
-293
-386
-361
-168
16
590
2111
3760
5234
6237
5157
2633
1221
884
339
-163
-141
-132
-311
-272
-350
-821
-975
-619
-578
-668
-328
-346
-736
-446
-335
-794
-695
-444
-530
-388
-375
-670
-703
-480
-364
-532
-384
-189
-449
-362
-97
-245
-458
-261
-158
26
410
153
55
354
487
615
631
599
820
975
818
820
621
364
506
489
424
223
130
163
-145
-106
-110
-296
-156
-107
-93
-294
-538
-465
-343
-133
-94
-134
-146
-374
-484
-387
-313
-241
-244
-359
-372
-370
-315
-177
-242
-197
-22
-189
-247
-60
-237
-405
-28
2
-475
-339
-95
-278
-185
-179
-262
-124
-31
8
-323
-238
21
-484
-457
-134
-389
-423
-94
-70
-438
-291
226
-255
-600
-173
-243
-179
12
-156
-300
-8
230
114
164
-15
69
246
93
227
220
217
226
115
137
161
6
-237
-182
-180
-289
-295
5
-89
-775
-562
-225
-466
-416
-213
-145
224
1449
2908
4622
6366
5807
3504
1914
1194
605
272
227
-93
-453
-489
-475
-661
-657
-555
-704
-625
-581
-722
-566
-388
-461
-731
-707
-512
-638
-670
-455
-604
-696
-283
-337
-557
-359
-452
-675
-437
-134
-256
-479
-167
141
-26
-38
83
36
198
404
390
482
685
685
609
817
933
677
471
450
262
301
560
231
-178
-156
-150
-242
-329
-287
-87
-223
-502
-483
-511
-295
-127
-372
-269
-171
-456
-569
-365
-315
-296
-237
-410
-471
-369
-223
-252
-252
-233
-445
-427
-242
-287
-249
-83
-247
-347
-243
-84
24
-445
-526
-215
-263
-345
-341
-126
-52
-88
-222
-515
-357
-80
-344
-402
-158
-278
-314
-170
-308
-495
-338
-202
-279
-209
-98
-303
-451
-142
-39
-348
-236
79
167
180
61
42
71
257
379
-39
33
351
102
44
124
-39
-145
-8
-156
-409
-247
-204
-313
-283
-167
-335
-508
-330
-489
-637
-274
332
1354
3356
5430
6550
6074
3672
1772
1095
615
264
76
-17
-466
-809
-705
-451
-616
-873
-659
-518
-613
-577
-503
-770
-775
-481
-616
-718
-381
-503
-950
-628
-391
-610
-571
-493
-561
-650
-543
-372
-294
-223
-161
-249
-395
-139
102
-136
-15
425
317
407
789
504
419
905
1031
743
709
820
465
323
466
105
-86
128
-25
-198
-139
-248
-344
-365
-276
-211
-419
-292
-210
-615
-415
-47
-412
-357
-113
-533
-373
-128
-529
-549
-197
24
-430
-614
-180
-261
-332
-192
-158
-182
-318
-241
-276
-519
-263
-241
-267
36
-245
-357
-152
-303
-456
-299
35
-19
-384
-331
-124
-279
-303
57
119
-263
-330
-408
-371
-11
-196
-511
-353
-241
-439
-361
-111
-230
-178
100
44
-106
81
326
-105
-136
302
69
1
167
173
150
137
146
146
88
45
-25
-198
-254
-359
-722
-663
-418
-408
-193
-190
-373
-411
-274
441
1325
2432
4703
6410
5906
3823
1647
763
757
425
-263
-160
-36
-673
-864
-676
-654
-671
-503
-464
-639
-499
-535
-825
-671
-496
-597
-654
-486
-506
-659
-349
-413
-690
-522
-618
-684
-484
-429
-322
-258
-269
-312
-285
-190
63
185
28
137
214
357
611
626
676
530
521
863
731
700
854
632
605
358
33
-57
-41
42
-140
-196
-282
-351
-195
-108
-256
-439
-414
-419
-460
-328
-315
-411
-285
-356
-428
-152
-152
-440
-435
-295
-348
-273
-228
-374
-400
-442
-266
-245
-411
-216
-272
-428
-101
14
-355
-318
-164
-286
-270
-186
-276
-220
-1
-231
-496
-372
-235
-293
-267
-93
-257
-224
-27
-333
-557
-442
-258
-324
-380
-251
-229
-291
-211
91
-112
-326
-248
-287
-4
11
-113
-85
15
187
195
460
497
-26
-162
238
196
-35
131
157
-19
-61
-95
-333
-490
-296
-271
-352
-151
-271
-492
-505
-480
-297
-167
393
1496
2931
5122
6533
5595
3511
1887
1114
686
255
-60
-183
-272
-572
-675
-615
-508
-481
-559
-416
-774
-1128
-713
-405
-518
-566
-393
-521
-651
-456
-653
-885
-591
-433
-600
-522
-453
-564
-564
-400
-279
-504
-273
79
-177
-233
-76
6
267
462
157
-6
541
871
587
645
835
844
833
781
665
227
80
110
-97
-77
98
-164
-352
-112
-266
-470
-179
-229
-619
-416
-144
-234
-402
-399
-407
-488
-117
-38
-493
-445
-280
-449
-425
-178
-307
-644
-272
48
-390
-479
-267
-342
-156
-43
-333
-455
-476
-169
-115
-328
-115
-209
-331
-200
-134
-159
-218
-257
-453
-481
-227
-201
-292
-142
-124
-354
-174
-33
-375
-406
-262
-380
-385
-189
-173
-421
-345
-134
-328
-351
-161
-176
-23
144
-56
-55
275
76
-315
-21
298
183
146
222
180
184
218
329
-12
-336
-86
-80
-234
-332
-479
-473
-276
-406
-389
-223
-387
-338
-340
-216
317
1415
3156
5184
6562
5806
3551
1893
1272
745
287
99
-75
-214
-378
-667
-787
-742
-670
-622
-688
-716
-745
-595
-484
-595
-489
-579
-780
-462
-453
-682
-595
-720
-799
-503
-335
-526
-597
-433
-373
-401
-270
-155
-311
-247
39
-4
-126
102
331
246
417
658
588
749
926
763
619
784
821
376
535
524
-127
11
178
-99
-190
-141
-267
-339
-270
-246
-478
-556
-267
-317
-360
-133
-408
-577
-112
-104
-460
-352
-242
-463
-434
-248
-342
-465
-405
-422
-417
-265
-248
-250
-310
-384
-298
-184
-92
-303
-387
-159
-162
-359
-374
-121
-21
-198
-450
-418
-310
-338
-240
-173
-301
-190
59
-355
-532
-229
-374
-398
-126
-259
-510
-345
-209
-198
-132
-148
-183
-72
246
145
-213
-59
146
106
347
322
-115
-31
179
107
106
319
54
-248
76
23
-264
-204
-163
-473
-584
-336
-299
-409
-433
-346
-470
-358
415
1307
2869
4966
6089
5811
3694
1297
645
463
245
41
-153
-104
-489
-835
-635
-480
-636
-658
-617
-826
-767
-485
-462
-674
-749
-474
-419
-558
-464
-572
-725
-531
-409
-611
-484
-66
-317
-491
-577
-786
-514
-221
-45
-157
-258
14
99
149
420
384
451
749
649
651
776
694
558
447
588
642
438
455
360
-93
-100
51
-195
-208
-105
-309
-365
-330
-414
-372
-219
-352
-601
-454
-207
-296
-283
-168
-297
-394
-273
-271
-639
-527
-59
-136
-447
-355
-73
-324
-451
-148
-260
-358
19
-174
-517
-253
-286
-264
-107
-215
-237
-30
-16
-404
-462
-144
-100
-195
-185
-235
-320
-387
-396
-289
-181
-166
-272
-334
-320
-210
-113
-388
-338
-249
-267
8
-40
69
158
-35
8
143
384
114
-168
199
182
68
84
115
92
-108
-52
3
-312
-455
-276
-410
-413
-273
-322
-305
-426
-415
-317
-139
374
1238
3178
5277
6144
5577
3278
1256
842
744
436
-47
-520
-502
-567
-699
-535
-489
-530
-603
-663
-833
-736
-476
-589
-584
-336
-625
-1014
-607
-420
-717
-677
-534
-480
-430
-433
-348
-528
-592
-409
-731
-439
32
-319
-301
88
21
-183
88
406
398
458
710
728
678
699
625
537
569
574
410
447
372
60
-37
111
151
-195
-423
-451
-503
-232
-44
-252
-483
-252
-225
-476
-420
-385
-375
-347
-254
-348
-411
-237
-370
-520
-167
-184
-536
-365
-243
-425
-340
-114
-206
-179
-279
-495
-285
-190
-143
-312
-300
-114
-389
-312
-30
-162
-286
-204
-307
-420
-257
-107
-344
-411
33
-132
-610
-285
-91
-415
-330
-81
-249
-424
-157
-78
-367
-448
-286
-151
-175
211
340
-54
60
120
-80
136
349
156
142
166
-6
-39
76
85
64
58
-124
-352
-446
-300
-333
-547
-273
-212
-623
-412
-246
-448
-118
693
1898
3560
5554
6437
5080
2921
1647
1089
553
263
40
-520
-573
-346
-703
-734
-586
-677
-532
-617
-923
-772
-456
-617
-796
-564
-385
-553
-727
-659
-559
-603
-594
-512
-642
-615
-510
-585
-436
-420
-473
-367
-374
-129
88
-256
-173
146
52
211
399
527
731
636
539
813
764
594
795
678
269
153
262
273
108
43
-97
-354
-335
-278
-183
-300
-456
-371
-227
-156
-432
-579
-394
-269
-269
-431
-422
-299
-494
-402
-170
-385
-429
-78
-250
-614
-347
-190
-354
-324
-304
-409
-390
-177
-245
-307
-65
-240
-316
-116
-329
-482
-191
-60
-337
-299
-109
-333
-451
-321
-144
-229
-458
-221
-164
-222
-87
-205
-470
-357
-57
-377
-573
-208
-59
-59
-4
34
161
165
124
167
152
179
219
157
47
53
-11
47
172
-70
-216
-133
-243
-370
-224
-331
-497
-375
-307
-483
-563
-303
-277
-281
535
1891
3539
5671
6812
5595
3080
1564
986
301
-15
-136
-332
-311
-298
-672
-746
-444
-819
-1019
-617
-553
-626
-581
-443
-587
-807
-540
-569
-622
-509
-710
-641
-549
-595
-453
-575
-628
-284
-440
-593
-432
-430
-247
-95
-132
3
130
122
224
393
425
360
698
973
583
521
755
694
628
651
548
373
328
260
47
-143
-72
-196
-396
-227
-207
-386
-269
-87
-356
-444
-278
-159
-174
-416
-341
-324
-286
-223
-496
-431
-147
-411
-563
-157
-140
-214
-75
-346
-503
-372
-324
-269
-221
-182
-170
-270
-90
125
-304
-547
-335
-406
-425
-86
-3
-41
-251
-449
-174
-117
-95
-185
-352
-122
-159
-436
-269
-205
-572
-317
133
-156
-352
-10
-17
-229
124
194
-53
64
68
109
233
185
262
130
79
250
-19
-54
174
-13
-206
-187
-232
-509
-449
-49
-363
-530
-161
-352
-442
-190
-180
182
1431
3093
4699
5939
5644
3324
1406
1189
623
-282
-332
-244
-240
-230
-434
-563
-652
-633
-536
-692
-657
-499
-517
-617
-505
-424
-684
-493
-449
-486
-357
-602
-543
-625
-650
-464
-363
-362
-461
-355
-226
-252
-453
-161
126
-105
-113
167
333
228
403
758
660
605
752
639
629
733
612
583
765
533
151
185
81
-67
-23
5
-164
-394
-382
-246
-292
-207
-45
-383
-502
-72
-103
-503
-377
-291
-479
-423
-217
-218
-391
-259
-98
-231
-328
-206
-270
-418
-194
-254
-518
-254
-78
-213
-162
-78
-163
-271
-323
-206
-165
-136
-216
-479
-329
-234
-335
-122
34
-161
-449
-326
-168
-323
-150
98
-256
-404
-346
-474
-299
-136
-138
-207
-141
-68
-71
-12
169
180
-24
211
418
-12
-12
187
-30
101
262
248
92
-121
-80
-160
-309
-107
-193
-453
-264
-391
-571
-208
-137
-327
-266
-239
-12
964
2504
4305
6023
6315
4219
1876
1266
919
205
0
-36
-187
-521
-656
-514
-716
-446
-309
-817
-630
-336
-640
-732
-413
-440
-758
-657
-558
-558
-420
-488
-663
-769
-517
-512
-660
-521
-482
-366
-305
-343
-271
-256
-93
14
-177
-84
199
363
368
385
417
415
594
699
692
627
633
749
564
453
369
57
81
152
-158
-299
-157
-163
-393
-401
-308
-321
-147
-349
-456
-24
-203
-606
-460
-212
-297
-514
-365
-275
-305
-133
-122
-407
-496
-437
-344
-190
-224
-330
-478
-428
-157
-5
52
-178
-353
-387
-225
-236
-399
-171
-224
-256
-236
-309
-249
-266
-177
-111
-385
-451
-274
-424
-347
-12
-126
-524
-495
-189
-192
-139
-35
-376
-545
-239
-379
-401
-19
-207
-314
-71
-76
-111
-30
119
110
249
407
213
255
126
4
74
97
229
188
54
39
17
-263
-248
-105
-439
-477
-269
-290
-381
-350
-370
-623
-472
23
848
2469
4422
6033
6470
4996
2530
1074
771
377
-51
-118
-210
-419
-453
-496
-475
-612
-680
-708
-765
-449
-605
-770
-615
-541
-442
-595
-559
-491
-859
-721
-431
-671
-638
-495
-541
-549
-337
-42
-335
-465
-261
-374
-266
-86
58
26
11
331
276
372
908
834
469
568
824
860
676
791
743
260
342
444
76
-50
24
27
-50
-331
-437
-249
-119
-190
-366
-322
-194
-324
-386
-253
-367
-348
-216
-336
-356
-212
-315
-431
-208
-239
-363
-143
-201
-393
-300
-188
-176
-309
-191
-73
-272
-115
30
-324
-329
-169
-332
-176
-94
-350
-390
-233
83
-137
-408
29
-177
-396
-189
-351
-349
-283
-232
-170
-246
-182
40
-121
-413
-325
-259
-181
-192
-306
-208
-144
-76
-62
-339
-280
-84
-364
-307
-64
-13
-62
-212
-122
183
339
290
324
331
159
194
312
122
31
182
174
-187
-105
169
-255
-446
-46
-137
-452
-288
-331
-489
-337
-310
-367
-145
244
1114
2775
4759
6211
5832
3661
1820
968
520
393
-34
-542
-508
-445
-585
-367
-391
-811
-745
-517
-472
-583
-606
-443
-691
-731
-342
-687
-823
-337
-480
-541
-559
-657
-526
-465
-212
-497
-616
-198
-461
-523
-46
-52
-225
34
151
1
145
387
337
389
665
756
761
685
719
744
608
756
697
354
542
497
29
-143
-137
-188
-124
-10
-305
-503
-375
-300
-322
-289
-232
-342
-411
-290
-185
-213
-320
-285
-408
-550
-333
-244
-243
-341
-474
-406
-287
-296
-262
-131
-141
-270
-402
-232
-186
-358
-236
-168
-296
-243
-155
-234
-272
-268
-269
-92
31
-378
-543
-204
-61
-93
-232
-231
-145
-426
-548
-235
-229
-409
-300
-239
-79
317
99
-131
64
97
182
181
167
52
16
378
88
-173
203
-39
-315
13
222
-181
-510
-338
-309
-452
-318
-147
-344
-475
-435
-538
-369
331
1291
2687
4721
6292
5718
3481
1617
785
398
205
-30
-268
-343
-505
-592
-441
-415
-654
-614
-526
-507
-601
-888
-637
-520
-605
-443
-633
-631
-486
-705
-629
-414
-597
-531
-198
-423
-703
-535
-313
-200
-336
-349
-140
-194
-104
68
-19
84
414
496
326
471
729
669
704
754
614
703
759
458
425
327
148
98
-83
-80
-247
-373
-176
-137
-279
-314
-325
-438
-279
-60
-394
-420
-97
-441
-520
-194
-395
-603
-245
-193
-523
-285
49
-265
-469
-32
-123
-562
-309
-217
-266
-119
-235
-345
-282
-110
-32
-306
-416
-55
-132
-342
-167
-264
-395
-25
106
-336
-219
42
-406
-663
-229
-74
-429
-247
-155
-252
-190
-268
-294
-219
-101
-448
-640
-277
-187
-302
-258
-305
-279
-26
-150
-353
-323
-97
-4
-335
-244
48
-93
-123
219
265
131
247
201
81
214
358
56
-10
336
132
-102
59
-6
-393
-378
-139
-329
-533
-397
-276
-529
-358
-183
-563
-280
328
833
2267
4535
6256
6374
4843
2657
1075
621
496
167
-113
-319
-513
-716
-603
-492
-570
-531
-617
-613
-629
-672
-627
-696
-629
-529
-425
-643
-853
-577
-480
-435
-564
-755
-385
-290
-653
-509
-215
-375
-400
-224
-322
-287
-73
-29
-12
148
282
200
382
656
661
675
917
1025
681
604
672
457
475
459
103
63
345
209
-258
-300
-122
-343
-163
94
-368
-348
-171
-408
-539
-367
-181
-219
-76
-323
-644
-356
-110
-188
-115
-11
-404
-673
-545
-235
-304
-618
-298
31
-112
-219
-126
-375
-365
-91
-252
-216
-167
-412
-444
-276
-277
-210
-96
-138
-80
-18
-134
-431
-503
-249
-248
-201
-178
-258
-138
-318
-348
-152
-274
-57
-61
-460
-348
-220
-230
-263
-172
3
-186
-219
-9
-52
-27
154
175
235
329
350
213
134
402
235
-36
132
179
64
-1
-229
-488
-248
-31
-183
-432
-480
-373
-350
-198
-285
-508
-343
220
1135
2756
4848
6208
6178
4189
1971
1097
629
261
58
9
-213
-383
-524
-544
-641
-852
-631
-518
-530
-629
-629
-466
-521
-532
-552
-722
-600
-453
-634
-591
-438
-584
-479
-284
-503
-556
-299
-332
-415
-171
-226
-402
-157
1
75
74
128
368
430
656
717
575
720
865
794
559
744
1020
667
338
265
52
-29
285
109
-234
-68
-216
-437
-211
-120
-355
-195
-81
-495
-375
-263
-633
-509
-306
-169
-171
-198
-296
-550
-467
-413
-282
-351
-241
-50
-272
-334
-355
-253
-174
-262
-246
-238
-282
-246
-285
-231
-77
-313
-574
-255
82
-285
-377
25
-265
-305
-7
-408
-464
22
-299
-590
-291
-168
-210
-221
-141
-58
-2
41
149
-36
-121
122
93
43
208
158
89
190
196
-39
-161
109
23
-209
-65
-119
-309
-284
-375
-613
-547
-337
-392
-427
-228
-121
62
998
2740
4501
5823
6022
4047
1514
714
585
43
-43
-3
-286
-472
-539
-651
-604
-430
-611
-765
-755
-658
-576
-601
-572
-590
-487
-368
-623
-813
-522
-348
-617
-704
-418
-505
-600
-390
-485
-478
-205
-224
-428
-337
22
107
11
109
88
131
433
678
675
512
599
580
527
795
850
727
745
439
84
71
44
-14
-48
2
-129
-355
-488
-502
-366
-171
-66
-250
-343
-344
-379
-475
-452
-199
-196
-451
-470
-297
-305
-237
-264
-516
-183
-52
-446
-445
-256
-214
-313
-183
-197
-272
-229
-303
-189
-105
-96
-207
-443
-359
-338
-210
-56
-270
-284
-250
-107
-250
-377
-150
-243
-346
-272
-339
-293
-24
-224
-449
-315
-129
-55
-380
-407
-113
-249
-312
-224
-277
-255
-279
-256
-279
-270
-155
-314
-177
-30
-86
-42
113
112
-41
135
176
210
414
314
-63
75
367
124
-74
70
80
-246
-276
-85
-285
-438
-151
-211
-451
-321
-262
-401
-589
-493
-218
540
2050
3806
5665
6642
5307
2827
1648
1237
369
-192
-167
-198
-337
-443
-467
-539
-709
-667
-558
-557
-654
-634
-662
-622
-571
-713
-465
-356
-633
-489
-612
-905
-618
-513
-579
-632
-526
-188
-416
-638
-362
-411
-467
-129
48
-116
131
416
124
100
549
595
447
884
903
466
620
750
574
543
653
586
285
113
105
-74
-149
23
-248
-578
-271
-169
-338
-275
-279
-312
-178
-92
-462
-418
-69
-374
-459
-139
-142
-503
-374
-176
-305
-278
-237
-125
-209
-262
-185
-341
-379
-163
-170
-287
-135
-139
-453
-266
-13
-86
-142
-200
-309
-300
-140
-229
-112
-154
-402
-339
-161
59
-121
-271
-66
-122
-367
-185
-61
-310
-236
-106
-245
-467
-420
-199
-224
-305
-61
-136
-425
-205
-195
-249
-255
-341
-273
-132
-69
-241
-138
253
241
-83
201
387
-38
143
359
59
105
366
113
-109
122
3
-266
-185
-3
-142
-483
-498
-467
-492
-254
-227
-301
-292
-585
-488
271
1287
2970
5236
6728
6193
3826
1781
1105
671
213
11
-195
-398
-441
-610
-760
-443
-426
-722
-748
-686
-692
-779
-592
-525
-782
-670
-667
-904
-592
-304
-654
-684
-388
-555
-761
-478
-377
-559
-403
-352
-438
-427
-275
-200
-239
-64
23
30
265
531
508
556
739
689
599
677
744
769
745
549
301
272
352
94
-233
-135
99
-94
-226
-259
-563
-414
-81
-304
-552
-395
-251
-311
-231
-209
-233
-211
-426
-537
-475
-318
-225
-354
-345
-228
-312
-308
-193
-319
-428
-292
-147
-256
-265
-212
-352
-232
13
-224
-365
-138
-195
-310
-134
3
-218
-334
-152
-285
-340
-147
-376
-354
-137
-144
-5
-287
-461
-254
-348
-297
-228
-236
-220
-237
-323
-295
-124
-260
-362
-210
-120
-308
-177
412
148
-235
6
-119
-56
288
353
285
191
263
216
146
330
192
-139
55
229
-172
-343
-289
-473
-465
-184
-278
-363
-182
-324
-376
-328
-153
351
1215
2815
4689
6069
5997
3797
1484
854
610
107
-13
23
-209
-550
-471
-417
-664
-642
-561
-733
-763
-551
-590
-631
-485
-491
-634
-497
-257
-454
-572
-549
-614
-596
-484
-428
-568
-501
-245
-309
-419
-224
-138
-234
-153
-5
-87
-64
201
133
284
701
631
548
814
893
468
473
818
703
497
349
364
270
43
-24
-157
-234
-172
-282
-394
-272
-210
-291
-453
-504
-495
-466
-235
-272
-424
-173
-315
-573
-308
-387
-498
-238
-220
-397
-465
-315
-332
-393
-230
-396
-421
-246
5
13
-659
-546
-75
-324
-314
-7
-206
-362
-114
-296
-481
-163
-192
-130
62
-461
-608
-178
-204
-469
-381
-139
-127
-170
-81
-212
-539
-443
18
-100
-431
-68
17
-11
290
292
13
60
281
76
92
396
194
-26
167
222
23
-19
100
-19
-225
-154
-232
-355
-130
-215
-454
-427
-384
-305
-392
-389
12
659
2050
3985
5709
6332
4791
2291
1165
840
432
114
-182
-315
-415
-414
-486
-569
-694
-720
-746
-761
-452
-431
-529
-478
-600
-812
-651
-353
-528
-565
-272
-533
-840
-525
-283
-539
-617
-370
-371
-601
-430
-109
-247
-253
41
21
86
293
67
156
515
497
448
727
928
750
563
689
668
428
606
378
109
341
156
-160
-188
-101
-245
-435
-108
-37
-436
-608
-493
-362
-333
-104
-234
-462
-272
-331
-399
-257
-301
-372
-388
-347
-439
-597
-242
-34
-352
-382
-244
-360
-361
-151
-76
-237
-226
-227
-406
-372
-240
-203
-165
-143
-344
-323
-140
-245
-338
-242
-118
-198
-347
-257
-320
-411
-228
-291
-458
-240
-100
-268
-314
-195
-293
-444
-191
-250
-433
-195
-238
-424
-135
177
-23
-19
147
34
0
130
273
282
254
305
115
-71
-56
73
196
120
-16
-328
-428
-263
-190
-406
-413
-273
-434
-400
-162
-393
-627
-142
306
1259
3309
5396
6576
5936
3736
1931
1217
732
135
-101
-51
-389
-762
-329
-160
-831
-959
-717
-766
-713
-446
-394
-633
-715
-603
-717
-637
-456
-781
-866
-425
-355
-654
-385
-488
-755
-483
-510
-496
-292
-77
-240
-563
-309
-94
-84
112
357
384
246
445
627
656
832
821
563
621
712
569
512
522
494
145
120
257
-302
-362
80
-243
-410
-194
-276
-463
-483
-244
-324
-243
-25
-342
-577
-303
-186
-464
-461
-306
-403
-401
-276
-525
-440
-76
-79
-254
-347
-106
-269
-521
-181
-154
-454
-319
-133
-296
-228
-90
-265
-224
62
-141
-422
-158
-137
-419
-253
-132
-387
-381
-208
-153
-364
-377
-88
-182
-107
48
-236
-477
-383
-278
-346
-97
-15
-397
-246
-94
-246
-205
-196
-267
-375
-157
-102
-451
-313
-61
-199
-232
89
214
50
87
-43
-211
231
586
498
378
180
21
-45
144
421
40
-166
159
40
-75
39
-365
-694
-330
-275
-444
-311
-138
-258
-488
-324
-154
459
1953
3767
5395
6272
5403
3076
1418
931
497
60
-78
-249
-354
-662
-712
-451
-629
-731
-713
-753
-440
-458
-906
-717
-322
-567
-637
-419
-608
-709
-501
-453
-725
-560
-285
-714
-757
-303
-348
-410
-199
-45
-182
-331
-116
-38
-33
254
338
391
628
621
596
628
722
898
718
736
896
607
602
493
125
281
344
91
-157
-203
-175
-304
-122
95
-315
-546
-288
-404
-485
-249
-319
-427
-286
-324
-371
-48
-186
-551
-286
-178
-397
-471
-293
-316
-590
-388
-133
-265
-267
-13
-35
-223
-117
-168
-442
-322
-221
-313
-268
-193
-217
-185
-184
-379
-262
-190
-166
-128
-304
-303
-243
-253
-240
-182
-229
-211
-75
-302
-589
-290
-132
-238
-82
81
157
-33
-48
7
-77
222
378
80
200
327
86
123
160
-46
-178
163
49
-475
-400
-320
-443
-280
-64
-445
-562
-328
-399
-536
-359
62
735
2772
4827
5790
5923
4310
2071
1063
763
224
-203
-266
-317
-492
-619
-747
-732
-621
-558
-507
-579
-697
-614
-524
-791
-765
-572
-761
-611
-257
-455
-710
-678
-653
-499
-334
-535
-679
-411
-329
-488
-326
-171
-398
-388
-38
-36
-124
179
479
414
355
562
550
600
797
780
613
616
618
404
542
574
220
-167
-130
-99
-308
-166
-126
-291
-413
-366
-165
-209
-321
-506
-677
-466
-300
-400
-358
-206
-323
-473
-423
-488
-453
-148
-124
-364
-514
-406
-355
-273
-154
-367
-473
-204
6
-333
-315
-163
-575
-385
24
-273
-639
-317
89
-184
-304
-25
-195
-410
-233
-308
-326
-175
-328
-572
-417
-92
-180
-387
-206
-101
-346
-148
-74
-534
-353
-240
-504
-306
-120
-183
-178
-85
32
183
82
117
90
-83
309
156
-310
211
385
-13
167
342
-53
-211
28
-203
-594
-311
-63
-546
-646
-272
-380
-383
-249
-547
-558
263
1375
2743
4726
6503
6311
4069
2187
1578
566
-60
8
-380
-426
-268
-363
-575
-716
-715
-748
-731
-702
-691
-425
-407
-764
-727
-624
-728
-717
-436
-319
-656
-592
-401
-821
-919
-462
-422
-635
-282
-101
-501
-379
-75
-255
-237
50
66
195
635
412
112
568
716
685
839
851
885
747
668
667
388
422
320
6
-108
-52
-73
-252
-177
-279
-304
24
-125
-542
-380
-314
-422
-347
-421
-336
-293
-282
-198
-366
-451
-303
-296
-386
-215
-251
-487
-247
-108
-296
-346
-319
-48
-148
-373
-103
-291
-403
-165
-303
-306
-112
-169
-258
-223
-188
-227
-70
-154
-392
-300
-253
-159
-155
-46
-173
-594
-369
-35
-230
-415
-272
-80
-273
-260
-24
-279
-326
-78
-214
-230
103
-85
-335
27
310
184
186
207
133
79
123
415
231
-8
135
-70
-66
150
70
-120
-250
-232
-368
-487
-359
-404
-235
-71
-408
-490
-216
104
675
2199
4402
5974
6143
4865
2669
970
596
381
-143
-172
-114
-409
-562
-653
-761
-765
-506
-487
-799
-620
-476
-662
-524
-332
-652
-768
-459
-410
-637
-594
-376
-602
-704
-350
-500
-546
-310
-452
-304
-119
-361
-412
-66
81
-97
-190
89
333
412
838
859
482
652
900
690
611
957
832
446
433
288
173
275
170
-153
-204
-12
-276
-404
-65
-83
-307
-266
-194
-396
-615
-360
-257
-463
-308
-383
-522
-276
-109
-235
-355
-261
-253
-392
-470
-333
-274
-185
-105
-443
-507
-136
-189
-368
-103
-94
-384
-212
-160
-321
-69
-85
-198
-206
-349
-178
-230
-250
-132
-383
-359
-98
-28
-301
-313
-42
-446
-392
-21
-332
-490
-245
-112
-237
-122
-116
-378
-258
46
-83
-287
51
305
-86
-20
196
-158
41
431
175
75
294
214
-122
-74
116
-13
24
19
-329
-380
-223
-253
-340
-393
-411
-411
-379
-383
-457
-435
104
1027
2189
4080
5764
5850
4629
2590
1129
751
356
-25
-112
-157
-449
-643
-615
-571
-556
-755
-761
-482
-597
-614
-621
-824
-644
-627
-787
-478
-275
-623
-636
-491
-491
-499
-561
-469
-497
-473
-154
-221
-364
-295
-262
-330
-294
180
228
33
359
386
282
508
655
767
831
881
701
669
828
582
276
314
411
193
190
194
-244
-103
-93
-502
-461
-393
-351
-392
-328
-198
-341
-195
-82
-344
-257
-304
-470
-396
-331
-250
-439
-638
-319
-115
-243
2
-154
-636
-448
-115
-159
-168
-99
-209
-337
-504
-354
-244
-130
93
-107
-439
-453
-301
-178
-77
-303
-403
-291
-212
-160
-206
-301
-231
-155
-288
-318
-474
-354
81
-185
-418
-154
-257
-402
-208
-226
-432
-143
118
-179
-293
-68
366
440
-47
-13
108
-60
91
146
208
359
153
-79
110
260
45
20
-111
-446
-416
-245
-386
-685
-343
-239
-508
-285
-255
-349
-282
276
1402
3098
5395
6871
5987
3451
1859
1280
556
295
64
-294
-246
-391
-533
-607
-841
-718
-564
-650
-656
-669
-584
-588
-743
-557
-393
-580
-673
-572
-622
-521
-533
-588
-458
-651
-518
-425
-608
-244
-178
-481
-236
-48
-95
-111
-101
66
234
382
484
539
649
702
704
790
892
820
697
735
637
390
398
516
112
-337
-24
-6
-141
68
-359
-623
-310
-160
-231
-316
-332
-478
-368
-126
-265
-420
-230
-250
-593
-319
-10
-308
-531
-296
-131
-359
-285
-241
-458
-213
-55
-273
-321
-318
-298
-170
-54
-108
-315
-203
-40
-217
-396
-247
-78
-167
-307
-341
-249
-193
-190
-199
-188
-128
-320
-362
-129
-202
-283
-154
-170
-281
-67
94
-324
-534
-161
-5
-59
7
47
58
121
270
182
31
394
268
27
267
139
8
67
97
-81
-122
53
-147
-507
-423
-222
-189
-194
-211
-350
-504
-313
-172
-20
907
1974
3311
5518
6647
5212
2661
1239
781
221
-72
17
-268
-551
-250
-328
-670
-555
-700
-786
-447
-435
-671
-588
-397
-566
-734
-428
-317
-777
-650
-171
-473
-647
-404
-526
-521
-218
-272
-388
-286
-354
-474
-266
8
-49
-76
181
228
239
495
570
564
617
802
839
550
840
1101
596
519
729
504
330
94
-63
8
48
54
-214
-416
-387
-287
-107
-101
-312
-506
-244
-35
-384
-501
-217
-324
-478
-83
-150
-420
-224
-117
-368
-532
-276
-203
-345
-158
-85
-476
-336
13
-198
-206
-167
-417
-261
62
-162
-340
-219
-252
-197
-78
-71
-254
-359
-156
-58
-140
-198
-260
-275
-193
-206
-205
-162
-273
-318
-144
-95
-221
-274
-160
-42
-138
-192
143
209
-128
53
489
383
-65
31
201
233
433
187
27
61
35
-79
-130
28
-73
-213
-152
-288
-458
-283
-360
-475
-120
-242
-485
-123
546
1844
3576
5541
6724
5298
2858
1410
665
405
278
-43
-343
-296
-291
-524
-476
-327
-518
-784
-660
-458
-630
-728
-638
-640
-524
-428
-573
-547
-217
-400
-748
-560
-487
-554
-455
-455
-649
-580
-161
-87
-407
-319
37
-118
-308
109
187
89
480
603
521
622
765
804
779
913
778
506
511
327
251
548
355
-26
87
100
-152
-224
-100
-201
-480
-401
-169
-282
-392
-279
-345
-411
-62
133
-510
-599
-101
-122
-120
-306
-513
-389
-187
-225
-233
-15
-310
-479
-62
-82
-451
-345
-63
-175
-283
-37
44
-226
-353
-156
-33
-108
25
42
-335
-382
-39
-141
-521
-220
78
-125
26
-150
-448
-142
-237
-361
-286
-251
-296
-197
67
-190
-377
-256
-287
-224
-184
-195
-152
-314
-261
-140
-56
86
-121
-103
224
134
27
318
236
-7
228
182
-84
144
314
345
264
-47
-55
-85
-180
-122
-272
-590
-481
-94
-250
-309
-130
-428
-604
-264
277
776
2004
4113
5815
6596
5546
2902
1434
1207
611
180
94
-264
-549
-520
-415
-563
-790
-629
-580
-633
-421
-331
-628
-806
-622
-601
-739
-598
-463
-582
-437
-321
-360
-627
-903
-571
-564
-594
-351
-470
-438
-236
-232
-64
109
-147
101
504
307
235
341
477
485
523
829
912
754
882
877
556
500
567
375
2
-22
96
-182
-127
42
-285
-323
-128
-261
-452
-378
-211
-327
-402
-315
-404
-341
-147
-258
-327
-122
-73
-362
-424
-293
-408
-338
-277
-497
-484
-298
-130
-144
-167
71
-96
-417
-281
-202
-260
-20
-84
-423
-97
59
-479
-446
124
-65
-469
-260
-235
-340
-41
50
-324
-485
-239
-102
-243
-263
-156
-268
-227
-33
-186
-276
-158
-256
-365
-54
19
-36
-27
-147
-130
-34
208
173
265
573
199
-39
319
319
14
-39
189
209
223
165
-176
-206
-162
-316
-453
-378
-39
-98
-394
-322
-381
-497
-218
185
1028
2656
4672
6212
6207
4397
2028
942
836
361
-21
-89
-281
-417
-635
-545
-415
-613
-459
-480
-767
-692
-564
-627
-564
-463
-567
-613
-435
-411
-623
-449
-357
-702
-621
-294
-497
-591
-409
-369
-382
-415
-211
-154
-237
-22
146
36
154
540
584
423
604
754
518
899
1156
618
628
842
645
575
687
300
-184
10
59
-336
-195
-85
-414
-195
-157
-515
-308
-57
-177
-307
-306
-192
-254
-399
-284
-426
-497
-278
-377
-373
-174
-167
-199
-276
-302
-251
-444
-381
-239
-261
-119
-211
-490
-412
-64
-54
-285
-249
-101
-189
-99
-280
-649
-319
-111
-66
-65
-25
14
-696
-726
-169
-186
-155
-74
-147
-261
-66
-41
-385
-194
88
-299
-613
-444
-221
-6
37
5
129
172
144
95
123
269
390
266
145
190
50
79
92
-186
-110
77
-26
-259
-367
-319
-445
-77
-108
-630
-120
-124
-586
-408
153
1283
2968
4980
6245
5647
3594
1718
980
712
353
-82
-379
-348
-417
-711
-562
-260
-538
-762
-616
-545
-628
-547
-446
-730
-848
-482
-466
-611
-420
-456
-608
-414
-372
-559
-514
-589
-598
-391
-323
-402
-445
-250
-166
-299
-43
196
41
117
503
648
405
533
771
577
637
968
825
556
588
451
285
396
435
64
-76
43
-155
-369
-227
-30
-382
-283
-20
-674
-667
-139
-342
-448
-275
-262
-290
-385
-188
-283
-537
-236
-248
-427
-323
-329
-499
-333
-95
-374
-502
-158
-151
-322
-18
71
-401
-444
-186
-264
-321
-236
-290
-312
-167
-242
-388
-299
-154
-136
-153
-69
56
-405
-653
-147
-252
-362
-165
-454
-473
-153
-185
-302
-202
-68
-267
-552
-386
-234
-201
-121
-189
-132
-93
-298
-230
122
322
222
-12
98
225
78
151
144
-35
103
172
98
108
72
-43
-58
-73
-358
-502
-394
-386
-422
-350
-291
-322
-303
-511
-445
233
1300
3182
5053
6348
6311
3930
1778
1355
789
119
70
-103
-476
-589
-429
-544
-862
-595
-570
-866
-674
-613
-764
-785
-621
-583
-743
-595
-506
-830
-675
-235
-660
-710
-281
-708
-834
-444
-443
-522
-437
-432
-470
-173
34
-256
-332
75
212
233
483
445
378
520
621
703
784
874
741
518
661
533
217
283
116
-99
-192
-264
-212
-349
-335
-221
-448
-435
-242
-341
-395
-359
-456
-487
-277
-266
-434
-327
-312
-532
-483
-262
-166
-321
-503
-488
-520
-377
-173
-295
-417
-201
-197
-431
-237
-130
-505
-337
8
-331
-227
-4
-424
-559
-178
78
-185
-390
-300
-348
-410
-330
-268
-302
-290
-175
-287
-392
-57
-177
-481
-248
-261
-508
-439
-148
-352
-583
-120
-158
-393
-239
-237
-202
-176
-55
-31
-68
199
11
-153
242
228
-105
69
322
213
113
61
97
156
58
40
-310
-572
-97
-281
-482
-146
-431
-521
-128
-249
-504
-331
-248
-69
1103
2739
4481
6122
6305
4486
2038
1099
831
67
-258
-200
-405
-515
-383
-479
-705
-724
-554
-591
-649
-508
-649
-733
-484
-617
-831
-451
-324
-654
-741
-631
-608
-600
-472
-479
-540
-479
-401
-405
-426
-295
-218
-292
-230
-156
-192
47
318
203
296
803
737
370
639
881
728
784
743
424
606
774
324
129
183
37
-96
-191
-129
-186
-284
-196
-394
-495
-294
-187
-218
-215
-256
-541
-570
-410
-426
-412
-331
-352
-483
-326
-169
-410
-428
-193
-238
-397
-264
-232
-452
-314
-107
-274
-368
-147
-299
-481
-226
-246
-301
-75
-39
-123
-177
-203
-187
-406
-404
-272
-441
-266
-115
-400
-322
-142
-333
-337
-54
-118
-466
-507
-246
-179
-211
-131
-201
-271
-72
188
68
16
138
68
112
368
129
-81
247
62
-15
5
-130
36
-69
-143
-204
-381
-334
-388
-455
-281
-326
-592
-429
-157
-124
201
967
2212
4140
5898
5982
3956
1732
1035
709
274
255
-45
-667
-811
-555
-503
-626
-607
-624
-614
-486
-572
-618
-504
-526
-611
-513
-430
-645
-740
-641
-593
-714
-684
-489
-448
-372
-382
-612
-691
-424
-245
-184
-158
-29
48
-357
-275
90
199
512
550
402
591
846
691
688
964
495
271
577
327
89
160
126
-57
-2
-11
-257
-233
-213
-331
-439
-490
-410
-437
-36
-89
-750
-538
-266
-448
-518
-424
-244
-215
-500
-395
-227
-278
-315
-474
-456
-358
-253
-276
-308
-196
-230
-456
-413
-131
-215
-264
-50
-12
-352
-595
-412
-212
-20
-111
-435
-315
-238
-385
-292
-172
-170
-159
-193
-440
-452
-66
-52
-259
-399
-382
-306
-381
-241
-109
-208
-178
15
16
5
70
-46
28
273
180
-35
81
320
141
-1
98
27
102
125
-130
-214
-136
-90
-330
-513
-457
-545
-498
-331
-263
-346
-440
-296
252
1301
2800
4704
6221
6070
4016
1790
1222
986
-59
-53
251
-419
-664
-554
-430
-605
-769
-595
-788
-891
-554
-481
-772
-563
-446
-759
-661
-520
-621
-572
-479
-584
-623
-712
-754
-531
-448
-427
-434
-436
-309
-309
-480
-378
-142
-10
86
194
321
390
568
593
574
774
803
683
618
573
568
524
372
206
156
178
155
67
-178
-239
-402
-406
-268
-444
-470
-393
-341
-519
-434
-132
-240
-355
-350
-430
-203
-72
-504
-609
-361
-301
-369
-381
-353
-359
-180
-89
-316
-479
-387
-131
-172
-332
-230
-278
-356
-124
-195
-561
-404
-204
-271
-37
68
-319
-487
-334
-290
-257
-183
-172
-412
-450
-210
-154
-91
-137
-389
-598
-304
-7
-278
-430
-160
-29
-233
-104
13
-77
121
145
118
44
195
366
-32
51
287
-197
-45
512
123
-121
-79
-235
-185
-171
-150
-226
-497
-301
-320
-510
-417
-542
-422
-82
539
1743
3615
5707
6652
5625
3312
1480
734
648
162
-461
-181
-299
-797
-659
-446
-557
-621
-417
-432
-739
-712
-402
-613
-860
-570
-630
-618
-455
-641
-680
-567
-459
-713
-681
-330
-470
-533
-409
-425
-563
-271
-10
-304
-221
-35
17
182
335
359
266
534
683
662
862
812
674
676
862
832
430
246
241
164
133
78
-36
-91
-93
-206
-365
-301
-336
-377
-410
-305
-67
-364
-527
-275
-195
-168
-230
-350
-293
-168
-417
-521
-213
-366
-441
-152
-146
-343
-313
-85
-192
-196
-111
-378
-465
-311
-18
201
-8
-199
-183
-66
45
-262
-642
-396
-137
-298
-264
-184
-235
-240
-235
-237
-225
-162
-104
-363
-335
90
-152
-523
-322
-228
-360
-247
-149
-264
-158
64
94
-145
-106
235
42
43
197
160
233
255
214
139
82
32
-108
64
375
-72
-307
-71
-300
-381
-156
-334
-475
-403
-433
-458
-311
-141
-179
646
2120
3592
5526
6317
5040
2787
1066
718
311
-105
-32
-15
47
-385
-649
-770
-919
-604
-621
-671
-592
-466
-183
-312
-571
-772
-814
-463
-618
-758
-399
-208
-270
-512
-338
-458
-799
-548
-495
-413
-74
-97
-210
64
107
-172
-67
271
240
305
641
581
509
749
771
643
792
793
546
675
709
261
359
385
-117
-122
-70
48
-141
-458
-160
-219
-574
-448
-269
-280
-291
-241
-147
-298
-235
-96
-323
-468
-340
-292
-320
-270
-300
-265
-219
-323
-437
-129
59
-295
-321
-119
-128
-142
-245
-280
-144
-144
-198
-333
-391
-77
20
-196
-187
-219
-241
-178
-139
-175
-247
97
-40
-570
-365
-174
-329
-248
-136
-266
-301
-222
19
-205
-461
-53
-208
-191
130
-54
-11
186
43
-58
120
223
244
280
117
129
360
227
81
26
105
89
-184
12
26
-504
-604
-291
-390
-496
-126
-83
-305
-250
-158
-13
981
2524
4137
5992
6582
4694
2220
1363
1146
376
-34
-40
-317
-554
-332
-140
-485
-828
-749
-717
-711
-540
-672
-673
-488
-284
-333
-596
-545
-896
-812
-422
-560
-566
-451
-392
-490
-528
-310
-289
-421
-307
-560
-610
-31
61
-54
131
184
169
321
442
532
586
819
793
497
719
869
670
622
890
565
42
130
-70
-175
-104
-194
-301
-242
-56
-183
-398
-437
-369
-376
-331
-289
-376
-221
-262
-436
-317
-222
-308
-381
-241
-320
-464
-343
-227
-250
-413
-388
-131
-154
-286
-250
-242
-219
-206
-343
-384
-124
-17
-280
-311
-178
-221
-142
36
-400
-633
-102
-118
-348
-259
-142
-190
-234
-151
-175
-279
-323
-23
-243
-563
-147
-142
-241
-32
-187
-283
34
197
-8
37
242
42
81
503
412
-18
66
177
25
-36
19
1
4
136
-136
-464
-394
-195
-387
-468
-203
-367
-415
-119
-250
-372
128
1367
3331
5167
6394
5914
3658
1658
875
447
283
214
-185
-330
-427
-472
-725
-807
-521
-582
-445
-306
-731
-821
-547
-709
-839
-600
-600
-529
-300
-495
-702
-558
-359
-508
-627
-296
-459
-831
-454
-246
-451
-295
15
-135
-147
54
-17
99
406
503
376
662
933
627
638
945
840
611
717
596
289
324
234
-18
-40
-43
-63
-112
-392
-319
-255
-418
-208
-398
-497
-140
-278
-496
-392
-239
-460
-425
-77
-340
-255
-90
-729
-724
-170
-235
-437
-327
-215
-364
-356
-40
-95
-229
-153
-390
-341
-81
-232
-359
-315
-129
-7
-238
-263
-142
-241
-157
-196
-324
-327
-323
-386
-313
56
-187
-517
-139
-81
-357
-291
-140
44
-63
-395
-301
-268
-189
148
99
107
425
245
-21
120
128
103
479
410
-133
-29
77
-64
-255
-84
252
-322
-584
-257
-323
-431
-344
-382
-447
-275
-284
-238
409
1538
3151
5089
6251
5330
3127
1486
924
584
137
-94
-367
-471
-306
-642
-848
-491
-410
-579
-635
-612
-650
-542
-471
-563
-763
-646
-521
-668
-533
-460
-458
-571
-622
-474
-452
-467
-567
-567
-299
-204
-331
-284
-165
-138
-159
-3
121
88
357
545
472
593
660
646
793
925
852
491
511
560
224
436
372
-83
-59
-14
-114
-234
-214
-262
-513
-467
-42
-260
-510
-263
-313
-297
-302
-236
-324
-519
-252
-232
-392
-353
-419
-432
-289
-288
-359
-256
-116
-242
-413
-119
-17
-339
-349
-210
-451
-317
123
-215
-357
-73
-135
-149
26
-188
-368
-263
-222
-91
-394
-422
-129
-314
-278
-156
-154
-141
-205
-264
-335
-85
-50
-444
-340
-86
-179
-314
-239
-244
-240
-200
-195
-99
5
86
-33
-8
109
222
248
128
117
97
246
177
-169
-89
54
-58
-214
-225
-124
-292
-310
-219
-555
-635
-266
-250
-583
-510
-304
-139
540
1978
3820
5443
6484
5361
2742
1403
1150
573
133
120
-277
-686
-588
-581
-779
-689
-435
-554
-423
-311
-1135
-1077
-497
-734
-678
-275
-410
-714
-488
-474
-644
-574
-628
-654
-636
-439
-303
-451
-429
-340
-472
-524
-338
-143
168
244
50
72
266
341
230
381
814
950
632
549
720
563
465
563
382
230
371
255
-170
-173
-210
-553
-456
-192
-312
-549
-300
-325
-297
6
-472
-748
-516
-403
-443
-448
-354
-369
-439
-324
-254
-441
-514
-307
-191
-477
-444
-283
-416
-273
-182
-315
-387
-405
-592
-501
-195
-271
-98
92
-348
-583
-446
-409
-406
-97
37
-351
-458
-313
-329
-299
-34
-135
-613
-682
-422
-355
-325
-156
-137
-314
-298
-217
-410
-347
-108
-178
-278
8
51
-345
-199
151
91
40
190
-31
26
379
120
41
184
265
244
13
35
-2
-159
-78
33
-265
-582
-489
-451
-382
-176
-320
-517
-262
-211
-370
137
1505
3320
5279
6729
6110
3522
1712
1178
575
193
46
-212
-343
-314
-440
-811
-736
-434
-662
-751
-714
-864
-714
-421
-489
-649
-557
-642
-830
-616
-346
-409
-521
-550
-561
-719
-668
-360
-433
-490
-425
-288
-242
-306
-199
-139
28
205
149
186
472
494
553
921
787
530
826
720
442
801
789
390
348
427
169
-199
-225
-165
-148
-136
-222
-343
-432
-191
-247
-715
-457
-167
-380
-76
-157
-578
-216
-177
-444
-475
-331
-200
-339
-353
-234
-420
-345
-217
-438
-479
-306
-59
-164
-240
-13
-140
-358
-236
-268
-351
-175
-225
-436
-234
-54
-271
-354
-216
-321
-275
8
-88
-350
-561
-362
-317
-258
-41
-318
-425
-313
-182
-110
-124
-94
-257
-363
-52
-110
-315
17
48
-100
131
336
186
159
332
135
76
288
100
-83
171
115
-256
-125
49
-344
-572
-235
-156
-325
-264
-357
-635
-485
-203
-254
-101
632
2057
4029
5879
6398
4637
2096
1023
802
232
-146
-159
-366
-497
-431
-593
-636
-478
-657
-895
-687
-394
-620
-608
-418
-769
-796
-517
-487
-519
-531
-731
-837
-628
-485
-328
-401
-590
-386
-323
-380
-341
-351
-313
-169
-142
-97
200
201
311
546
348
398
636
793
706
546
823
744
456
700
652
254
139
157
164
0
-29
-181
-505
-246
-148
-542
-334
-41
-468
-528
-241
-243
-288
-328
-183
-294
-540
-195
-311
-588
-226
-241
-462
-331
-286
-482
-343
-72
-298
-384
-74
-278
-412
-123
-244
-272
-181
-426
-449
-246
-138
-28
-204
-212
-58
-442
-494
-146
-331
-363
-43
-194
-303
-170
-188
-243
-296
-272
-449
-418
0
-235
-440
-31
-106
-346
-204
-3
98
37
101
130
20
212
298
43
88
277
-85
-233
180
283
75
-92
-9
-111
-344
-183
-600
-757
-137
-212
-393
-270
-319
-399
-159
207
898
2534
4741
6210
5864
4161
2024
791
669
295
-112
-118
-160
-364
-611
-731
-599
-669
-669
-335
-614
-856
-534
-679
-681
-358
-564
-784
-582
-442
-534
-613
-495
-562
-805
-606
-445
-607
-237
8
-608
-673
-239
-219
-224
-68
11
95
57
121
447
548
535
661
775
679
601
536
721
782
442
486
268
-118
-98
41
51
-239
-146
-155
-616
-412
-176
-306
-356
-312
-293
-469
-311
-232
-503
-537
-322
-156
-381
-479
-175
-347
-437
-268
-618
-532
-157
-241
-263
-221
-468
-505
-142
-143
-427
-445
-235
-128
-189
-188
-238
-274
-227
-227
-347
-430
-214
-266
-423
-222
-124
-378
-359
19
-271
-421
-93
-274
-523
-353
-237
-318
-291
-316
-382
-267
-65
-112
-197
-92
-197
-149
118
63
-45
-199
-120
24
-101
221
391
69
62
309
212
37
231
329
116
-31
78
55
-100
15
-34
-302
-327
-387
-543
-380
-399
-543
-251
-178
339
2153
4087
5691
6701
5490
2854
1267
941
522
40
-38
-190
-448
-561
-480
-506
-660
-717
-666
-590
-480
-548
-1003
-1059
-609
-547
-823
-594
-352
-740
-753
-564
-761
-533
-424
-767
-647
-338
-263
-492
-597
-372
-424
-403
-80
-69
20
190
228
316
388
548
549
628
696
581
675
906
881
652
510
330
227
98
197
189
-317
-215
39
-397
-539
-306
-240
-269
-178
33
-282
-604
-418
-386
-474
-204
-160
-636
-487
-147
-422
-438
-217
-367
-453
38
-193
-809
-451
-172
-307
-280
-175
-150
-76
-99
-144
-331
-489
-309
-316
-271
-50
-221
-235
18
-211
-421
-183
-87
-277
-323
-280
-311
-268
-67
-74
-356
-204
-97
-436
-429
-181
-385
-445
-102
-101
-222
-106
18
-42
38
204
162
33
62
224
270
238
49
-51
201
166
-54
43
111
-99
-158
7
-168
-447
-363
-332
-406
-234
-68
-162
-374
-288
-112
238
1198
2944
4967
6232
5923
3588
1549
978
421
21
-11
-54
-278
-514
-442
-508
-724
-621
-619
-640
-464
-562
-799
-620
-460
-755
-683
-359
-467
-591
-458
-513
-653
-428
-249
-544
-662
-323
-367
-542
-407
-341
-269
-221
-38
82
-150
-66
311
351
328
484
617
532
452
722
683
697
941
648
546
655
231
-5
102
76
-99
-175
-100
-372
-390
-223
-352
-343
-247
-256
-332
-319
-257
-320
-272
-113
-248
-372
-320
-424
-530
-405
-126
-274
-493
-355
-281
-190
-289
-507
-578
-424
-343
-238
-194
-381
-436
-358
-98
-168
-172
-164
-429
-329
-283
-422
-515
-316
-34
-251
-281
-87
-211
-307
-386
-317
-307
-404
-174
-228
-447
-239
-176
-324
-149
80
66
27
-1
-16
81
286
241
13
170
241
-22
-205
93
170
-256
-182
-46
-274
-291
-300
-518
-539
-354
-336
-505
-379
-271
-436
52
1334
2786
4561
6217
5890
3720
1785
777
356
121
149
-159
-541
-477
-619
-753
-570
-462
-768
-728
-454
-620
-626
-407
-540
-790
-476
-367
-767
-648
-502
-645
-583
-296
-161
-515
-556
-300
-443
-464
-297
-246
-380
-330
-54
-61
240
424
-30
98
612
507
388
731
739
585
731
740
704
704
577
444
493
420
41
-357
-288
61
-157
-182
-11
-458
-558
-269
-201
-169
-62
-309
-643
-460
-313
-318
-233
-131
-335
-650
-345
-50
-308
-388
-209
-334
-370
-110
-255
-343
-166
-335
-507
-202
-35
-285
-189
19
-306
-232
54
-148
-341
-400
-201
-334
-537
-111
-96
-421
-331
-160
-209
-114
-10
-465
-533
-218
-270
-341
-163
-26
-209
-265
-317
-310
-43
-176
-305
-49
135
151
101
205
316
48
-39
245
193
-113
162
436
-74
0
-35
-398
-268
-286
-322
-414
-240
-164
-437
-478
-291
-380
-608
-108
425
987
2834
5254
6532
6032
4067
1889
958
711
205
92
-186
-566
-494
-655
-721
-726
-727
-642
-691
-822
-596
-506
-851
-790
-540
-620
-788
-570
-372
-499
-598
-830
-957
-687
-435
-644
-774
-501
-390
-407
-369
-263
-320
-290
17
-9
-145
-42
112
207
574
703
426
516
757
756
656
716
652
399
335
308
213
116
-107
-326
-313
-227
-286
-394
-256
-326
-786
-522
-113
-237
-343
-258
-173
-493
-611
-381
-508
-429
-213
-621
-716
-314
-256
-359
-204
-61
-324
-426
-78
-267
-520
-158
-265
-427
-317
-372
-135
-125
-395
-284
-128
-148
-354
-485
-274
-99
-214
-360
-338
-289
-325
-239
-108
-423
-529
-191
-151
-260
-238
-226
-316
-265
-191
-222
-137
-28
-23
-56
123
147
96
427
198
-121
271
314
98
145
111
17
-145
-152
-117
-225
-303
-284
-306
-502
-377
-298
-504
-271
-180
-562
-244
394
1264
3049
5063
6417
5951
3758
1699
843
626
254
-199
-267
-63
-383
-638
-425
-651
-893
-642
-420
-683
-719
-482
-721
-863
-535
-450
-743
-508
-236
-552
-704
-543
-341
-502
-551
-345
-553
-590
-386
-301
-271
-283
-276
-155
-77
-31
79
419
564
176
273
790
611
614
1070
657
515
852
657
377
312
416
263
6
88
-20
-280
-274
-172
-240
-195
-254
-579
-485
-154
-125
-367
-416
-368
-439
-466
-394
-350
-390
-223
-72
-365
-524
-412
-306
-203
-327
-377
-267
-252
-304
-341
-177
-85
-324
-352
-157
-200
-311
-175
-131
-307
-300
-203
-226
-300
-177
-226
-463
-186
-142
-467
-370
-172
-282
-375
-245
-291
-354
-237
-215
-370
-229
58
-396
-564
-109
-99
-17
33
-68
-66
-32
44
2
168
386
88
-263
109
387
196
193
253
32
-190
30
-30
-376
-235
-137
-505
-472
-185
-294
-305
-256
-239
-417
-199
450
1354
3409
5325
6137
5196
3038
1375
436
171
38
-43
-5
-176
-563
-752
-608
-587
-627
-568
-571
-659
-690
-504
-646
-746
-411
-569
-743
-478
-473
-714
-626
-493
-761
-510
-113
-572
-569
-220
-391
-467
-343
-208
-262
-96
27
-121
41
279
308
298
499
685
656
610
686
784
747
737
589
251
309
494
180
-39
159
-32
-394
-166
-117
-515
-402
-165
-441
-463
-128
-130
-284
-242
-415
-499
-236
-150
-178
-420
-410
-274
-491
-328
-111
-221
-243
-252
-324
-352
-235
-39
-227
-471
-216
-288
-492
37
-18
-434
-157
-88
-133
-31
-218
-488
-259
-53
-269
-396
-317
-171
-223
-283
-246
-358
-316
-148
-241
-233
-109
-335
-486
-196
-88
-267
-106
159
-175
-221
290
106
-12
282
29
148
458
167
-48
-96
162
293
-69
-26
219
-70
-235
-276
-472
-445
-352
-384
-376
-163
-165
-512
-645
-229
279
1215
3073
5048
6361
5853
3764
1850
988
689
135
-27
67
-275
-573
-548
-484
-696
-840
-594
-485
-709
-639
-641
-829
-588
-440
-627
-523
-402
-864
-889
-416
-549
-750
-466
-264
-472
-599
-389
-508
-654
-347
-236
-302
-154
-78
-217
36
493
365
269
371
386
653
908
875
647
646
769
562
380
524
294
-57
127
194
-13
-68
-151
-392
-466
-342
-328
-465
-395
-139
-243
-353
-247
-371
-294
-146
-363
-440
-295
-295
-493
-397
-152
-270
-323
-155
-281
-520
-360
-222
-280
-174
-71
-181
-261
-236
-185
-239
-113
-108
-436
-264
-73
-263
-258
-124
-151
-361
-242
-3
-292
-211
-49
-309
-259
-277
-355
-248
-134
-81
-331
-320
-67
-182
-148
43
-1
-82
200
271
-138
-3
283
235
147
248
374
215
158
163
-11
83
153
-141
-63
59
-294
-530
-391
-141
-283
-316
-190
-504
-431
-241
-331
459
1889
3471
5349
6577
5839
3337
1488
992
585
112
19
6
-385
-524
-405
-562
-720
-671
-491
-679
-767
-457
-634
-647
-312
-655
-751
-400
-465
-612
-406
-363
-703
-534
-253
-505
-651
-398
-372
-356
-160
-231
-350
-215
13
131
56
96
328
231
332
725
631
627
916
851
752
863
753
439
533
790
269
108
456
0
-340
-84
-119
-363
-291
-170
-261
-240
-146
-216
-265
-278
-309
-418
-341
-232
-323
-146
-197
-445
-381
-289
-327
-235
-36
-178
-423
-474
-142
-86
-286
-125
-57
-280
-283
-163
-302
-215
-92
-228
-331
-16
64
-365
-121
12
-365
-302
-21
-56
-271
-335
-370
-168
-118
-94
-316
-442
-114
-234
-167
50
-166
-348
-305
-242
-151
-16
-9
-62
136
260
89
171
330
180
80
178
301
141
44
208
91
-127
-101
102
-51
-314
-193
-325
-346
-119
-130
-390
-445
-417
-632
-406
300
1195
2602
4577
6164
6229
4136
1899
1083
619
241
-65
-229
-77
-318
-650
-559
-561
-628
-551
-482
-763
-713
-212
-263
-633
-609
-437
-475
-525
-532
-471
-587
-608
-372
-465
-567
-514
-525
-365
-107
-212
-430
-195
-29
-98
19
220
248
323
592
518
407
699
805
546
763
900
493
693
939
624
506
705
510
55
1
-25
-414
-453
-47
-102
-341
-379
-289
-257
-315
-66
-230
-530
-262
-154
-348
-480
-403
-338
-273
-218
-295
-293
-233
-417
-431
-73
-255
-413
-154
-176
-319
-322
-69
-118
-299
-143
-64
-346
-453
-147
-131
-119
-115
-257
-199
-80
-190
-403
-185
-127
-288
-108
-171
-339
-319
-160
-61
-102
-104
-220
-342
-323
-223
-188
-189
-145
-75
-275
-339
-17
-45
84
375
38
40
233
149
141
262
413
14
1
245
-37
-42
152
104
-116
60
168
-352
-576
-510
-529
-403
-254
-286
-367
-232
-74
15
796
2562
4572
6214
6523
4612
2256
1329
966
274
-57
25
-349
-537
-309
-512
-781
-689
-639
-749
-558
-392
-575
-540
-605
-812
-805
-527
-453
-650
-390
-344
-566
-685
-682
-510
-561
-518
-330
-328
-543
-409
-321
-356
-14
-68
-170
129
234
194
432
660
662
703
781
726
678
871
831
506
406
551
483
91
37
200
-12
-240
-70
-243
-415
-93
-199
-408
-224
-184
-443
-411
-114
-365
-517
-310
-399
-374
-235
-153
-287
-423
-294
-349
-373
-121
-140
-406
-350
-196
-178
-257
-55
-136
-495
-74
-178
-536
-233
-257
-264
58
-65
-272
-306
-219
-189
-344
-223
-206
-158
-12
-229
-439
-327
-184
-259
-391
-146
84
54
115
-104
-460
-309
36
19
-52
78
149
321
395
223
109
28
199
269
49
52
10
-216
-164
-41
-284
-438
-292
-348
-470
-280
-279
-391
-250
-311
-394
-89
852
2399
4368
6400
6415
4030
2084
1292
627
259
168
-174
-435
-315
-564
-910
-744
-581
-727
-676
-377
-505
-765
-754
-596
-623
-476
-230
-590
-682
-639
-846
-675
-454
-385
-548
-540
-342
-476
-447
-262
-491
-535
-74
-130
-400
-159
146
182
301
464
493
525
639
906
803
668
827
671
623
538
319
433
294
-103
-281
-107
-81
-195
-174
-274
-433
-586
-392
-206
-421
-356
-256
-410
-378
-179
-387
-649
-334
-483
-670
-282
-221
-351
-290
-326
-462
-272
-70
-149
-339
-550
-528
-536
-471
-30
-87
-341
74
-137
-553
-154
-115
-308
-273
-290
-184
-343
-489
-192
-345
-355
-241
-373
-164
-96
-260
-479
-392
-118
-268
-216
-26
-105
-56
84
-21
-47
133
133
-11
-7
157
141
66
113
203
162
-14
-87
-162
-201
-200
-454
-559
-405
-310
-411
-605
-407
-333
-487
-73
481
1333
3066
4851
6033
5754
3331
1277
1072
601
-161
-140
-58
-497
-726
-364
-441
-777
-745
-577
-625
-794
-601
-585
-671
-565
-603
-630
-625
-607
-628
-549
-423
-660
-687
-351
-361
-502
-496
-512
-516
-418
-238
-240
-338
-130
-32
-120
-45
254
494
324
457
556
393
690
855
790
682
578
525
372
325
178
54
184
94
-304
-385
-113
-181
-418
-412
-490
-604
-458
-338
-309
-213
-264
-397
-447
-264
-144
-409
-442
-382
-666
-525
-240
-471
-405
-336
-422
-346
-370
-414
-441
-266
-168
-328
-259
-197
-451
-617
-224
-204
-452
-216
-226
-411
-390
-305
-375
-322
-232
-223
-146
-345
-461
-442
-474
-187
-147
-424
-385
-231
-321
-182
43
-178
-413
-155
144
-10
-64
153
239
235
61
-93
58
78
8
57
100
-47
-281
-197
-77
-424
-601
-201
-292
-614
-366
-247
-457
-424
-345
-455
302
1862
3763
5759
6459
5286
2988
1440
1010
532
-20
-170
-195
-592
-646
-529
-767
-698
-613
-802
-703
-423
-420
-692
-591
-503
-914
-893
-606
-693
-653
-422
-661
-892
-582
-431
-499
-450
-365
-376
-439
-130
-229
-620
-334
-283
-333
26
169
216
408
431
435
498
677
865
899
851
684
568
494
546
379
240
311
-4
-298
-70
41
-137
-248
-417
-464
-452
-333
-177
-373
-542
-270
-189
-419
-348
-360
-369
-162
-231
-407
-498
-391
-357
-480
-170
-179
-616
-304
2
-273
-321
-282
-306
-189
-110
-196
-334
-346
-204
-273
-230
-69
-306
-501
-272
-96
-185
-64
-10
-363
-389
-68
-228
-387
-221
-205
-345
-143
-18
-452
-340
-63
-191
-137
-49
-145
-397
-312
-105
-198
-149
123
52
137
543
13
-62
283
156
93
-54
133
183
147
251
98
-37
-90
131
-112
-604
-209
-265
-604
-421
-497
-538
-190
-210
-500
-191
554
1769
3666
5698
6762
5552
3036
1542
1087
496
90
19
-309
-520
-571
-674
-510
-626
-865
-587
-510
-746
-734
-445
-536
-898
-805
-733
-734
-446
-612
-923
-618
-371
-497
-588
-544
-408
-335
-448
-549
-502
-396
-284
-264
-234
-47
34
52
282
444
301
379
734
694
700
937
848
691
630
508
426
431
398
239
108
32
-182
-300
-236
-203
-377
-354
-187
-279
-442
-531
-282
-207
-208
-137
-423
-516
-366
-262
-235
-153
-201
-458
-411
-375
-385
-354
-424
-189
-182
-373
-265
-277
-244
-85
-230
-466
-386
-146
-216
-124
22
-523
-457
74
-173
-384
-240
-153
-107
-88
-265
-496
-423
-267
-296
-394
-228
-48
-318
-348
-153
-248
-172
49
143
138
42
128
83
-36
93
146
134
235
154
46
201
52
-309
-267
34
-174
-289
-77
-365
-386
-245
-322
-434
-417
-238
-488
-319
393
1190
2683
4896
6416
5768
3596
1516
641
587
368
-26
-222
-268
-551
-629
-529
-698
-738
-589
-467
-586
-765
-535
-422
-549
-283
-406
-852
-636
-361
-627
-755
-435
-486
-529
-393
-431
-437
-312
-193
-383
-406
-350
-437
-178
122
159
38
80
508
477
377
761
800
614
591
657
677
783
675
249
298
475
183
-91
-56
-64
-273
-291
-142
-258
-274
-120
-291
-490
-315
-175
-416
-644
-303
2
-475
-459
-100
-474
-538
-251
-388
-347
-178
-430
-537
-301
-280
-361
-120
-146
-345
-235
-316
-492
-299
-81
-246
-267
-154
-247
-256
-248
-268
-383
-443
-295
-218
-275
-272
-220
-312
-231
-117
-266
-310
-323
-458
-417
-178
-85
-205
-201
-71
-195
-226
132
179
-177
-99
247
303
182
279
213
-42
-11
118
102
43
122
-124
-339
-330
-445
-387
-288
-288
-377
-348
-209
-394
-397
-102
28
407
1679
3668
5417
6196
5116
2665
1238
1018
420
-46
-16
-259
-549
-482
-453
-597
-604
-684
-647
-604
-671
-605
-678
-627
-482
-745
-636
-394
-715
-683
-468
-496
-647
-692
-552
-556
-430
-148
-207
-487
-498
-449
-578
-313
28
-6
15
169
226
221
374
404
395
696
931
702
517
666
569
535
616
379
30
-152
-5
-20
-190
75
-94
-679
-345
-179
-561
-267
-114
-458
-525
-401
-422
-384
-146
-149
-354
-531
-409
-327
-206
5
-329
-604
-358
-93
-332
-359
-72
-338
-444
-264
-355
-215
-130
-271
-394
-294
44
-149
-354
-158
-308
-487
-239
-218
-262
1
-227
-512
-385
-181
-220
-363
-150
-165
-446
-415
-323
-386
-269
-104
-160
-333
-270
-220
-195
81
216
73
16
190
24
-84
339
261
-126
146
103
-151
185
204
-73
-91
-69
-199
-389
-375
-324
-426
-418
-254
-368
-557
-484
-524
-355
397
1757
3462
5211
6433
5599
3278
1740
1144
683
226
-175
-410
-541
-455
-328
-613
-816
-717
-863
-803
-347
-451
-846
-667
-652
-892
-626
-612
-895
-575
-504
-734
-533
-469
-645
-632
-440
-418
-615
-515
-337
-387
-392
-291
-250
-233
171
171
-131
223
449
490
667
652
451
445
753
827
601
543
590
376
66
253
255
-280
-284
-183
-404
-256
-170
-403
-332
-193
-366
-431
-220
-174
-150
-192
-441
-513
-433
-276
-301
-396
-130
-165
-654
-565
-260
-322
-185
-105
-210
-305
-407
-350
-352
-252
-8
-124
-274
-289
-391
-369
-195
-210
-377
-244
-70
-175
-246
-256
-425
-272
-114
-395
-504
-401
-140
-198
-430
-177
-226
-407
-155
-97
-317
-162
-3
-405
-416
70
-180
-595
-97
220
57
137
245
79
65
356
263
69
207
186
68
143
171
-17
-64
-36
-229
-203
-149
-390
-504
-348
-121
-165
-175
-192
-440
-405
143
1094
2512
4556
6157
6080
4061
1869
943
641
499
125
-289
-470
-563
-629
-605
-536
-517
-513
-550
-669
-818
-724
-477
-456
-521
-429
-450
-586
-451
-485
-667
-566
-595
-638
-512
-421
-441
-406
-263
-146
-141
-113
-128
-338
-149
49
-5
196
476
544
600
689
579
613
816
897
839
671
624
646
405
415
451
38
-28
8
-119
-284
-307
-179
-269
-66
66
-394
-441
-179
-288
-376
-252
-317
-469
-312
-252
-365
-311
-136
-183
-327
-214
-232
-308
-189
-216
-333
-328
-136
-192
-385
-256
-227
-198
17
29
-298
-423
-206
-273
-308
20
-12
-361
-399
-174
-309
-584
-467
-281
-243
-199
-48
-221
-353
-251
-333
-164
103
-184
-416
-232
-89
154
199
32
-132
-99
248
267
239
377
56
-121
92
243
414
-84
-337
-9
-280
-462
-394
-378
-123
-60
-341
-425
-338
-301
-405
-201
392
1035
2622
4647
5836
5649
3751
1807
991
512
46
-243
-254
-94
-324
-495
-509
-723
-804
-667
-472
-547
-614
-503
-543
-637
-546
-569
-635
-557
-536
-485
-614
-660
-600
-559
-434
-367
-394
-397
-297
-408
-382
-60
-118
-341
-41
11
-96
217
380
394
531
693
642
401
536
834
800
731
435
320
491
354
109
49
186
-148
-505
-106
-17
-309
-260
-410
-573
-88
33
-414
-447
-364
-392
-335
-205
-194
-337
-288
-276
-482
-447
147
43
-555
-406
-212
-400
-360
-3
-94
-266
35
-93
-460
-118
-80
-443
-316
-55
-138
-313
-233
-166
-258
-136
-30
-289
-403
-252
-84
-74
-323
-307
-218
-377
-235
-209
-266
-106
-276
-389
-218
-104
57
195
196
-12
-42
256
189
-61
182
266
27
221
292
38
15
233
59
-208
-76
-227
-455
-357
-385
-487
-341
-221
-402
-397
-241
-341
-275
567
2429
4265
5714
6433
4883
2432
1399
1082
588
119
-150
-361
-549
-478
-395
-652
-746
-561
-669
-614
-464
-696
-771
-397
-421
-766
-604
-523
-706
-730
-432
-511
-834
-495
-383
-623
-498
-401
-487
-326
-215
-430
-422
-133
-28
-91
141
162
-101
344
695
364
402
673
775
781
710
758
533
511
690
371
148
25
-91
-259
-214
37
-296
-392
-193
-510
-569
-207
-188
-398
-134
-198
-604
-325
-210
-304
-314
-447
-446
-369
-272
-287
-357
-228
-246
-388
-334
-166
-188
-465
-354
-112
-64
36
-207
-489
-381
-28
-62
-453
-338
-201
-334
-196
-69
-308
-311
87
-17
-342
-250
-258
-415
-315
-101
-352
-493
-215
-229
-256
-1
66
10
171
155
-18
-90
85
417
52
-77
369
139
51
260
157
155
251
62
-244
-112
-36
-273
-272
-319
-494
-312
-131
-427
-543
-289
-249
-256
383
1563
3050
5127
6842
5861
3128
1498
991
719
424
137
-28
-319
-425
-414
-795
-733
-567
-753
-634
-419
-603
-771
-515
-542
-643
-332
-496
-910
-475
-43
-328
-395
-247
-405
-618
-486
-392
-522
-333
-138
-316
-359
-183
50
136
80
-20
47
437
539
390
610
899
690
608
950
1061
700
337
469
569
279
94
-43
-255
-45
18
-339
-346
-217
-257
-335
-176
-187
-538
-483
-400
-576
-367
-100
-248
-325
-366
-445
-460
-302
-263
-448
-237
-122
-189
-231
-447
-428
-362
-246
-52
-179
-179
83
-78
-392
-279
-307
-445
-262
-159
-403
-191
301
-241
-521
17
-186
-555
-359
-215
-294
-283
-102
-206
-170
330
-237
-802
-220
-1
-158
23
200
112
217
322
493
513
-9
-66
-2
-114
82
79
2
70
-32
-235
-241
-171
-314
-316
-143
-421
-482
-10
-514
-803
-209
-119
378
1868
3705
5175
6106
5264
2685
748
392
475
-8
-157
-105
-413
-512
-451
-549
-912
-779
-436
-740
-796
-442
-499
-700
-453
-310
-650
-693
-475
-782
-897
-474
-415
-593
-407
-398
-620
-429
-307
-242
-179
-368
-594
-365
57
83
146
323
411
206
447
655
229
468
909
705
507
666
630
459
491
493
101
-72
119
-230
-337
27
11
-272
-313
-165
-119
-364
-593
-370
-275
-203
-141
-329
-370
-356
-423
-325
-230
-348
-184
-199
-394
-388
-473
-345
-263
-187
10
-35
-186
-189
-219
-298
-123
-114
-380
-347
-130
-130
-333
-321
-130
-157
11
39
-352
-450
-188
-5
-330
-388
-133
-279
-143
10
-174
-169
-80
-38
-7
4
-28
46
204
351
326
128
329
233
-82
180
127
-179
-145
-13
-140
-290
-39
-6
-247
-207
-470
-842
-543
-290
-416
-304
-226
-184
594
2199
4314
6036
6380
4851
2480
1254
874
353
-26
-163
-312
-538
-685
-543
-513
-570
-583
-765
-812
-667
-448
-441
-693
-669
-700
-809
-537
-412
-682
-739
-554
-609
-566
-402
-454
-533
-541
-460
-303
-337
-326
-208
-170
-98
-143
-43
278
303
226
409
671
651
598
819
566
404
687
641
527
423
325
250
148
92
-3
-287
-395
-391
-444
-309
-272
-413
-351
-200
-385
-391
-155
-147
-404
-453
-269
-538
-581
-187
-238
-359
-196
-320
-409
-210
-231
-429
-373
-195
-229
-268
-226
-312
-410
-166
4
-101
-233
-311
-396
-448
-79
-81
-446
-253
-291
-295
-132
-279
-315
-292
-167
-177
-397
-310
-257
-298
-113
-130
-78
118
127
29
-74
173
297
152
217
170
114
207
190
291
-21
-222
16
-225
-195
-120
-358
-280
-130
-257
-364
-434
-548
-504
-384
-359
-214
411
1883
3885
5689
6735
5472
2886
1610
1027
453
38
-108
-116
-537
-709
-561
-707
-688
-536
-705
-612
-327
-470
-662
-657
-566
-779
-543
-352
-894
-807
-430
-497
-638
-499
-517
-605
-439
-277
-279
-526
-462
-329
-386
-151
75
-20
11
304
216
176
510
595
640
779
773
657
753
1037
726
233
378
439
173
113
16
-114
-93
-88
-230
-408
-230
-172
-347
-371
-450
-367
-58
-144
-426
-351
-244
-404
-289
-155
-397
-415
-431
-355
-246
-315
-170
-263
-404
-211
-67
-44
-125
-101
-321
-464
-126
-261
-426
-36
-19
-332
-221
77
-24
-241
-365
-325
-68
-240
-333
-208
-206
-235
-351
-285
-130
5
-116
-271
-154
-203
-42
211
125
10
6
48
185
307
309
121
21
352
171
-242
201
316
-55
-96
-74
-266
-457
-321
-482
-396
-160
-354
-298
-261
-346
-368
172
1031
2342
4440
6062
6114
4163
1893
936
565
272
13
-270
-339
-318
-478
-638
-616
-667
-602
-442
-521
-794
-708
-445
-467
-479
-402
-456
-698
-721
-519
-443
-516
-449
-521
-584
-278
-298
-613
-474
-152
-170
-365
-233
-143
-153
124
184
99
220
580
604
579
706
600
657
646
650
576
457
635
411
101
317
154
-400
-86
161
-295
-180
48
-312
-559
-563
-422
-312
-364
-188
-297
-445
-246
-255
-245
-213
-354
-558
-450
-139
-324
-361
-153
-368
-367
-111
-100
-211
-454
-360
-163
-295
-206
-200
-374
-167
-6
-189
-203
-143
-334
-301
-60
-109
-243
35
-28
-661
-451
-298
-512
-239
-127
-203
-183
-153
-129
-147
-107
-75
-137
-145
28
-66
-20
390
159
13
257
215
94
156
249
70
5
84
-161
-136
65
-124
-413
-491
-359
-461
-527
-183
-160
-488
-419
-262
-26
739
1950
3897
5832
6407
4969
2467
1324
1057
314
78
100
-372
-548
-524
-679
-728
-607
-637
-809
-638
-440
-692
-827
-418
-370
-857
-638
-318
-950
-903
-353
-676
-749
-423
-505
-679
-480
-270
-496
-557
-340
-262
-195
-129
-86
-58
-89
109
218
274
579
492
332
543
923
753
404
621
581
441
533
312
-33
89
46
-361
-234
-165
-311
-125
-130
-409
-454
-379
-537
-431
-189
-235
-320
-405
-311
-397
-545
-271
-116
-283
-446
-365
-322
-390
-367
-358
-357
-147
-213
-516
-197
-160
-437
-304
-158
-248
-278
65
-86
-603
-376
-100
-343
-213
-62
-277
-392
-336
-241
-417
-346
-116
-328
-416
-152
-126
-264
-222
-223
-333
-190
50
-46
-58
178
115
-162
108
369
-28
-10
310
232
109
8
-34
13
8
65
-218
-419
-274
-466
-538
-281
-374
-552
-264
-139
-387
-507
-243
547
2083
4275
6010
6416
5121
2721
1285
882
335
-221
-159
38
-403
-796
-738
-648
-698
-708
-648
-682
-631
-560
-644
-624
-617
-559
-531
-665
-634
-644
-635
-621
-660
-629
-561
-513
-520
-403
-280
-372
-434
-308
-189
-113
10
34
-127
13
374
318
295
714
727
528
745
669
580
724
612
442
345
287
132
137
79
-172
-76
71
-139
-484
-361
-31
-316
-544
-287
-353
-382
-151
-272
-399
-305
-164
-183
-379
-453
-358
-370
-387
-199
-279
-294
-78
-191
-330
-173
-87
-113
-51
-224
-502
-246
40
-158
-283
-152
-209
-315
-260
-283
-195
-92
96
-89
-583
-261
-156
-370
-175
-230
-356
-268
-47
-89
-460
-253
97
-202
-303
-118
-180
29
246
55
80
325
355
326
345
162
3
1
-31
-122
-196
-63
33
-254
-361
-308
-495
-296
-95
-339
-378
-122
-106
-366
-74
696
1794
3518
5232
6114
4691
2128
911
538
268
109
-88
-198
-242
-591
-731
-373
-345
-645
-518
-519
-659
-565
-566
-540
-614
-552
-565
-655
-521
-563
-517
-406
-455
-618
-429
-353
-589
-406
-350
-322
-343
-361
1
-108
-383
110
305
-10
239
584
551
549
651
576
411
621
874
700
399
318
207
161
405
166
-221
-154
-237
-286
-114
-220
-452
-436
-166
-412
-451
40
-208
-511
-339
-210
-268
-431
-458
-402
-432
-456
-287
-182
-444
-417
-419
-481
-159
-264
-503
-306
-152
-362
-508
-301
-382
-350
-91
-353
-412
-294
-271
-174
-256
-343
-383
-364
-130
-389
-524
-139
-261
-247
-143
-398
-484
-194
-22
-183
-221
9
-47
-354
-246
50
-113
-140
316
237
65
198
-132
-363
-85
-36
-448
-557
-197
-251
-405
-297
-403
-430
-427
-493
-312
-390
-339
350
1574
3406
4652
4679
3340
1271
261
129
-34
-208
-324
-363
-368
-494
-693
-729
-627
-636
-626
-583
-506
-286
-475
-710
-594
-636
-809
-951
-804
-540
-653
-553
-361
-805
-764
-437
-563
-518
-430
-417
-283
-390
-478
-343
-21
135
-23
100
125
148
206
405
699
426
361
564
324
452
492
-8
50
239
55
-212
-163
59
-253
-356
-273
-505
-580
-443
-308
-389
-504
-497
-427
-433
-291
-352
-554
-266
-428
-629
-302
-377
-683
-730
-357
-4
-147
-419
-582
-511
-408
-471
-501
-455
-360
-392
-430
-284
-317
-507
-400
-158
-332
-312
-85
-514
-740
-350
-153
-476
-628
-375
-358
-447
-279
-229
-524
-376
-113
-230
-136
59
-30
-192
-179
-226
-82
-12
-124
-175
-160
-3
-143
-465
-529
-676
-822
-441
-563
-858
-572
-420
-521
-765
-700
-511
-219
606
1746
3004
4277
4657
2865
731
147
-23
-443
-697
-557
-473
-517
-582
-763
-779
-705
-791
-783
-530
-381
-760
-914
-645
-719
-652
-531
-575
-800
-720
-240
-452
-688
-640
-705
-590
-344
-344
-619
-404
-98
-375
-249
-73
-261
85
285
123
263
485
393
326
734
667
355
535
696
485
198
430
394
117
200
29
-276
16
233
-303
-722
-382
-128
-319
-208
-182
-430
-208
-43
-362
-289
-192
-361
-181
-26
-115
-264
-329
-205
-279
-369
-144
-79
-285
-241
-173
-184
-68
-100
-224
-270
-50
71
-182
-15
158
-386
-285
2
-281
-137
71
-90
-101
34
-94
-138
-65
-48
-58
-110
125
261
132
136
225
199
304
557
307
-66
162
308
120
188
293
133
-37
196
-9
-436
-57
11
-367
-318
-57
-53
-287
-190
-72
-246
294
1214
2275
3995
5033
4616
3018
1261
521
234
60
39
-133
-60
66
-428
-667
-258
-280
-509
-407
-401
-485
-297
-122
-341
-319
84
-395
-837
-311
-206
-480
-355
-89
-242
-315
-77
-301
-342
67
-174
-168
210
62
137
91
-41
232
227
420
699
672
669
708
759
637
747
770
479
542
459
282
432
361
230
136
138
76
-208
-104
-12
-249
-172
94
-117
-162
3
-314
-351
33
117
-57
-116
-140
-185
-77
47
-117
-227
-84
-133
-68
286
-58
-467
-261
-95
-80
-80
13
11
-86
-60
93
185
-39
-248
-98
-207
-103
1
-282
-70
262
-64
-308
14
-41
-144
162
52
-89
-26
-13
54
87
334
254
60
377
365
95
398
477
76
253
412
118
128
331
176
-172
-127
67
-179
-362
-112
12
-102
-210
-195
-319
-257
68
200
805
2201
3775
5099
5451
3888
1696
923
905
253
-202
-30
-249
-294
-156
-432
-487
-324
-306
-383
-516
-598
-431
-392
-439
-140
-228
-615
-443
-328
-500
-480
-471
-464
-230
-182
-423
-382
-162
-391
-267
139
-297
-239
280
99
-60
62
344
505
336
530
662
496
655
691
552
717
833
460
419
621
328
141
87
99
18
-109
30
-253
-452
-196
-200
-308
-122
-14
-61
35
11
-278
-398
-191
-305
-260
69
-143
-410
-254
-91
-229
-164
-28
-196
-52
84
-170
-299
-208
-27
-72
-190
45
-146
-461
-23
118
-268
-182
120
-63
-266
-91
-137
-301
-1
-22
-343
-107
41
-274
-243
-15
-231
-265
8
3
-250
-286
-95
-133
-152
-101
-109
-229
-273
-101
-27
72
290
301
172
204
109
58
410
499
95
94
380
283
125
253
195
-70
35
165
194
-6
-342
-409
-313
-268
-199
-202
-294
-103
-34
32
491
1555
3143
4776
5999
5276
2831
1408
967
445
469
525
139
-129
-328
-796
-848
-666
-911
-776
-493
-532
-559
-400
-250
10
397
143
-590
-924
-939
-1009
-801
-486
-722
-813
-387
-369
-551
-446
-504
-425
-43
-36
63
584
958
1230
1312
669
-128
-391
-298
54
265
292
600
827
685
524
296
51
13
173
60
-163
-180
-361
-374
-143
74
-220
-384
16
-42
-384
-456
-414
-432
-367
-314
-350
-324
-33
99
-271
-533
-574
-516
-361
-229
-251
-342
-67
-75
-381
-385
-139
-113
-385
-244
-276
-403
-34
-163
-431
-236
-118
-230
-383
-121
66
-130
-162
-342
-301
-96
-349
-294
-181
-310
-241
-230
-246
-303
-388
-153
-53
-305
-259
-10
-100
-202
-97
-89
112
510
112
-186
121
128
171
240
197
183
106
98
230
204
25
-57
-41
-296
-449
-307
-422
-467
-252
-319
-461
-305
-346
-461
-148
97
971
2965
4637
5558
5224
3095
1037
693
495
-117
-163
-112
-204
-377
-592
-603
-574
-747
-942
-813
-591
-382
-266
-535
-654
-492
-692
-902
-624
-489
-461
-348
-350
-311
-515
-774
-776
-568
-333
-277
-243
-66
-15
-354
-297
-78
-184
46
350
326
328
519
724
717
589
572
629
689
655
514
302
332
466
167
-38
-30
-298
-352
-60
-152
-276
-177
-408
-534
-401
-398
-494
-430
-214
-192
-507
-519
-181
-255
-166
-65
-538
-515
-304
-370
-220
-36
-129
-297
-159
-65
-89
-262
-258
-147
-345
-186
-152
-318
-260
-308
-260
-154
-3
171
24
-317
-379
-222
-68
-189
-380
-399
-188
-83
-148
37
39
-2
143
279
141
-154
28
292
105
178
431
137
15
343
143
-71
122
-59
-359
-275
-200
-374
-266
-262
-477
-268
-429
-655
-325
-268
-285
355
1794
3804
5457
6100
4868
2370
1170
763
183
22
-9
-107
-375
-647
-440
-624
-914
-560
-579
-757
-548
-491
-688
-584
-439
-626
-680
-513
-443
-575
-686
-532
-585
-672
-649
-659
-430
-401
-522
-529
-303
74
-157
-481
-79
98
-152
12
285
400
598
521
496
663
742
612
498
754
657
352
236
210
94
-131
66
81
-321
-269
-234
-427
-254
-111
-263
-484
-288
-134
-636
-641
-184
-267
-406
-207
-231
-331
-170
-280
-588
-483
-339
-448
-206
-4
-201
-258
-100
-85
-233
-85
-136
-337
-102
-161
-460
-209
-64
-319
-192
-93
-285
-532
-240
114
-153
-72
-136
-332
-319
-334
-240
-270
-2
164
-154
-30
229
5
-41
226
478
217
89
402
151
63
261
196
137
321
263
-182
-87
81
-326
-463
-159
-90
-486
-641
-448
-549
-540
-379
-448
-319
271
1116
2857
5132
6393
5798
3517
1644
1024
502
103
-94
-469
-490
-431
-678
-561
-519
-819
-829
-752
-786
-717
-597
-554
-774
-802
-495
-477
-543
-523
-597
-808
-712
-459
-566
-574
-385
-429
-392
-248
-405
-483
-266
-45
-170
-190
-41
-23
140
340
364
489
667
609
602
721
883
732
592
684
561
201
-41
143
82
-32
-46
-336
-289
-71
-174
-394
-336
-165
-213
-298
-314
-506
-502
-133
-333
-536
-98
-181
-454
-252
-192
-334
-349
-117
-104
-18
230
-251
-733
-526
-168
-292
-369
61
-24
-432
-201
-54
-309
-439
-308
-195
-269
-127
-192
-317
-141
-147
-250
-221
-62
-89
-251
-75
-71
-168
81
-30
-152
144
207
192
234
211
72
-78
132
241
18
-26
40
39
-92
-312
-480
-474
-189
-236
-532
-350
-220
-426
-604
-473
-45
542
1865
3804
5343
6181
5073
2102
828
893
220
-150
-212
-386
-428
-537
-564
-774
-920
-541
-651
-932
-660
-548
-800
-802
-501
-644
-777
-513
-638
-702
-658
-708
-534
-581
-568
-520
-555
-458
-572
-574
-387
-162
-163
-334
-127
-88
7
288
156
154
568
671
286
455
802
532
484
835
600
127
360
352
-27
19
22
-156
-209
-191
-344
-484
-313
-117
-229
-390
-325
-485
-484
-251
-427
-497
-258
-246
-397
-406
-238
-312
-608
-338
-154
-229
-42
-132
-388
-474
-324
-325
-393
-225
-214
-208
-254
-391
-64
9
-475
-485
-327
-226
-153
-146
-145
-368
-369
-219
-187
-124
-407
-374
-233
-432
-124
50
-149
10
222
-109
-120
360
272
50
255
283
24
-133
-32
119
-30
-129
-195
-274
-185
-357
-474
-317
-368
-446
-357
-144
-16
-371
-527
-354
292
1827
3583
5296
6144
5143
2828
945
555
472
-129
-190
-103
-443
-555
-628
-732
-662
-511
-617
-680
-495
-480
-702
-767
-556
-607
-466
-325
-665
-818
-683
-626
-656
-786
-390
-36
-612
-608
-398
-556
-245
-110
-354
-225
-59
-196
-57
264
279
188
450
730
369
195
609
662
459
601
470
105
302
364
34
-109
5
36
-232
-195
-56
-260
-399
-551
-497
-188
-115
-301
-619
-535
-286
-385
-287
82
-161
-697
-433
-216
-426
-290
-172
-349
-327
-147
-231
-372
-254
-213
-373
-322
41
-54
-288
-215
-333
-414
-260
-201
-288
-158
-15
-201
-73
174
-284
-524
-357
-383
-434
-367
-216
-176
-292
-66
149
-89
-32
1
-139
9
44
-165
-10
239
107
41
212
361
104
45
274
3
-171
113
25
-426
-384
-247
-443
-442
-465
-497
-357
-189
-409
-652
-19
911
2179
4305
6135
6027
4268
2297
1012
675
409
-302
-355
-106
-265
-465
-530
-392
-540
-750
-642
-679
-832
-549
-417
-676
-531
-412
-674
-773
-603
-495
-422
-428
-618
-787
-719
-461
-407
-392
-128
-301
-650
-322
-277
-470
-57
161
-32
64
297
342
403
677
754
427
525
687
453
316
385
443
293
326
295
-106
-195
-48
-262
-336
-35
-265
-571
-264
-341
-608
-372
-186
-207
-220
-428
-557
-312
-227
-319
-371
-344
-217
-377
-438
-227
-188
-231
-226
-238
-388
-291
-59
-247
-307
55
-204
-558
-86
-68
-407
-39
-11
-523
-393
-209
-368
-319
-171
-201
-315
-127
-97
-296
-232
-214
-273
-417
-316
-60
-368
-361
-82
-90
195
302
140
-46
-74
257
212
118
251
205
128
34
106
91
9
-108
-230
-103
-150
-373
-492
-417
-458
-461
-207
-229
-466
-525
-268
-23
966
2748
4400
5984
6157
4109
1766
893
766
425
-11
-127
-338
-699
-630
-584
-739
-549
-520
-915
-816
-669
-755
-716
-659
-566
-674
-612
-513
-741
-619
-281
-484
-787
-569
-473
-526
-353
-436
-614
-437
-201
-100
-214
-166
-142
-316
-30
322
176
155
512
606
466
566
873
664
490
702
520
340
281
199
121
6
-117
-279
-301
-286
-361
-312
-182
-199
-224
-220
-262
-353
-402
-399
-395
-306
-232
-227
-359
-416
-356
-365
-232
-225
-464
-326
-143
-347
-382
-291
-164
-141
-338
-203
-128
-317
-198
-117
-271
-284
-202
-283
-241
228
-252
-801
-168
-142
-284
-90
-314
-414
-174
-234
-423
-244
45
-138
-432
-329
-248
-228
-291
-293
-305
-270
-156
-316
-279
70
140
-203
-75
122
-29
49
157
252
114
235
428
107
83
309
95
-51
67
-122
-225
-32
-91
-412
-495
-242
7
-154
-395
-390
-390
-380
-238
52
976
2736
4460
5760
5933
3837
1580
963
636
68
-121
-9
-290
-671
-531
-467
-635
-583
-552
-578
-530
-335
-378
-708
-719
-498
-416
-522
-560
-416
-253
-171
-528
-810
-407
-314
-472
-288
-180
-466
-504
-131
-147
-336
-124
-2
-99
298
592
350
300
487
456
531
823
682
369
420
559
489
453
475
227
133
82
-2
11
25
-45
-408
-324
-130
-352
-514
-274
-290
-488
-103
-178
-447
-129
-91
-311
-217
-147
-271
-541
-357
-30
-458
-432
-78
-262
-168
-20
-231
-310
-155
-60
-121
71
-40
-506
-281
-112
-292
-233
-165
-169
-161
-302
-322
-247
-382
-182
-14
-122
-186
-188
-229
-259
-119
-145
-313
-359
-108
-200
-375
2
-280
-424
92
28
14
194
44
-159
47
300
226
304
161
27
373
391
170
203
211
86
-113
-87
-8
-229
-344
-180
-339
-468
-250
-314
-493
-421
-214
-360
-222
474
1446
3219
5258
6194
5150
3089
1575
948
639
256
-27
-315
-426
-367
-450
-404
-567
-834
-707
-434
-586
-893
-568
-492
-660
-586
-461
-469
-543
-562
-634
-629
-602
-493
-395
-287
-356
-525
-489
-369
-368
-373
-174
-91
-22
64
-88
2
123
337
598
439
618
766
551
574
704
560
500
722
458
-111
-60
289
55
-137
183
-69
-358
-7
-210
-540
-257
-233
-483
-373
-174
-232
-282
-92
-200
-340
-96
-124
-425
-478
-261
-262
-236
-221
-313
-195
-106
-201
-312
-183
-54
-113
-236
-298
-197
-130
-88
-32
-298
-353
-77
-224
-254
83
-81
-446
-273
-85
-294
-301
-177
-235
-259
-198
-190
-315
-248
-238
-373
-187
21
-196
-360
-165
-128
-228
36
243
47
-27
249
102
-32
468
457
16
112
320
102
126
333
151
40
35
-45
-121
-397
-406
-179
-308
-315
-364
-537
-329
-236
-423
-247
381
1343
3039
5211
6380
5620
3587
1590
845
708
285
-38
-397
-502
-449
-572
-455
-451
-610
-691
-688
-645
-545
-468
-696
-613
-409
-499
-570
-622
-547
-720
-724
-323
-464
-683
-446
-435
-666
-457
-143
-466
-389
33
-311
-329
122
114
61
169
277
308
595
878
521
373
720
760
489
445
575
521
282
183
123
-124
-102
2
-225
-210
-235
-433
-195
-119
-447
-441
-161
-277
-404
-97
-195
-519
-448
-225
-180
-451
-348
-16
-231
-252
-94
-403
-197
45
-359
-225
-38
-241
-360
-211
-34
-277
-124
123
-275
-461
-253
-175
-234
-47
-86
-474
-322
-79
-201
-211
-83
-244
-388
-123
-199
-442
-255
-95
-98
-115
-63
64
-59
-261
-1
114
2
137
173
123
308
338
69
140
239
129
210
274
24
-219
-108
-199
-501
-265
-100
-317
-462
-539
-285
-145
-128
-274
-437
337
1669
3350
5336
6444
5270
2746
1336
891
377
114
-111
-388
-325
-361
-580
-691
-679
-483
-475
-618
-659
-797
-541
-322
-570
-612
-556
-560
-757
-538
-185
-590
-656
-304
-372
-544
-402
-211
-530
-475
-239
-384
-138
-64
-216
-111
119
359
457
404
304
406
585
614
660
546
644
797
547
415
583
377
73
201
-38
-306
-126
-145
-418
-300
-70
-162
-303
-134
-95
-362
-343
-378
-371
-180
-242
-400
-204
-36
-295
-403
-171
-170
-415
-361
-110
-278
-186
53
-238
-236
-60
-307
-362
1
-153
-315
-114
-155
-286
-158
-45
-195
-209
-239
-140
-79
-302
-195
-177
-249
-184
-263
-343
-317
-264
-462
-278
-39
-344
-283
2
-55
-99
72
6
-148
57
23
-78
35
119
303
185
254
328
104
308
263
-77
39
36
-132
-127
-335
-400
-386
-373
-143
-289
-487
-190
-156
-477
-174
399
1162
3023
5064
5939
5314
3398
1585
841
656
278
-110
-61
-338
-700
-538
-577
-770
-701
-552
-567
-685
-569
-471
-624
-587
-421
-371
-619
-830
-545
-444
-558
-609
-624
-381
-247
-570
-602
-324
-332
-238
-101
-225
-294
-169
163
281
26
278
398
165
462
808
662
569
799
728
585
654
563
374
333
365
176
-139
-27
-42
-341
-194
-63
-395
-372
-78
-244
-262
-86
-298
-444
-59
-61
-514
-388
-175
-351
-357
-55
-133
-389
-281
-52
-109
-92
-65
-264
-143
-148
-111
-173
-528
-233
22
-123
13
-142
-352
-24
-59
-334
-169
-101
-356
-378
-111
-50
-112
-71
-259
-512
-444
-104
-97
-331
-194
-307
-437
-204
-107
-183
-272
-239
-128
-182
-192
-251
-383
-269
-296
-232
-293
-302
-139
-289
-203
-311
-353
-151
-208
-63
-59
-186
-172
-19
245
46
84
513
283
-37
146
260
226
156
142
163
306
192
-191
-125
-227
-292
-157
-410
-411
-192
-359
-344
-199
-290
-417
-197
188
956
2872
4801
6061
6113
3993
1770
1086
684
132
-51
-121
-314
-413
-517
-596
-620
-412
-566
-964
-726
-507
-573
-729
-698
-487
-603
-525
-362
-624
-656
-369
-478
-955
-751
-273
-353
-508
-474
-391
-201
-144
-394
-384
-169
-3
78
127
314
269
416
703
487
461
704
698
628
709
664
521
444
411
297
118
225
123
-116
-38
-36
-226
-315
-278
-273
-357
-290
-200
-353
-211
-132
-356
-348
-203
-329
-469
-240
-122
-271
-342
-273
-267
-202
-199
-360
-318
-103
-7
-282
-306
-146
-374
-209
90
-254
-409
-43
-167
-420
-199
-152
-91
-46
-143
-207
-293
-207
-146
-270
-225
-149
-323
-234
-74
-279
-294
-133
-213
-399
-235
-115
-254
-120
-109
-283
-298
-185
-194
-292
-144
77
15
-31
130
71
-38
214
484
337
113
237
227
198
344
139
89
245
-133
-271
1
-92
-354
-341
-50
-217
-625
-376
-98
-254
-228
-311
-267
621
1879
3595
5606
6457
5199
2725
1338
1132
555
94
66
-229
-488
-497
-358
-391
-626
-530
-675
-832
-509
-530
-673
-579
-624
-630
-504
-404
-565
-618
-404
-516
-531
-428
-331
-455
-516
-351
-576
-524
-92
-33
-347
-257
-35
-123
19
316
321
376
689
727
501
639
925
661
706
888
476
387
508
352
134
207
167
73
246
75
-328
-303
-197
-511
-478
-182
-247
-252
-211
-297
-311
-200
-207
-390
-313
-115
-104
-299
-330
-197
-358
-368
-93
-90
-259
-216
-224
-339
-130
-97
-366
-228
79
95
-316
-253
186
-204
-328
-110
-321
-332
-137
-105
-198
-94
-154
-465
-98
91
-371
-253
-61
-351
-307
40
-169
-352
-91
-63
-91
13
168
126
-96
266
549
191
98
243
93
-13
108
90
52
66
145
-108
-403
-360
-361
-237
-220
-281
-305
-367
-413
-451
-351
-113
524
1775
3682
5437
5992
4967
2534
793
679
513
-87
-182
28
-336
-705
-509
-484
-692
-525
-547
-878
-594
-423
-701
-615
-432
-652
-797
-364
-215
-622
-572
-336
-559
-648
-451
-604
-637
-251
-184
-199
-303
-408
-209
-380
-172
192
-20
121
454
436
404
658
644
505
626
658
523
586
714
451
289
349
241
-40
-82
16
-203
-372
-245
-211
-248
-99
-307
-462
-216
-366
-387
-272
-337
-415
-471
-350
-286
-183
-111
-153
-246
-245
-263
-499
-465
-214
-167
-369
-215
-61
-381
-250
27
-122
-43
-109
-433
-358
-279
-200
-273
-222
-9
-214
-422
-347
-190
-327
-271
-37
-249
-328
-251
-325
-343
-244
-193
-317
-184
-104
-356
-374
-150
-252
-214
28
-227
-187
167
78
-42
114
156
208
345
216
90
158
115
8
174
148
-73
-100
-179
-91
-293
-526
-222
-223
-489
-518
-310
-357
-440
-114
-41
482
2036
3790
5202
5875
5070
2788
1088
787
450
37
165
-194
-692
-476
-376
-785
-938
-525
-677
-848
-410
-504
-762
-571
-508
-693
-767
-423
-310
-718
-624
-550
-763
-609
-431
-502
-481
-274
-594
-793
-303
-228
-368
25
39
-324
-52
224
229
294
378
662
663
381
605
712
519
683
765
318
180
370
120
-43
74
67
-162
-212
-293
-540
-211
-39
-530
-563
-248
-327
-582
-369
-37
-292
-316
-265
-329
-18
-213
-529
-384
-349
-398
-251
-208
-286
-386
-432
-107
-111
-326
-127
-52
-199
-238
-248
-339
-319
-150
-140
-297
-238
-62
-213
-358
-272
-267
-227
-90
-352
-335
-87
-406
-431
-137
-99
-346
-406
-53
-123
-394
-164
-87
-278
-110
-174
-253
94
138
-32
-227
-99
102
-8
84
126
-19
258
437
97
61
301
150
-62
123
270
28
-67
43
-169
-450
-263
-52
-424
-379
-151
-559
-496
-333
-618
-346
415
1025
2541
4813
6261
6254
4194
1811
1107
817
208
-105
-142
-148
-472
-805
-651
-474
-638
-737
-484
-484
-749
-689
-527
-742
-719
-384
-534
-725
-630
-498
-579
-594
-471
-546
-420
-319
-495
-356
-392
-605
-421
-247
-23
13
-24
271
24
-113
397
464
384
753
742
527
758
789
580
505
741
473
-166
239
421
-174
-98
182
-80
-247
-129
-267
-517
-400
-394
-539
-292
-55
-136
-255
-336
-440
-450
-396
-374
-431
-326
62
-254
-700
-230
-197
-478
-301
-89
-379
-387
39
-169
-406
-341
-12
-188
-451
-32
-178
-394
-206
-217
-213
-85
-183
-359
-235
-254
-462
-186
-62
-375
-178
-234
-542
-285
-61
-57
-288
-348
-153
-290
-200
58
-208
-281
-140
-40
-63
-112
276
153
-194
129
299
151
306
419
213
164
255
186
10
117
16
-200
-40
-250
-536
-382
-329
-460
-251
-113
-226
-393
-376
-333
-227
698
2130
4052
5891
6327
4845
2357
1030
710
442
267
-6
-309
-571
-492
-446
-701
-556
-431
-674
-664
-570
-450
-566
-725
-539
-788
-623
-198
-511
-547
-478
-743
-501
-157
-431
-578
-488
-465
-431
-388
-239
-256
-322
-33
-21
-163
266
473
319
444
515
322
546
931
749
608
659
669
653
478
428
292
-50
23
116
-63
-160
-154
-280
-224
-72
-488
-545
-81
-179
-418
-290
-243
-360
-356
-195
-319
-346
-188
-341
-330
-205
-223
-307
-404
-345
-387
-436
22
119
-480
-313
-107
-480
-392
-129
-186
-95
92
-366
-524
-128
12
-201
-341
-154
-354
-472
-41
46
-350
-309
-204
-495
-295
-125
-308
-181
-34
-268
-224
-48
-315
-215
-176
-216
46
32
81
83
98
384
121
-179
185
318
103
85
242
267
-186
-245
23
-429
-549
-281
-303
-361
-299
-292
-388
-276
-230
-341
-163
653
2102
3708
5321
5968
4391
2193
1094
523
161
67
-213
-400
-391
-755
-694
-368
-641
-699
-482
-540
-658
-649
-528
-570
-818
-352
-340
-1124
-638
-260
-705
-650
-321
-411
-623
-406
-399
-504
-458
-477
-346
-285
-275
48
5
-37
204
-48
222
625
348
393
711
656
599
764
816
637
413
435
268
123
232
-46
-322
-140
-34
-148
-244
-241
-119
-303
-357
-254
-583
-532
-283
-522
-431
-171
-291
-244
-173
-214
-391
-279
-198
-474
-328
-170
-319
-511
-366
-190
-143
-77
-290
-393
-192
-113
-280
-424
-295
-74
-154
-187
-138
-283
-157
-156
-312
-196
-291
-439
-433
-130
-72
-352
-218
-179
-367
-452
-307
-114
-235
-266
-177
-452
-482
-76
-229
-455
35
44
-214
144
131
-85
116
132
-42
23
276
309
179
28
-41
-95
-154
56
85
-111
-228
-360
-432
-372
-235
-364
-391
-119
-475
-730
-329
-130
275
1410
3060
4967
6307
5695
3298
1426
1134
769
-186
-178
181
-537
-762
-346
-791
-865
-470
-559
-708
-588
-470
-709
-877
-604
-483
-631
-475
-560
-819
-408
-379
-945
-778
-537
-628
-515
-398
-436
-528
-267
-94
-427
-294
0
-95
142
296
-62
9
494
657
619
533
707
751
613
592
482
572
533
305
56
-57
74
99
-13
-161
-312
-538
-421
-224
-478
-480
-137
-323
-503
-296
-289
-457
-256
-2
-500
-510
-335
-645
-400
25
-145
-419
-282
-177
-292
-511
-377
-298
-498
-219
-234
-491
-170
-28
-395
-520
-198
-68
-146
-124
-246
-437
-322
-187
-334
-463
-362
-193
-255
-298
-263
-479
-214
52
-341
-380
-165
-204
-378
-301
-30
-251
-421
-281
-419
-395
-148
-187
-197
-30
-44
-26
108
174
-50
-153
122
236
310
119
117
301
110
133
157
27
101
-133
-363
-97
-324
-604
-266
-188
-392
-152
-81
-601
-578
-206
56
633
2119
4265
5938
6370
4733
2376
1280
932
511
179
-38
-192
-266
-353
-521
-669
-653
-491
-580
-724
-374
-270
-758
-700
-308
-446
-590
-458
-460
-742
-648
-550
-696
-495
-405
-553
-463
-210
-303
-563
-324
-112
-320
-135
118
48
77
93
285
357
421
683
562
602
969
860
551
696
695
483
501
416
159
41
-28
-291
-256
63
-68
-445
-429
-165
-203
-268
-80
-208
-472
-395
-345
-488
-278
-85
-394
-248
9
-400
-483
-168
-241
-298
-211
-240
-245
-328
-316
-223
-245
-67
56
-239
-420
-242
-211
-211
48
-103
-419
-105
82
-251
-273
-112
-217
-158
-47
-81
-210
-314
-164
-250
-300
-175
-226
-236
-1
176
-211
-350
-173
-313
-267
-148
-256
-194
-9
-104
-150
156
134
128
479
98
-234
201
422
239
168
394
350
90
234
399
191
-133
-146
-91
-252
-102
-119
-382
-249
-227
-378
-279
-80
-239
-449
24
725
1636
3558
5554
6264
5254
2929
1333
836
527
278
-37
-118
-247
-481
-538
-585
-497
-535
-703
-651
-532
-438
-423
-521
-527
-466
-525
-707
-602
-350
-503
-481
-428
-750
-701
-309
-420
-587
-129
-125
-420
-190
-78
-98
148
196
-104
-151
340
668
540
754
846
567
665
821
674
635
790
640
423
575
410
-19
-162
-14
92
-156
-168
-130
-363
-253
-166
-353
-372
-129
-190
-564
-320
-267
-538
-214
-55
-364
-446
-166
-88
-265
-278
-249
-345
-281
-183
-207
-300
-98
103
-547
-575
52
-218
-341
41
-42
7
-67
-515
-360
-80
-134
-271
-235
-130
-170
-261
-200
-58
-112
-214
-193
-248
-190
-173
-317
-208
-217
-285
-290
-136
-60
-216
25
187
53
74
279
259
178
184
-15
130
329
202
-49
-184
135
141
-142
-113
-80
-256
-397
-343
-414
-438
-167
-133
-605
-606
-212
-17
903
2426
3939
5655
6280
4320
1742
898
771
108
-122
71
-238
-514
-411
-599
-709
-398
-584
-874
-635
-597
-644
-554
-502
-321
-595
-738
-508
-573
-598
-488
-510
-592
-605
-633
-649
-432
-261
-370
-200
-43
-266
-421
-249
-157
-98
183
334
228
357
828
726
506
711
598
424
626
713
514
485
498
265
217
268
-87
-360
-253
-295
-354
-242
-305
-382
-281
-246
-240
-232
-212
-401
-619
-375
-209
-304
-266
-216
-373
-486
-337
-169
-327
-419
-231
-231
-324
-361
-328
-158
-193
-322
-305
-279
-209
-272
-293
-196
-225
-184
-188
-288
-308
-167
-59
-325
-362
-155
-329
-493
-269
-198
-373
-288
42
-256
-660
-60
-178
-636
-174
-183
-417
-206
-63
-144
-113
53
-3
-1
243
69
-72
231
69
-51
235
341
166
-101
-81
20
-95
-216
-272
-306
-303
-376
-343
-372
-373
-378
-686
-589
-354
-359
188
1370
2897
4666
6266
5991
3675
2037
1401
648
-92
-233
-199
-536
-429
-287
-610
-859
-759
-660
-623
-666
-891
-642
-634
-785
-509
-478
-481
-764
-989
-612
-376
-508
-785
-802
-552
-473
-453
-549
-568
-393
-394
-539
-324
-23
-175
-32
239
148
233
568
556
429
609
597
575
620
859
937
207
222
398
10
80
-24
-363
-417
-222
-153
-335
-251
-123
-375
-482
-232
-406
-427
17
-446
-808
-485
-494
-529
-219
-170
-515
-347
-178
-440
-380
-269
-392
-429
-398
-276
-362
-490
-333
-293
-215
-199
-364
-222
-141
-315
-492
-450
-108
-182
-389
-259
-260
-419
-224
-115
-520
-434
-97
-377
-434
-119
-372
-538
-209
-244
-326
-180
-210
-322
-404
-143
150
-141
-192
-3
-105
-69
-22
71
47
134
410
65
85
375
21
-19
44
-196
-452
-136
126
-354
-365
-217
-537
-506
-194
-472
-702
-269
-213
-646
-269
564
1605
3493
5329
6297
5546
3173
1298
744
457
31
-183
-165
-296
-666
-772
-587
-633
-886
-706
-552
-886
-886
-574
-615
-810
-676
-600
-761
-574
-487
-622
-540
-656
-833
-836
-617
-428
-512
-440
-353
-418
-245
-223
-454
-267
251
214
-78
245
252
276
770
616
528
770
775
709
508
582
709
366
226
281
129
185
127
-233
-463
-379
-326
-419
-271
-238
-295
-215
-248
-487
-593
-264
-180
-462
-490
-280
-277
-515
-390
-277
-502
-430
-194
-426
-429
-309
-519
-251
56
-268
-475
-52
-149
-526
-310
-120
-304
-512
-316
-345
-400
-119
-193
-220
-134
-427
-456
-147
-195
-398
-368
-118
-157
-333
-133
-152
-450
-495
-365
-197
-284
-288
-157
-242
-177
-24
8
35
131
-144
-162
284
268
41
-33
184
260
-2
102
154
-153
-243
-126
-185
-342
-494
-458
-207
-256
-375
-581
-563
-240
-369
-259
288
1066
2624
4618
5897
5522
3531
1465
493
332
210
-93
-167
-306
-504
-590
-835
-638
-379
-550
-611
-804
-862
-615
-504
-602
-536
-523
-812
-647
-486
-546
-510
-516
-619
-599
-358
-505
-670
-434
-238
-351
-291
-149
-330
-295
-28
90
30
56
330
438
509
788
641
466
817
855
530
575
671
431
307
172
-45
25
-90
-217
-144
-299
-215
-197
-349
-257
-450
-583
-412
-270
-316
-366
-278
-430
-467
-71
-251
-736
-381
-191
-416
-233
-129
-444
-580
-265
-182
-128
4
-349
-570
-516
-201
49
-323
-402
-352
-371
-73
-93
-348
-247
-134
-384
-357
-55
-186
-456
-404
-251
-195
-384
-321
-92
-329
-243
-132
-395
-301
-125
-289
-266
-76
-223
-184
14
105
185
80
66
45
82
353
314
25
80
127
14
71
-126
-430
-275
-15
-158
-497
-395
-166
-400
-406
-263
-437
-435
-317
-356
111
1243
2783
4691
6220
6043
3750
1624
1096
558
-32
212
-196
-636
-248
-464
-902
-765
-532
-749
-888
-659
-629
-646
-449
-425
-626
-725
-582
-694
-923
-439
-322
-774
-573
-479
-749
-693
-328
-383
-656
-368
-342
-339
-117
-238
-192
162
233
248
303
125
211
490
739
878
659
494
685
558
445
611
414
137
15
-154
-228
-38
-117
-258
-355
-490
-377
-455
-217
-192
-600
-383
-123
-374
-384
-172
-508
-516
-218
-446
-475
-246
-425
-591
-409
-303
-367
-309
-298
-291
-139
-198
-355
-420
-421
-414
-307
-349
-369
-114
-150
-323
-315
-311
-386
-271
-20
-165
-473
-521
-565
-424
-150
-295
-374
-202
-191
-404
-304
-167
-381
-251
-125
-356
-461
-94
-14
-233
13
94
-61
-71
-115
-7
101
278
317
35
104
1
-78
145
148
-153
-353
-127
-194
-464
-431
-279
-378
-465
-210
-304
-512
-295
-370
-359
470
1857
3752
5688
6399
5054
2651
1394
1099
581
259
26
-401
-540
-566
-828
-925
-655
-443
-797
-875
-631
-782
-630
-386
-588
-698
-571
-542
-771
-687
-574
-745
-543
-607
-790
-602
-508
-495
-472
-253
-319
-566
-339
-91
-237
-253
210
374
238
398
457
373
504
744
902
624
547
527
375
610
415
71
178
83
-120
-142
-188
-269
-456
-467
-332
-362
-444
-338
-244
-588
-384
-81
-637
-556
-80
-157
-419
-337
-373
-705
-455
-306
-477
-378
-264
-357
-398
-208
-142
-380
-364
-316
-324
-35
-109
-309
-366
-308
-357
-440
-165
-258
-321
-170
-299
-365
-289
-162
-200
-323
-280
-299
-369
-148
-84
-294
-84
72
-332
-405
58
-165
-570
-303
-210
-289
-66
81
-174
-172
98
-157
-113
319
376
188
66
322
97
-193
279
250
-155
15
103
-147
-219
-187
-198
-421
-657
-478
-360
-351
-190
-362
-611
-106
312
855
2600
4554
6206
6460
4194
1768
827
532
201
-109
-12
-73
-623
-809
-477
-486
-570
-535
-685
-656
-628
-694
-694
-514
-291
-614
-791
-633
-756
-694
-347
-310
-525
-486
-566
-755
-677
-536
-355
-300
-241
-72
-195
-123
8
-93
182
440
224
249
699
779
533
599
902
772
578
776
623
379
417
298
89
147
109
-163
-11
-47
-397
-512
-324
-240
-451
-281
-171
-447
-450
-237
-293
-340
0
-128
-763
-659
-303
-250
-296
-216
-274
-475
-265
-152
-283
-248
-235
-507
-373
-147
-314
-202
-198
-324
-226
-173
-244
-509
-445
24
-210
-464
-155
-106
-67
-33
-226
-215
-193
-389
-503
-465
-335
-206
-194
-106
-77
-410
-427
-140
-215
-128
16
-165
-6
147
78
23
-90
252
313
14
165
188
132
210
246
-51
-246
69
201
-127
-305
-224
-340
-373
-331
-533
-634
-275
-219
-442
-115
385
1072
2761
4805
5955
5726
3595
1224
627
590
118
-57
-36
-263
-461
-588
-478
-529
-720
-582
-561
-751
-739
-424
-504
-594
-347
-427
-739
-721
-523
-617
-330
-230
-543
-499
-519
-408
-362
-505
-404
-427
-412
-72
9
-203
85
259
-59
200
505
510
717
773
596
672
795
661
711
736
585
339
303
297
79
125
164
-139
-483
-360
-127
-249
-291
-36
-236
-488
-247
-259
-428
-358
-232
-166
-148
-351
-533
-445
-206
-234
-354
-155
-155
-400
-281
-135
-398
-319
3
-211
-378
-154
-345
-528
-234
-57
-188
-303
-128
-281
-434
-218
-213
-95
120
-208
-512
-345
-191
-193
-180
-112
-290
-374
-233
-164
-226
-350
-178
-142
-376
-257
-83
-184
-254
-146
-155
-103
168
52
-205
-92
140
171
139
383
337
78
326
288
-103
83
131
-134
-38
-102
-159
-192
-432
-288
-350
-409
-72
-337
-693
-157
-110
-566
255
1347
2730
4849
6214
5937
4068
2183
1285
733
369
48
-343
-292
-405
-846
-654
-435
-667
-604
-420
-582
-695
-538
-622
-854
-614
-337
-589
-737
-545
-564
-659
-432
-411
-571
-437
-530
-569
-314
-204
-387
-380
-166
-379
-371
-61
219
128
51
495
588
433
563
713
708
865
1157
748
451
742
462
73
309
278
-165
-207
-138
-248
-266
-158
-287
-427
-270
-111
-212
-295
-313
-313
-362
-383
-331
-471
-417
-262
-301
-177
15
-334
-715
-376
-121
-267
-203
-267
-512
-309
-96
-243
-365
-258
-175
-391
-283
-63
-234
-256
-168
-446
-294
174
-96
-369
-179
-80
-321
-395
-126
-178
-349
-49
-77
-308
-102
-256
-541
-236
93
-135
-306
-145
-110
-63
-72
-169
-118
95
171
-35
3
264
241
196
264
209
196
199
42
120
187
-59
90
161
-162
-422
-521
-384
-281
-339
-283
-213
-462
-571
-323
15
763
2236
4132
5841
6361
5016
2596
1143
955
549
224
60
-344
-681
-754
-518
-426
-529
-629
-591
-589
-642
-534
-542
-721
-471
-408
-879
-630
-340
-606
-601
-555
-658
-419
-244
-490
-595
-389
-300
-546
-462
-93
-64
-81
-40
-107
87
512
445
165
452
662
460
781
1065
781
618
693
651
569
625
371
60
108
51
-207
-243
-10
-22
-419
-410
-146
-307
-409
-245
-296
-364
-155
-198
-452
-270
-231
-490
-385
-86
-210
-498
-267
-224
-390
-232
-128
-407
-496
-159
-219
-287
-88
-256
-440
-287
-188
-190
-239
-223
43
-162
-427
-202
-292
-132
-118
-429
-381
-150
-38
-212
-137
-140
-359
-222
-8
-131
-264
-264
-236
-290
-99
143
9
240
301
-202
-90
323
213
100
291
413
44
-136
281
203
-82
4
-56
-198
-182
-276
-428
-315
-129
-251
-469
-263
-118
-341
-347
-158
36
1004
2919
4679
5962
5774
3477
1433
982
849
118
-225
-13
-367
-707
-500
-521
-752
-610
-440
-544
-638
-467
-518
-793
-576
-575
-653
-384
-550
-763
-676
-542
-536
-522
-313
-172
-436
-484
-366
-660
-355
-12
-143
30
-12
-271
-164
126
462
526
405
523
679
758
829
805
647
599
687
566
458
460
212
13
-29
-75
-211
-135
-141
-416
-148
145
-414
-589
-205
-404
-385
-239
-236
-407
-608
-269
-268
-380
-93
-257
-559
-321
-114
-371
-480
-209
-278
-479
-273
-22
-204
-367
-170
-202
-361
-159
-164
-414
-248
-231
-399
-162
-85
-308
-254
-41
-77
-226
-253
-159
-218
-362
-238
-317
-452
-255
-13
-186
-297
-176
-285
-193
-136
-249
-244
-159
137
159
-67
135
176
-122
-13
269
266
461
436
-105
-45
187
7
91
237
-33
-211
-269
-500
-295
-44
-380
-555
-196
-190
-509
-474
-74
208
441
2094
4308
5804
6378
4978
2585
1375
1051
376
-109
-16
-16
-620
-671
-174
-660
-830
-436
-735
-873
-517
-558
-730
-533
-436
-693
-611
-404
-664
-537
-454
-703
-458
-270
-610
-808
-545
-349
-383
-466
-267
-118
-280
-201
27
-147
44
556
190
206
641
441
440
774
795
549
642
858
800
585
449
446
146
-58
62
-65
-345
-346
-271
-204
-98
-328
-567
-329
-110
-392
-453
-119
-200
-481
-215
-123
-467
-504
-396
-430
-361
-157
-256
-438
-360
-243
-179
-333
-353
-140
-368
-264
49
-286
-417
-337
-370
-211
-110
-401
-296
155
-253
-596
-201
-130
-269
-36
-63
-531
-347
-42
-275
-316
-184
-103
-223
-146
23
-240
-489
-278
-68
-224
-61
153
52
216
317
43
45
262
245
71
132
169
87
207
248
-23
-246
-35
-48
-362
-320
-167
-313
-327
-276
-321
-280
-347
-428
-281
44
841
2484
4643
6321
6145
4428
2587
1258
589
367
27
-358
-249
-208
-725
-807
-485
-649
-638
-448
-520
-622
-695
-552
-495
-582
-417
-282
-587
-848
-681
-488
-509
-551
-545
-564
-386
-424
-565
-318
-324
-493
-224
-91
-302
-258
143
209
96
330
450
518
690
853
571
466
911
871
667
606
521
349
260
254
-38
-135
120
-117
-424
-227
-169
-329
-504
-191
-151
-414
-202
-306
-376
-239
-391
-428
-295
-307
-434
-319
-199
-283
-311
-367
-188
-154
-124
-91
-414
-428
-191
-230
-468
-282
-230
-415
46
13
-372
-254
-300
-324
-330
-99
82
-279
-318
15
-130
-415
-313
-344
-236
-152
-149
-162
-230
-208
-503
-314
-29
-215
-149
-61
-74
59
159
97
-93
129
561
266
-144
-9
219
146
137
263
57
-64
46
-226
-317
-36
-205
-306
-179
-343
-495
-422
-362
-399
-347
-99
342
1115
2697
4732
6090
5729
3760
1738
738
516
265
-65
-69
-329
-613
-356
-535
-625
-580
-625
-439
-490
-615
-555
-635
-833
-541
-390
-635
-491
-450
-775
-612
-395
-497
-513
-457
-402
-446
-432
-212
-164
-323
-387
-418
-253
149
133
70
354
443
407
445
592
633
549
760
752
568
751
591
374
546
491
132
-97
-14
-82
-247
-122
-312
-428
-152
-375
-576
-286
-200
-331
-171
-175
-438
-440
-136
-30
-672
-758
-144
-209
-471
-111
-109
-515
-317
-95
-162
-149
-210
-416
-474
-306
-98
-176
29
77
-416
-393
-244
-232
-237
-250
-166
-303
-346
-198
-254
-155
19
-152
-355
-279
-178
-339
-298
-120
-249
-142
-58
-342
-348
-94
-65
-234
-17
105
-169
-106
111
51
108
224
142
67
259
539
136
-59
349
239
-94
-11
-15
-386
-416
-241
-336
-467
-184
-198
-601
-196
-113
-598
-173
633
1305
2718
4904
6490
5988
3725
1752
1029
739
335
-52
-213
-173
-438
-584
-459
-555
-608
-525
-578
-704
-616
-497
-504
-647
-667
-423
-460
-680
-562
-618
-721
-526
-455
-409
-408
-515
-756
-696
-353
-430
-238
72
-257
-319
-44
-5
11
176
386
434
422
645
716
730
692
422
581
694
542
574
278
54
159
1
16
-8
-268
-286
-177
-480
-669
-148
-130
-318
-212
-295
-407
-358
-175
-362
-394
-145
-413
-539
-169
-54
-322
-474
-393
-369
-402
-304
-253
-265
-183
-366
-469
-214
-103
-146
-309
-391
-267
-312
-232
24
-18
-38
-167
-451
-592
-450
-207
-306
-257
-115
-121
-188
-354
-378
-258
-127
-310
-240
-56
-405
-486
-354
-199
-166
-348
-176
-195
-503
-221
-62
-412
-385
-90
-175
-162
87
109
-11
134
216
-16
87
233
200
40
140
246
-16
-31
5
7
63
-43
-75
-288
-488
-452
-366
-203
-471
-595
-321
-284
-480
-228
692
2021
3910
5889
6620
5007
2726
1690
1011
177
98
159
-408
-433
-412
-687
-538
-486
-697
-843
-758
-533
-646
-735
-526
-748
-709
-522
-678
-548
-353
-373
-588
-681
-516
-754
-802
-351
-462
-415
-381
-501
-295
-253
-182
-154
-60
193
182
357
641
484
416
484
571
707
835
848
627
544
536
343
338
378
159
-130
-277
-179
-266
-383
-134
-67
-345
-280
-203
-311
-306
-455
-531
-363
-169
-266
-435
-382
-282
-363
-323
-286
-440
-383
-372
-359
-351
-233
-48
-235
-275
-25
-244
-563
-265
-247
-513
-187
-83
-235
-288
-328
-167
0
-14
-207
-198
-96
-83
-270
-439
-262
-323
-381
-129
-234
-532
-400
-176
-302
-279
-57
-184
-312
-134
-158
-436
-256
-66
-207
-78
-132
-103
150
125
126
34
105
541
278
79
296
76
21
40
-141
-184
-4
-181
-325
-224
-278
-278
-427
-291
-221
-454
-102
-152
-608
-53
1323
2776
4348
6085
6033
3650
1627
905
431
220
105
-257
-357
-278
-522
-701
-595
-544
-739
-720
-406
-539
-733
-605
-518
-548
-494
-491
-692
-692
-490
-443
-594
-522
-264
-533
-575
-380
-660
-501
-160
-301
-323
-177
-127
-93
45
309
328
463
718
498
384
585
633
633
959
1066
418
280
545
302
442
561
119
-274
-211
-107
-252
-263
-309
-322
-268
-333
-281
-311
-432
-232
-170
-324
-306
-395
-339
-164
-281
-380
-290
-378
-433
-276
-260
-260
-245
-225
-530
-374
180
-63
-535
-477
-228
-283
-306
-111
-164
-334
-144
-81
-315
-400
-178
-140
-124
42
-317
-541
-269
-219
-406
-323
-123
-171
-119
-232
-419
-248
-142
-86
-151
-178
-91
-280
-174
169
140
-6
182
153
-158
166
425
126
146
364
46
-152
85
-47
-201
-198
-148
-186
-412
-318
-403
-395
-179
-321
-537
-446
42
280
442
1703
3645
5236
5965
4783
2449
1032
642
245
6
-36
-264
-474
-523
-369
-622
-791
-547
-681
-752
-515
-565
-648
-360
-382
-742
-660
-421
-575
-569
-467
-529
-537
-743
-639
-410
-437
-410
-431
-331
-54
-168
-421
-193
-13
0
199
280
95
233
600
552
408
554
804
667
527
773
632
287
325
311
72
197
381
-147
-331
13
-340
-624
-472
-357
-207
-130
-284
-529
-416
-261
-462
-356
-189
-404
-505
-419
-340
-425
-229
-128
-546
-531
-314
-127
32
-284
-299
-333
-616
-238
-135
-299
-143
-252
-426
-315
-125
-216
-330
-154
-234
-415
-130
-67
-473
-471
-177
-219
-236
-108
-258
-417
-277
-352
-340
-102
-280
-446
-301
-161
-418
-435
-176
-230
-179
-174
-139
-106
-111
75
106
-175
-8
459
157
-37
262
130
136
264
43
-61
-71
-160
-355
-207
-125
-496
-504
-363
-259
-340
-276
-10
-464
-599
-142
143
1214
3036
4690
6028
5877
3844
1952
1145
723
169
-132
-229
-430
-421
-523
-633
-650
-540
-444
-643
-595
-489
-632
-906
-549
-76
-628
-787
-412
-670
-732
-460
-609
-815
-546
-281
-575
-410
-231
-750
-521
-282
-516
-225
42
-7
-58
132
297
282
377
593
342
213
797
827
540
714
719
372
407
487
205
94
-87
-362
-264
36
-160
-476
-306
-219
-394
-461
-339
-259
-234
-420
-455
-326
-447
-361
-194
-322
-348
-291
-463
-456
-318
-302
-149
-366
-525
-372
-380
-264
-261
-43
-68
-460
-283
-179
-403
-480
-319
-278
-322
-135
288
125
-476
-284
-287
-491
-327
-293
-387
-285
24
-166
-448
-292
-282
-353
-170
-175
-375
-205
-152
-453
-404
-196
-277
-320
-117
-133
-169
99
52
-130
6
282
226
-7
219
215
-18
162
383
47
-240
165
166
-191
20
38
-320
-359
-407
-546
-323
-176
-440
-578
-293
-251
-506
-64
1023
2572
4524
6224
6574
4570
1959
939
560
303
156
-117
-273
-583
-710
-588
-485
-539
-670
-462
-477
-780
-625
-452
-496
-606
-656
-315
-538
-856
-552
-650
-718
-573
-500
-396
-346
-342
-615
-523
-227
-285
-205
-106
-146
-239
19
145
58
440
729
507
444
772
788
754
751
616
664
609
541
553
391
210
38
-156
-100
-149
-196
55
20
-403
-556
-224
-199
-336
-247
-275
-350
-259
-249
-266
-131
-226
-395
-379
-233
-178
-498
-471
-56
-259
-523
-180
-123
-231
0
-106
-393
-263
-150
-297
-216
-33
-78
-285
-210
-64
-286
-146
160
-99
-370
-307
-311
-304
-230
-140
-81
-189
-201
-236
-243
-116
-219
-264
-171
-224
-256
-32
-63
-283
-123
131
269
31
-177
176
379
307
397
145
6
435
246
-74
297
168
-186
178
-29
-546
-447
-369
-443
-282
-86
-248
-514
-554
-271
-116
293
1521
3021
4608
6073
5637
3112
1326
951
458
-41
10
-134
-422
-346
-317
-516
-524
-468
-732
-721
-415
-454
-570
-584
-612
-629
-417
-252
-569
-675
-386
-722
-870
-181
-166
-584
-504
-337
-329
-404
-108
53
-340
-219
-71
72
225
26
163
351
497
538
587
950
938
667
806
916
720
540
490
242
120
445
237
-235
-173
5
-88
-141
-183
-528
-483
-82
-130
-364
-241
-8
-63
-295
-362
-396
-537
-338
-124
-304
-220
-126
-419
-246
14
-195
-267
-250
-144
-281
-416
-67
-34
-266
-180
-109
-258
-107
87
-222
-377
-254
-148
-41
-113
-104
-247
-319
-233
-313
-205
-55
-149
-105
46
-323
-504
-188
-42
-222
-311
5
62
-10
-3
-161
-42
117
61
51
146
390
291
44
179
178
267
508
259
-264
-269
-74
-202
-302
-173
-306
-524
-241
-290
-498
-308
-134
-168
-175
790
2046
3506
5539
6057
4483
2443
1198
628
413
160
-238
-271
-177
-425
-684
-613
-534
-659
-717
-399
-402
-763
-569
-483
-728
-611
-412
-528
-592
-500
-586
-489
-332
-651
-836
-484
-299
-468
-370
-216
-345
-295
-322
-321
13
127
88
146
292
534
454
385
768
839
725
731
643
529
368
605
644
270
121
-135
-133
-36
-178
-267
-300
-40
41
-370
-476
-375
-495
-222
-13
-398
-396
-167
-429
-633
-369
-135
-349
-352
-153
-269
-318
-257
-423
-509
-149
-145
-456
-313
-195
-209
-104
-112
-226
-462
-334
-118
-399
-369
-68
-107
-251
-296
-306
-222
49
9
-378
-459
-402
-383
-353
-259
-229
-260
-93
-210
-277
-116
-261
-287
-175
-91
-146
-219
95
87
-121
142
210
90
225
324
135
46
276
184
-217
-27
337
57
-108
-130
-502
-428
-97
-325
-615
-496
-285
-369
-431
-161
-171
17
1192
2688
4536
6212
6080
4023
1893
1246
702
12
-2
-122
-368
-447
-465
-542
-519
-368
-516
-777
-749
-743
-822
-600
-336
-702
-788
-410
-519
-568
-474
-627
-882
-697
-404
-452
-369
-381
-536
-487
-341
-257
-351
-385
-70
152
49
136
332
392
471
424
391
727
839
566
707
927
666
438
472
494
231
-53
136
44
-339
-135
-82
-372
-162
-105
-460
-393
-250
-268
-370
-325
-180
-391
-395
-354
-463
-270
-177
-353
-467
-154
-44
-431
-306
-154
-552
-527
-177
-291
-313
-163
-293
-388
-267
-236
-379
-123
188
-97
-258
-318
-517
-484
-86
-123
-476
-240
-223
-405
-382
-263
-137
-256
-382
-343
-289
-323
-354
-358
-235
-19
-230
-404
-288
-246
-287
-393
-261
-166
-117
2
-103
-72
370
399
-73
18
264
80
-50
244
581
91
-53
91
-251
-61
102
-174
-271
-132
-184
-461
-471
-400
-385
-300
-232
-97
-390
-322
729
2117
4176
5853
6162
4909
2594
1284
802
242
35
-123
-194
-268
-577
-603
-591
-696
-612
-370
-606
-894
-466
-415
-772
-671
-530
-692
-579
-361
-720
-866
-346
-458
-775
-407
-351
-535
-518
-382
-364
-473
-480
-363
-203
-83
112
186
428
394
66
403
630
629
777
734
770
682
472
621
518
222
289
287
32
-74
-42
-270
-305
-158
-282
-419
-374
-95
-166
-370
-325
-354
-369
-427
-367
-366
-399
-260
-379
-442
-312
-305
-416
-226
-275
-610
-190
-57
-392
-321
-176
-286
-296
-101
-336
-491
-163
-110
-147
-58
-164
-272
-409
-380
-179
-256
-307
-334
-357
15
63
-361
-339
-180
-292
-333
-191
-212
-426
-476
-206
-111
-185
81
3
-110
211
158
-59
180
402
-76
-174
311
267
120
117
196
62
-131
75
-45
-258
-248
-375
-545
-319
-78
-339
-506
-349
-297
-194
190
442
1360
3311
4949
5942
5260
2859
1249
757
440
-2
-408
-239
-154
-500
-465
-502
-566
-283
-705
-809
-515
-759
-683
-713
-716
-324
-443
-642
-504
-525
-649
-512
-320
-506
-485
-431
-589
-532
-271
-253
-476
-273
-253
-201
86
84
-99
-126
388
547
465
694
601
421
707
983
675
421
631
383
110
363
390
125
-24
155
20
-336
-186
-124
-400
-466
-422
-396
