1540
1198
1418
1593
1304
1307
1564
1533
1236
1505
1686
1048
1195
1725
1294
1344
1733
1339
1218
1592
1511
1194
1571
1672
982
1173
1759
1416
1061
1356
1509
1198
1423
1790
1511
1439
1615
1473
1436
1651
1715
1407
1449
1700
1211
1198
1541
1166
1050
1454
1366
819
858
1198
1065
1153
1309
880
800
1364
1193
851
1786
2641
2875
3302
3022
1351
287
414
572
592
740
1158
846
589
943
869
1007
1113
546
447
922
913
471
588
1023
882
752
941
847
595
763
1024
742
688
1057
724
412
758
749
485
976
1031
319
650
1061
619
524
1143
1135
514
743
1175
934
966
1373
1155
927
1215
1192
899
1133
1402
965
872
1050
742
772
1046
769
285
415
751
263
171
688
396
281
555
219
10
359
336
117
346
527
332
241
528
463
180
385
564
221
96
401
305
390
591
304
208
360
465
315
347
624
251
-108
156
313
140
104
285
45
103
462
-44
-57
423
95
-111
208
341
112
155
617
649
348
327
469
403
556
754
567
545
735
848
696
1037
1156
482
922
1310
805
952
1390
1165
982
1453
1554
1367
1344
1404
1429
1503
1631
1394
1366
1697
1529
1243
1406
1716
1532
1206
1636
1559
1003
1377
1731
1513
1447
1574
1362
1388
1633
1542
2004
2859
3346
3479
3068
2100
990
565
1038
1174
966
1324
1549
1065
991
1415
1131
806
1314
1290
749
1116
1259
778
1161
1462
838
800
1261
1004
758
1155
1107
714
927
1005
611
574
993
1075
587
660
737
275
763
923
93
216
600
289
330
695
458
69
309
548
301
269
465
192
-44
317
303
-216
33
163
-581
-648
-164
-378
-727
-575
-647
-947
-745
-456
-874
-969
-487
-834
-972
-524
-706
-1000
-750
-566
-886
-748
-503
-814
-853
-581
-509
-647
-608
-432
-569
-650
-465
-600
-761
-380
-402
-730
-426
-415
-864
-758
-430
-399
-630
-717
-542
-779
-661
-482
-759
-667
-610
-799
-821
-478
-577
-977
-600
-476
-828
-707
-512
-631
-768
-516
-454
-743
-534
-400
-848
-716
-164
-544
-818
-218
-189
-625
-464
-296
-411
-315
-230
-373
-441
-159
54
-284
-206
134
-99
4
130
-231
-155
176
-10
-412
-308
56
-166
-278
160
-24
-353
-1
170
-90
-19
143
-117
-96
112
233
889
1792
2177
2114
1324
62
-714
-730
-174
24
-168
29
16
-245
91
275
-106
-50
207
-193
-253
222
81
-192
129
338
21
-33
322
95
-216
355
511
-9
98
440
211
59
348
275
139
412
458
262
367
401
322
550
707
593
513
860
963
657
886
1066
739
739
1034
967
768
1008
996
519
481
657
391
163
453
510
220
361
276
-264
77
303
-227
-89
281
49
-151
109
74
-269
-107
51
-193
4
99
-305
-285
51
169
-122
-56
242
-153
-178
194
-112
-236
106
184
-115
-183
27
0
181
255
-17
20
89
46
-57
-9
260
-22
-191
149
151
22
116
184
-61
7
279
9
-146
226
266
-71
90
237
23
25
208
1
-184
189
184
-31
313
224
5
299
152
-181
15
410
181
-204
298
416
-148
167
545
95
24
479
350
131
678
619
-119
64
473
95
62
420
99
-184
171
310
-81
-3
226
-90
-160
169
264
60
30
172
371
1240
2371
2547
2260
1540
-48
-765
-253
1
0
121
227
-19
-224
163
335
-51
-112
206
86
-48
250
123
-183
-14
-37
-177
57
43
-224
-90
140
-168
-343
24
-35
-320
-13
152
-272
-89
178
-135
-81
237
151
18
289
424
279
319
504
379
400
748
603
471
821
729
364
479
692
490
440
634
252
93
279
95
-92
74
370
10
-337
15
-26
-362
35
254
-259
-208
340
11
-517
-19
234
-206
-83
175
-129
-208
95
-21
-200
114
22
-348
18
224
-180
-45
104
-218
-93
182
6
-139
19
82
-134
-69
231
40
-255
61
244
-217
-163
121
-132
131
402
-166
-286
233
143
-173
58
162
30
46
53
-103
30
385
147
-99
154
137
2
300
247
-37
101
286
192
76
293
413
140
196
487
320
316
517
336
61
246
475
114
92
304
-127
-187
192
-12
-184
220
109
-75
182
-15
-240
-29
269
60
172
1283
1886
1928
1935
1058
-262
-729
-375
-134
-131
152
226
-97
3
304
76
-71
235
181
45
311
57
-163
276
343
-63
36
475
220
44
264
253
-64
89
643
205
-86
323
337
378
310
200
226
301
564
365
274
732
713
495
612
656
528
795
1065
792
946
1075
703
714
1002
1012
594
477
718
457
397
786
285
-215
112
118
-26
76
36
-127
-170
55
28
-328
-165
94
-235
-167
143
-301
-52
478
-339
-483
162
-61
-231
-24
4
-144
11
207
-120
-216
61
209
179
-11
4
-62
-150
127
16
-276
114
144
-239
91
184
-263
-250
221
0
-416
247
315
-424
-194
202
-36
-83
74
-124
-187
12
-116
-292
-3
168
-167
-239
89
3
-257
-17
46
-194
53
274
-76
-147
176
142
51
254
123
-193
2
285
-64
-324
79
-72
-412
-102
-172
-417
-202
-140
-399
-391
-201
-313
-365
-244
-329
-93
856
1627
1745
1537
686
-677
-1198
-850
-525
-452
-452
-400
-464
-355
-264
-424
-488
-341
-99
-293
-488
-223
-173
-461
-398
-115
-250
-289
-124
-324
-284
50
-258
-392
-53
-286
-475
-87
28
-171
-36
0
-268
-219
167
421
141
-57
141
156
220
483
418
279
657
703
475
688
547
292
490
584
378
382
495
217
-105
93
157
-274
-233
17
-234
-354
-23
-131
-446
-182
-190
-456
-286
-131
-266
-433
-288
-182
-369
-240
-77
-308
-121
112
-207
-240
78
-73
-261
58
0
-298
-163
140
-41
-300
-15
-56
-361
-110
79
-89
33
131
-108
-158
169
38
-184
213
158
-204
-41
233
-41
-276
-33
-51
-250
-174
-180
-424
-231
2
-424
-505
-7
-222
-552
41
164
-178
13
119
-16
59
362
322
81
330
380
157
343
628
551
338
455
461
279
474
487
140
259
469
147
6
273
280
5
28
156
-206
-115
346
142
-111
131
396
875
1886
2453
2108
1228
176
-637
-679
-43
52
-219
28
272
-105
-95
271
-158
-236
181
117
-123
130
274
-312
-262
208
93
-20
62
39
-91
69
168
-125
-8
318
134
-61
247
389
119
234
420
214
162
514
428
243
606
502
358
707
737
617
731
805
666
683
995
866
646
981
802
359
521
596
325
19
168
263
-153
14
265
-176
-117
308
0
-279
-9
-138
-477
-90
267
-63
-317
-122
-196
-303
24
-41
-383
-266
4
-76
-182
-125
-293
-374
-18
-118
-344
-29
-32
-389
-126
48
-409
-318
93
-105
-435
-153
65
-204
-310
34
-181
-544
-56
66
-205
-49
-174
-498
-51
155
-332
-392
-40
-108
-400
-229
116
-112
-473
-296
-275
-375
-123
-40
-410
-417
-221
-475
-329
-18
-365
-428
30
-157
-470
-103
47
-144
23
117
-115
-205
102
140
-462
-323
-33
-329
-157
-16
-412
-619
-305
-177
-582
-407
-54
-509
-345
137
-250
-417
457
1509
1917
2063
1459
-252
-1035
-588
-486
-446
-96
-95
-377
-180
254
-170
-501
-8
-78
-443
-89
41
-379
-268
-141
-479
-386
-120
-385
-522
-177
-155
-609
-449
-166
-569
-438
-300
-584
-657
-480
-293
-455
-232
69
-232
-213
231
-17
-52
418
205
-69
200
529
519
423
678
659
355
712
713
84
347
900
375
-123
351
227
-144
338
54
-338
126
108
-127
28
141
-150
-168
239
38
-237
116
144
-326
-246
81
-158
-272
-9
105
-237
-334
-77
-294
-198
67
-271
-360
27
26
-309
-286
-67
-263
-220
260
-68
-363
-74
-97
-240
-39
169
-334
-382
130
-121
-326
100
-3
-405
-44
14
-317
-145
66
-200
-310
168
3
-354
65
121
-318
-225
165
-98
-271
17
-28
-231
74
199
-272
19
411
-75
-79
407
132
-169
102
397
124
-276
41
-29
-108
232
-126
-403
9
103
-288
-227
131
-53
-234
135
232
-134
327
1323
1549
1982
2278
1261
-36
-485
-471
-514
106
561
59
-20
319
123
7
377
427
-18
155
584
87
65
696
434
57
418
532
189
341
433
235
372
502
314
128
417
572
438
589
600
377
392
619
613
520
747
687
488
881
1088
702
761
1247
1086
843
1250
1230
805
1050
1323
801
692
1194
861
389
817
777
110
338
700
252
127
551
265
17
445
283
-59
313
417
20
131
424
261
153
372
347
112
194
441
318
56
381
390
18
462
620
-26
226
649
163
97
510
385
122
455
391
-133
133
363
-46
97
590
169
-82
378
34
-285
124
247
-33
-48
199
-56
-201
202
93
-242
50
153
-76
-116
34
-7
-147
80
8
-211
23
151
-181
-139
332
205
-68
100
122
-102
279
549
-44
-97
445
238
-79
222
10
-272
98
174
-150
-161
41
-130
-320
106
180
-313
-112
309
-146
-33
1042
1459
1872
2355
1340
-282
-620
-416
-509
-249
216
-5
-362
38
53
-195
277
205
-380
-164
293
117
-99
105
16
-241
113
286
-93
-97
308
96
-152
205
184
7
223
269
-9
146
422
367
180
329
601
272
271
649
399
374
965
791
348
777
856
604
991
999
562
839
1200
707
418
802
725
329
398
410
104
114
366
114
-135
362
175
-376
-88
129
-22
-220
25
-63
-332
53
12
-296
-126
-10
-224
-175
7
20
-187
-274
-104
-337
-383
68
-60
-398
36
50
-349
-80
-92
-372
-70
111
-313
-319
111
-103
-331
-64
-122
-341
-143
10
-346
-171
194
-222
-372
-74
-56
-364
-184
3
-391
-137
223
-121
-287
-29
-31
-278
-102
84
-176
-138
209
-169
-390
149
63
-240
80
237
-11
-110
228
154
0
381
356
47
143
421
199
-94
189
149
-51
158
45
-148
-51
41
38
0
14
-49
-70
-33
-29
-81
-52
294
609
1187
2291
2452
1437
499
-329
-807
-375
217
140
-115
-65
-76
-57
309
338
-189
-34
239
-249
51
378
-171
-206
272
281
-200
80
379
-98
-54
375
262
25
277
266
22
213
271
44
106
512
320
-15
425
448
212
568
683
370
579
904
606
499
838
955
696
738
1025
626
440
1037
791
235
552
454
55
287
391
-33
-136
189
14
-316
136
272
-269
-221
24
-79
-237
-59
-130
-409
-5
-6
-390
-139
-3
-363
-276
246
-145
-487
15
50
-338
-287
37
-230
-276
185
63
-315
-211
-65
-180
-123
-4
-223
-320
85
116
-118
-6
63
-308
-292
124
-103
-156
105
-69
-288
-69
181
-182
-302
182
59
-238
107
36
-375
-57
107
-231
-19
237
-90
-127
229
-35
-314
126
73
-225
119
287
-89
-69
331
131
-75
333
310
-125
287
555
4
-66
192
-26
-288
38
87
-331
-165
149
-174
-289
169
5
-457
-24
251
-226
124
995
1531
2275
2461
1216
-202
-537
-413
-486
-212
-26
-273
-124
65
-104
-363
-147
174
-184
-279
-85
-39
139
-80
-349
-81
374
105
-473
-57
294
-207
-187
207
74
12
240
238
-35
27
316
174
206
450
114
-22
433
467
128
398
734
488
460
838
877
616
707
821
684
806
885
650
545
699
588
336
415
364
128
238
242
-192
-57
191
76
104
-19
-91
-206
-159
87
5
4
22
-230
-206
168
121
-375
-173
233
-190
-200
166
-177
-213
311
64
-430
-13
210
-190
-167
66
-12
-157
229
279
-333
-15
271
-239
62
418
-229
-310
241
142
-169
32
257
-78
-142
178
-11
-177
190
165
-161
41
193
-104
-148
305
226
-64
171
109
-78
175
253
-195
22
582
10
-298
295
270
-83
183
405
206
241
576
416
-54
250
385
-79
254
422
-260
-225
217
108
-119
-51
116
-57
-41
210
-39
-98
106
12
351
1212
1860
2135
1892
878
-347
-830
-595
-288
-134
1
55
-164
-80
189
-153
-286
75
-92
-224
191
118
-288
-26
192
-210
-146
267
91
-34
210
103
-232
7
306
-104
-78
317
22
-193
338
466
116
356
349
-43
137
474
405
386
690
576
275
585
794
590
739
1086
834
515
711
728
374
436
641
386
199
334
134
-205
168
205
-305
-142
108
-310
-315
217
-37
-425
-199
-7
-264
-264
96
-324
-473
25
-156
-318
30
-46
-308
-167
-57
-288
-236
61
-232
-375
136
49
-495
-172
12
-371
-246
43
-2
-248
-249
-116
-304
-202
106
-308
-486
-32
-114
-289
5
-49
-485
-310
41
-306
-362
51
-143
-471
-126
44
-261
-202
-174
-383
-93
34
-307
-273
-39
-172
-420
-184
22
-169
-86
151
42
-233
-11
270
-141
-16
329
-53
37
193
-224
-261
-27
-213
-375
-45
29
-316
-329
-15
-202
-438
-85
28
-258
-438
17
611
874
1687
2111
1604
685
-471
-1015
-663
-183
-273
-259
54
-140
-285
-54
-129
-346
-100
134
-439
-508
113
-56
-345
36
135
-228
-133
55
-228
-152
50
-122
-75
75
146
-80
-188
311
66
-302
265
214
-2
287
280
194
408
530
371
336
551
746
635
656
765
619
739
1008
721
480
762
622
338
641
638
100
63
308
90
-146
80
147
-200
-14
63
-411
-79
165
-343
-216
149
-192
-410
-63
-74
-293
-53
63
-324
-313
26
-160
-205
17
-178
-230
56
-16
-287
-210
32
-110
-259
83
201
-252
-162
239
-200
-407
7
-87
-290
42
-46
-279
-17
41
-136
-158
76
-32
-231
-15
-71
-224
-27
-52
-296
-190
-21
-156
-281
-35
-37
-372
-164
52
-159
-89
54
-274
-314
10
-128
-280
66
190
-197
-257
137
85
-216
46
100
-123
146
386
84
-171
223
167
-202
213
184
-410
-224
41
-221
-267
-52
-87
-387
-196
42
-336
-287
51
-198
-41
1003
1773
1937
2131
1491
-123
-690
-473
-487
-282
29
-123
-416
-23
52
-412
4
127
-365
-83
226
-6
-282
-201
9
-144
-142
22
-70
-6
65
-68
-38
118
107
-26
-6
75
26
154
307
3
-118
279
320
74
268
422
319
353
544
628
473
729
810
395
707
1009
643
602
996
791
444
739
599
217
506
525
-9
38
527
208
-384
20
204
-199
-75
50
-128
-73
-13
-250
-296
3
-25
-185
6
1
-257
-213
-8
-175
-266
-9
-120
-418
-208
40
-142
-143
113
-64
-364
-101
65
-193
-55
183
-215
-281
285
50
-449
-57
258
-232
-270
249
-70
-319
-20
-117
-267
21
75
-320
-33
381
-205
-379
132
107
-195
-97
-33
-287
-91
112
-140
-155
12
21
-60
211
133
-536
-36
487
-273
-264
288
-56
-251
233
227
-141
-6
247
-34
-66
385
349
181
236
212
98
113
133
-54
-86
135
80
-158
-43
-159
-355
39
161
-249
-122
172
-138
-220
165
492
908
1797
2355
1795
780
25
-564
-828
-216
70
-299
-126
164
-163
-262
170
-90
-410
-1
21
-202
49
195
-148
-243
99
94
-23
36
116
134
-93
-52
29
57
189
-59
-130
288
395
57
139
309
121
249
621
431
152
454
517
439
600
631
552
645
1035
847
497
1017
1081
497
676
928
552
603
767
353
23
351
512
-124
-88
360
122
-71
134
-30
-311
109
167
-128
118
149
-322
-327
118
-13
-189
114
-9
-322
-51
124
-130
-80
144
-136
-380
119
202
-337
-186
169
-81
-212
273
189
-334
-30
98
-269
-31
296
-170
-296
256
-73
-423
50
163
-200
-93
254
-188
-391
65
119
-131
-4
79
-183
29
272
-110
-318
104
-71
-446
34
117
-232
-18
85
-248
30
215
-202
-240
114
97
-157
170
191
-196
-47
184
123
38
246
224
-161
190
338
-216
-80
331
-4
-430
-69
85
-216
-10
89
-359
-209
255
-82
-273
79
60
177
1046
1851
1991
1645
871
-267
-963
-655
-233
-287
-223
-19
-74
-107
-81
-276
-308
109
38
-409
-221
19
-133
-125
7
-139
-288
0
242
-126
-90
200
-122
-85
77
-135
-88
235
263
-86
5
259
-17
198
550
149
122
416
309
290
506
561
409
562
665
526
717
937
758
450
724
1035
490
414
681
166
45
295
135
-21
160
111
-360
-70
319
-219
-313
-10
-245
-424
-108
-55
-244
-181
-87
-174
-324
-104
10
-301
-127
63
-277
-186
19
-296
-398
30
-15
-315
3
112
-226
-277
-66
-39
-161
-1
-3
-367
-260
55
-65
-303
-22
-52
-471
-134
-17
-374
-201
142
-184
-447
5
-25
-350
-104
35
-250
-255
-33
-150
-292
-195
-157
-313
-152
21
-354
-170
246
-266
-360
56
-143
-231
-68
-158
-228
-35
231
-112
-222
292
232
114
289
161
-58
281
465
-46
-112
67
-87
-46
35
-246
-359
48
-54
-546
-457
-25
-71
-375
-68
115
-148
116
942
1477
2023
2370
1261
-255
-629
-590
-647
-79
151
-352
-270
39
-200
-356
95
70
-414
-93
104
-257
-112
94
-131
-276
4
37
-322
-84
129
-147
-162
41
-34
-130
145
-58
-221
247
84
-174
98
344
249
25
338
323
73
379
502
400
546
895
585
270
689
778
673
770
789
531
492
819
505
127
382
405
151
129
119
-70
172
222
-410
-357
222
-38
-463
-77
138
-358
-310
27
-267
-287
14
-65
-359
-74
93
-364
-223
-19
-258
-137
131
-138
-393
-10
-5
-313
-184
-23
-106
-142
156
-25
-387
22
39
-323
-90
25
-185
48
209
-199
-431
-218
-50
-172
-64
31
-168
-114
-77
-158
-285
-173
151
-116
-261
118
-31
-284
20
-132
-450
-130
121
-55
-155
119
-105
-388
170
94
-415
-64
213
-190
-165
316
190
-173
-10
133
51
219
318
21
-15
256
33
-206
-5
255
-53
-211
-7
-416
-304
153
-191
-332
0
-79
-287
-32
0
-145
583
1496
1833
1926
2026
808
-974
-712
-176
-543
-319
49
-215
-237
61
-67
-260
-90
17
-145
-215
17
-95
-222
127
-71
-345
10
200
-74
-132
108
-68
-90
180
104
-55
190
311
-46
135
301
22
-33
466
410
-206
311
677
290
445
721
552
600
905
871
620
713
789
600
681
957
772
562
859
561
192
490
427
86
51
223
72
-140
225
207
-218
-43
36
-263
-147
184
-96
-349
41
-58
-484
-40
275
-241
-232
68
-240
-282
136
-21
-288
110
83
-322
-54
48
-278
-166
97
-62
-162
35
-3
-262
-118
114
-166
-171
-35
8
-107
-185
97
-142
-345
-57
-22
-173
75
-10
-332
135
117
-355
-53
60
-321
-94
260
-49
-401
-207
115
-154
-297
22
-194
-343
200
71
-421
10
222
-251
-351
-48
-112
-188
221
148
-108
27
4
-148
-22
221
-68
-56
320
-203
-586
-147
-64
-266
-208
-231
-505
-300
-29
-396
-528
-252
12
-244
-350
349
762
1356
2173
1929
731
-370
-808
-1003
-545
-12
-391
-488
-29
-123
-391
-21
-7
-510
-345
-45
-347
-201
169
-168
-394
-20
89
-237
-13
336
22
-152
123
38
-226
-38
56
-89
112
194
36
160
391
225
-8
402
502
78
373
594
237
514
883
569
471
800
803
599
775
937
687
662
841
500
283
645
515
-17
81
387
73
-87
260
12
-191
156
31
-263
-91
89
-149
-228
-49
-99
-86
85
-79
-375
-49
309
-106
-333
137
117
-358
-13
180
-211
-12
123
-181
-208
157
152
-207
19
120
-258
-134
108
-30
-87
31
-114
-240
118
58
-330
-125
122
18
-158
61
24
-409
-2
33
-416
40
325
-288
-368
150
-93
-329
106
9
-329
-5
69
-296
-271
27
-72
-207
154
246
-164
-50
304
13
-57
277
136
-62
112
54
-98
124
156
-323
-278
87
-144
-250
74
147
-333
-330
4
-361
-239
239
81
501
1539
1948
1631
1184
424
-773
-914
-293
-421
-545
-40
-5
-335
-69
9
-318
-202
141
-60
-385
-112
8
-425
-118
350
-298
-343
203
-179
-386
85
24
-293
84
311
-146
-207
24
-61
20
215
128
-29
155
264
52
197
452
264
270
516
392
468
712
723
497
346
795
862
441
516
806
514
363
539
83
-93
230
-9
-340
158
244
-471
-212
141
-407
-336
87
-309
-639
-194
-64
-457
-364
-181
-460
-354
-107
-270
-260
-157
-123
-315
-269
-14
-333
-151
190
-323
-425
-6
-92
-432
-146
141
-339
-386
176
-79
-611
-220
62
-363
-204
165
-375
-458
84
-188
-442
-83
-42
-419
-156
217
-452
-505
77
-92
-295
-150
-174
-212
-16
-114
-338
-188
64
-161
-468
-131
85
-215
-92
150
-303
-421
87
0
-162
127
143
-69
64
290
-6
-152
228
81
-211
-40
-2
-104
-66
-70
-281
-231
-62
-183
-269
-100
-194
-370
99
125
-372
127
1070
1353
1861
2449
1322
-378
-830
-651
-476
-52
66
-376
-309
44
-161
-449
-88
123
-297
-208
129
-155
-333
95
-1
-370
-15
-20
-343
-41
230
-86
-231
90
100
-155
28
201
-114
48
429
-38
-144
417
225
-99
250
620
319
84
488
407
513
879
528
558
890
692
660
818
815
532
359
790
716
160
252
362
-61
-57
227
-19
-191
44
-80
-224
26
-95
-425
-304
55
-110
-387
-122
-121
-330
-205
-120
-262
-299
-18
-150
-340
-72
-234
-336
-84
-1
-324
-230
266
-212
-492
47
28
-310
79
147
-506
-251
191
-219
-163
181
-246
-614
-185
67
-248
-216
-8
-139
-206
2
-117
-404
-150
58
-265
-317
11
-202
-248
183
-109
-472
-27
62
-412
-228
68
-233
-275
152
75
-374
-20
256
-264
-188
188
-47
-35
280
123
-4
269
173
-49
172
145
-41
-100
-217
-226
-237
-182
-75
-176
-380
-272
-33
-167
-212
-193
-272
128
598
1056
1934
2390
1788
491
-523
-704
-640
-362
-60
-365
-395
96
-141
-487
116
75
-405
-10
-29
-304
-68
114
-260
-417
133
5
-425
-76
148
-116
-97
213
-67
-196
370
54
-323
130
204
-35
179
388
94
91
426
364
182
562
681
223
426
806
461
445
1059
835
369
957
1176
486
529
892
337
302
870
273
-173
323
429
-2
-158
145
-139
-233
235
-81
-242
233
0
-345
-129
-125
-213
-98
9
-182
-377
-34
84
-397
-367
68
-103
-260
-11
-22
-388
-287
50
-183
-78
201
-164
-437
-117
-104
-239
64
-13
-392
-219
205
-60
-280
82
-170
-365
78
-82
-482
-200
20
-319
-304
62
-51
-265
-158
-40
-26
-197
-155
-320
-410
97
-29
-305
-22
-165
-457
-89
143
-231
-311
67
-37
-86
281
75
-396
-33
570
-3
-269
238
89
-235
19
197
-203
-241
109
-170
-480
-72
-77
-378
-136
-84
-292
-200
-24
-259
-317
323
735
1220
2187
2246
909
-181
-594
-918
-604
-140
-246
-419
-163
-41
-196
-41
-105
-386
-242
18
-137
-328
19
79
-233
-130
-19
-197
-24
272
-106
-336
-35
39
-69
34
270
-102
-242
229
103
77
338
275
149
171
335
179
186
492
489
418
539
802
550
495
801
628
662
921
660
510
846
713
202
388
661
87
-51
288
73
-155
-28
-60
-186
34
56
-295
-348
21
-10
-383
-196
-26
-372
-282
98
91
-162
-240
-258
-440
-82
63
-269
-100
43
-151
-231
-3
114
-115
-84
41
-182
-175
105
-198
-331
111
36
-204
-107
-67
-364
-178
169
-301
-321
131
-15
-265
-2
10
-344
-190
-4
-220
-275
113
-1
-427
-156
34
-189
-227
-122
-197
-146
-7
-156
-211
57
-5
-410
-129
198
-160
-104
120
-175
-122
201
150
-23
17
146
42
93
128
-171
-150
135
-80
-326
-121
-14
-245
-365
-17
-141
-430
-131
-126
-297
-126
39
185
1020
2016
2182
1650
755
-313
-1030
-693
-177
-268
-299
37
-191
-539
-14
-21
-453
-106
51
-305
-197
15
-115
-199
-10
-14
-261
93
190
-295
-178
74
-189
-214
283
297
-215
-96
207
-77
76
487
69
-149
384
510
-6
195
599
180
353
904
645
272
615
764
519
892
1044
543
623
856
594
500
531
457
185
219
299
-49
-11
51
-191
-203
-19
12
-184
-237
-11
-114
-296
-88
-155
-409
-131
71
-261
-296
-22
-256
-369
-16
-64
-253
-75
-114
-361
-99
35
-179
-252
-140
-51
-145
-11
-41
-448
-263
85
-152
-226
-23
-222
-334
-2
130
-125
-209
-84
-214
-22
241
-188
-237
258
4
-420
-134
109
-269
-233
75
-391
-471
-116
-168
-148
10
-235
-627
-364
270
-131
-625
-20
170
-212
-157
-40
-246
-89
82
-237
-108
318
105
-152
157
162
-165
106
382
-2
-205
170
211
-67
101
4
-498
-328
80
-187
-391
-62
-95
-318
-161
-129
-398
-233
164
239
710
1594
2201
2087
1268
-5
-1016
-761
-182
-202
-288
-103
-177
-371
-40
-3
-332
-188
-52
-269
-248
100
71
-376
-179
170
-136
-172
39
-183
-253
97
56
-304
-107
172
-129
-34
344
85
-153
238
167
-205
285
361
-37
118
421
352
273
684
604
251
725
867
591
768
829
719
593
696
851
490
344
617
293
26
277
73
-146
159
75
-281
-20
158
-221
-300
-88
-239
-325
15
-48
-384
-27
-3
-534
-398
-28
-180
-375
-169
-238
-441
-25
101
-381
-374
-16
-146
-396
-81
-143
-522
-28
135
-403
-231
-8
-349
-291
6
59
-160
-255
-161
-242
-76
-50
-359
-186
42
-264
-275
1
-85
-203
-172
-113
-263
-224
3
-150
-290
-40
-19
-321
-58
54
-418
-271
157
-220
-433
69
88
-243
-153
-32
-129
-350
-232
12
-201
-88
234
-80
-150
242
58
-58
309
33
-276
205
315
-147
-155
163
-77
-364
-50
3
-156
-60
-263
-359
-9
101
-168
-256
-35
-139
-83
743
1472
1871
2183
1719
203
-799
-524
-321
-520
-237
-10
-374
-327
7
-284
-312
70
-267
-429
109
78
-475
-155
308
-174
-376
-22
-157
-276
109
63
-319
-106
204
-58
-197
184
208
-163
33
236
-20
81
264
-72
-11
422
263
229
554
454
199
477
788
560
489
867
844
412
623
767
373
515
725
329
220
605
204
-341
17
111
-203
-138
124
71
-304
-269
-18
-326
-311
-69
-260
-94
100
-350
-401
-58
-331
-578
-87
95
-459
-335
-14
-368
-110
176
-312
-366
14
39
-251
-231
124
-11
-285
34
-56
-371
-10
61
-368
-355
79
-2
-406
59
-18
-643
-178
121
-70
-84
-185
-375
-236
121
-46
-324
-15
9
-392
-175
216
-185
-307
134
-244
-487
99
-27
-372
-88
8
-125
-103
114
-133
-335
317
296
-270
76
335
-157
-36
318
-107
-119
185
19
-309
-270
148
-59
-363
-97
-163
-206
201
-138
-616
1
272
-213
214
1188
1488
1888
1972
653
-627
-621
-427
-591
-345
9
-170
-319
124
-3
-407
-56
-87
-310
-133
38
-144
-317
75
11
-277
12
164
-153
-180
236
-27
-345
132
138
-209
125
302
-161
-39
379
185
-69
104
309
57
161
468
320
354
627
613
422
539
784
650
541
789
629
577
917
800
446
519
490
130
451
406
-212
-1
268
-60
-232
65
14
-433
-204
64
-307
-198
105
-284
-477
-65
-104
-352
-53
58
-282
-410
29
-108
-417
47
28
-451
-192
131
-198
56
169
-468
-243
104
-86
-235
-169
-10
-155
-40
66
-255
-285
3
16
-198
-142
17
-259
-393
-64
-46
-270
-130
-83
-179
57
-58
-442
-212
126
-197
-343
147
5
-624
-217
81
-253
-100
107
-156
-355
1
83
-258
-11
111
-229
25
324
103
-150
45
242
-216
-106
329
-314
-471
85
-189
-484
-142
-7
-289
-200
-36
-357
-358
-89
-214
-308
172
969
1466
1873
2060
955
-137
-432
-908
-688
-37
-168
-386
-55
41
-381
-264
-10
-305
-283
43
-196
-441
-39
128
-265
-208
130
-148
-308
116
41
-447
-175
197
-120
-235
57
-136
-191
328
168
-258
156
372
183
338
393
42
216
811
493
177
645
859
540
574
927
665
473
822
805
567
656
690
415
403
490
56
-88
347
294
-189
-158
70
-275
-151
298
-144
-411
14
-84
-308
-2
-174
-352
-11
-104
-359
-184
-59
-307
-428
-168
-72
-248
-191
-43
-237
-286
-4
-26
-441
-145
188
-380
-363
33
-172
-324
-29
-149
-507
-135
80
-342
-372
-82
-144
-102
-66
-421
-480
-131
-33
-221
-184
-157
-456
-355
-20
-171
-309
-74
33
-265
-283
40
-209
-439
22
-102
-363
-86
-199
-252
-57
-62
-188
-31
237
-148
-286
400
294
-204
224
235
-183
-93
34
-7
-179
7
151
-440
-357
121
-282
-297
72
-323
-472
-98
-50
-170
-115
16
434
1419
2106
2037
1479
651
-471
-1111
-555
50
-268
-407
133
-183
-515
-11
-53
-232
8
-37
-292
-266
88
-83
-484
-122
203
-167
-277
36
-156
-171
141
-67
-264
56
166
-66
180
243
-221
-58
317
262
-2
141
408
98
204
517
350
341
648
563
357
773
907
555
802
1021
588
530
949
706
316
573
481
2
124
303
-179
-222
452
206
-441
-30
97
-279
-56
12
-170
-162
-103
-126
-301
-140
-47
-335
-95
-71
-414
-60
53
-260
-237
-61
-44
-117
-63
-110
-476
-322
215
-34
-246
-18
-67
-187
-38
-41
-272
-98
109
-136
-378
-51
146
-226
-247
158
30
-324
-194
-216
-250
31
2
-213
-92
14
-268
-280
133
-145
-376
159
-8
-460
-136
74
-300
-352
191
55
-255
-24
149
86
-237
17
294
-30
87
93
-133
262
227
-307
-82
179
-268
-381
91
-23
-466
-102
-83
-569
-118
195
-291
-292
118
-164
-194
1025
1940
1967
1946
1253
-351
-955
-362
-326
-566
-80
-82
-414
22
10
-402
-227
-44
-205
-150
-1
-56
-294
-226
208
-156
-392
57
-33
-217
-70
6
-171
-110
192
-71
-98
203
-46
-105
327
269
-56
161
274
40
146
471
462
170
411
672
323
615
818
481
556
843
801
618
783
680
362
495
587
224
211
413
64
-83
126
-56
-135
82
-79
-435
-239
240
-192
-473
4
-71
-468
-251
26
-261
-155
29
-320
-376
-133
-178
-369
-112
45
-415
-288
294
-183
-467
-26
-29
-230
-115
73
-344
-180
352
-158
-469
-1
-25
-462
-181
107
-90
-83
-30
-222
-203
-43
-159
-279
-121
-47
-187
-112
-110
-360
-176
219
-138
-506
-123
222
-274
-532
-43
-146
-296
161
168
-222
11
43
-162
228
200
-128
21
220
65
-194
42
40
-406
-88
167
-186
-283
-203
-191
-308
-184
167
-171
-405
22
-139
-92
604
1045
1515
2150
1804
268
-534
-471
-653
-612
-150
-127
-395
19
79
-519
-181
201
-208
-179
100
-199
-449
-34
101
-302
-145
202
-69
-197
129
19
-307
68
298
-413
-187
460
-37
-129
224
61
-137
177
335
-27
106
497
331
220
489
471
298
761
1032
516
370
868
804
431
852
904
377
562
676
181
168
602
315
-125
98
50
-206
-11
17
-274
-92
72
-197
-282
-128
-226
-367
-102
-105
-483
-220
51
-428
-378
88
-101
-450
-175
107
-290
-326
90
38
-218
-175
-68
-303
-128
19
-374
-268
45
-48
-234
-181
-135
-230
-107
100
-305
-316
127
-263
-454
53
-47
-424
85
-90
-677
-37
187
-379
-410
-28
-98
-466
-156
78
-351
-229
62
-223
-234
-70
-168
-120
110
1
-137
84
31
-57
37
192
62
-87
138
53
-123
-63
-18
-298
-381
-86
-243
-414
-70
-57
-456
-360
-59
-233
-303
-7
4
182
1327
2226
1984
1734
963
-750
-1080
-116
-171
-418
-35
-115
-411
-298
116
-33
-512
-280
-156
-547
-336
-51
-382
-204
153
-104
-245
52
-32
-339
133
275
-261
-41
157
-172
-102
188
12
-156
210
349
7
93
340
65
83
454
381
326
589
568
370
594
864
581
478
966
811
396
737
779
396
520
548
147
90
161
82
-138
61
285
-288
-299
224
-129
-437
42
36
-336
-96
-39
-368
-122
176
-329
-537
-236
-218
-141
-38
-203
-460
-247
-93
-330
-239
58
-4
-363
-224
-105
-372
-181
99
-268
-380
181
-71
-551
-134
-35
-316
-153
-103
-317
-222
58
-68
-438
-196
-71
-324
55
37
-229
47
-193
-457
-259
-42
-22
-214
-142
-67
-384
-299
178
-78
-413
35
81
-457
-204
84
-279
-84
361
6
-355
103
187
-188
62
364
131
-172
65
-39
-337
189
175
-459
-324
-67
-427
-319
146
-223
-479
-23
39
-452
-372
110
-2
185
1248
1951
2049
2023
1031
-503
-898
-539
-481
-252
85
-198
-478
-95
99
-326
-299
-28
-247
-201
134
-161
-574
-28
88
-474
-206
69
-136
-238
-132
-1
-144
-68
12
-339
43
312
-315
-200
136
-48
62
211
52
64
259
305
184
319
664
423
143
618
1039
561
374
818
624
597
1079
740
386
689
368
128
496
476
69
-155
148
115
-356
-6
107
-359
-60
31
-379
-198
51
-149
-201
54
-85
-474
-208
109
-176
-374
-177
-64
-355
-277
-167
-274
83
-70
-499
-232
75
-202
-321
-7
-87
-258
-91
-129
-223
1
75
-203
-452
-70
78
-416
-172
56
-277
-178
40
-216
-283
122
10
-313
-86
-117
-482
-149
197
-321
-421
11
-141
-268
33
-25
-330
-257
-56
-92
-103
-40
-104
-250
153
292
-267
-161
250
100
-105
223
202
-143
74
115
-325
-345
-65
-20
-227
-161
-105
-437
-77
18
-405
-132
47
-167
-230
248
997
1338
1888
2250
1213
-69
-427
-582
-615
-131
-84
-371
-199
-71
-265
-112
212
-230
-381
66
-231
-398
160
180
-358
-281
108
-105
-241
81
37
-329
-101
190
-85
83
252
-117
-221
83
201
-84
85
370
-23
67
522
118
191
727
431
363
597
621
498
483
916
811
435
721
848
482
694
790
269
303
390
127
57
197
77
-225
-68
76
-324
-172
310
-156
-592
-130
22
-393
-134
131
-352
-408
-88
-205
-134
32
-249
-396
-183
-164
-386
-319
-40
-120
-281
-36
-1
-288
-113
-106
-260
1
-78
-367
-170
221
-121
-399
-40
-140
-463
-212
56
-230
-223
67
-118
-471
-217
205
-265
-364
132
-202
-263
158
-199
-369
-79
-160
-136
-70
-122
-341
-386
50
-88
-286
121
116
-244
-104
207
115
63
104
-89
-151
38
85
-152
-57
39
-307
-188
19
-281
-340
-113
-228
-504
-193
103
-224
-330
-27
-21
194
1275
1965
1790
1483
614
-504
-771
-555
-500
-357
-104
-113
-157
-149
-183
-357
-204
76
-137
-230
-47
-44
-366
-134
256
-236
-274
154
-63
-393
-88
184
-227
-92
488
-114
-442
309
140
-173
185
118
-31
468
427
-222
55
525
396
363
558
538
391
636
885
439
411
1098
748
355
1005
728
150
589
497
51
339
319
-183
-165
273
139
-389
-150
229
-243
-488
-81
-194
-453
-145
-120
-436
-243
-129
-334
-270
-70
-268
-507
-80
-61
-373
-128
-43
-313
-433
-183
-90
-328
-138
58
-255
-239
26
-243
-389
96
-62
-482
-55
-127
-482
-153
-71
-325
-338
-11
-135
-479
-120
-41
-277
-96
94
-251
-366
163
124
-292
-230
-151
-317
-15
139
-255
-221
33
-137
-260
-37
-150
-256
143
207
-272
-239
46
-95
-250
-14
123
-117
59
289
-39
-140
208
-113
-360
159
-133
-537
-172
-13
-289
-311
-11
-315
-481
51
-145
-588
-162
183
-133
-74
859
1446
1914
2146
939
-446
-780
-435
-386
-475
-141
-234
-412
-75
-176
-491
-109
22
-386
-333
30
-188
-358
-25
-47
-279
-184
37
-176
-226
36
-221
-360
58
-26
-333
-113
169
-64
-156
320
52
-124
380
201
-148
154
428
140
269
654
334
414
776
522
307
754
929
380
529
1115
821
399
654
473
147
349
406
74
-79
58
-142
-216
148
-13
-382
-83
1
-410
-350
51
-145
-301
38
-80
-278
-210
-159
-326
-389
14
-149
-405
-19
-172
-415
-144
-50
-315
-320
-18
-150
-158
107
-54
-338
-92
21
-197
-33
44
-346
-350
-18
-146
-287
-87
32
-262
-313
-33
-194
-307
-22
-14
-234
-64
-66
-378
-146
88
-318
-494
18
16
-397
-136
58
-261
-317
-19
-176
-341
45
-125
-441
243
390
-377
-205
163
-83
-96
228
349
-62
-4
206
-117
-51
110
-97
-209
-43
-162
-427
109
191
-503
-307
-45
-265
-361
-190
-64
-217
87
643
1145
1868
2435
1894
431
-374
-609
-733
-205
59
-353
-256
-48
-248
-193
24
-25
-325
-263
-92
-306
-158
134
-12
-192
-54
-65
-249
-62
41
-272
-91
321
-87
-245
139
-86
-357
146
275
-47
126
147
88
146
238
280
181
506
542
155
346
749
654
341
685
917
585
786
912
466
608
903
499
322
516
364
70
248
175
-314
52
309
-154
-230
-28
18
-256
-111
-8
-449
-95
250
-220
-415
-103
-99
-262
-138
-51
-335
-275
161
-251
-401
82
74
-336
-278
-54
-395
-226
150
-135
-301
90
16
-288
10
-35
-342
-33
37
-265
-143
72
168
-246
-367
114
-197
-287
188
-119
-257
-23
-289
-216
119
-32
-406
-166
282
-226
-254
204
-206
-451
29
44
-351
35
357
-127
-263
193
142
-55
231
228
-15
196
201
-183
-37
214
-233
-394
61
-53
-388
-172
-23
-361
-427
11
-54
-334
45
33
-263
693
1597
1536
1834
1721
157
-924
-737
-572
-575
-238
89
-342
-229
250
-280
-367
-22
-233
-341
-109
164
-109
-474
-15
-10
-287
44
13
-245
-137
154
12
-170
221
100
-152
324
155
-351
-8
207
-53
101
439
289
104
330
395
195
566
809
242
320
770
714
604
865
902
371
615
958
575
533
670
443
105
137
204
13
134
296
-60
-235
128
-36
-336
-72
-23
-178
-191
-178
-291
-210
93
-105
-423
133
211
-555
-293
62
-315
-155
161
-119
-213
-33
-103
-232
68
259
-326
-236
369
-82
-345
183
178
-365
-290
49
-102
-39
124
-211
-419
-31
141
-242
-157
139
-202
-279
77
-34
-309
48
-22
-551
-134
185
-253
-213
57
-177
-262
153
249
-192
-111
121
-21
-147
34
173
-12
171
205
-67
136
258
-126
-182
63
-215
-319
22
-61
-397
-267
-57
-369
-255
130
-163
-317
18
110
318
1317
2010
1759
1456
580
-829
-1049
-329
-202
-459
-138
-38
-336
-178
79
-129
-373
77
49
-431
-118
40
-171
-149
20
-95
-171
67
-50
-278
3
266
-64
-231
-5
-1
28
159
54
-65
48
255
306
120
206
226
121
536
449
102
490
650
369
622
961
592
428
777
902
620
663
718
443
661
643
163
-2
270
343
-65
1
198
-262
-146
374
-85
-485
-181
-78
-142
-23
-88
-343
-144
146
-134
-221
-41
-93
-358
-314
-28
-355
-256
217
-172
-392
-35
-68
-283
-97
34
-334
-313
291
-105
-511
92
-128
-491
92
-175
-614
-62
28
-281
-220
79
-229
-653
-91
170
-427
-566
-100
-79
-404
-228
-178
-454
-172
22
-287
-276
-82
-231
-426
-191
-54
-418
-276
24
-213
-78
218
-124
-275
260
124
-362
120
413
-181
-214
174
-65
-295
-29
-181
-620
-266
-25
-348
-313
-82
-245
-309
-46
-177
-483
-34
782
1029
1543
2437
1798
309
-365
-796
-802
-113
-74
-498
-189
97
-341
-579
-135
13
-294
-129
111
-332
-319
165
-192
-340
-60
-89
-284
-188
111
-190
-142
141
-277
-269
194
111
-151
53
162
-125
-3
221
-88
-45
405
219
28
475
511
142
474
873
540
412
808
858
460
580
976
531
288
708
629
378
396
158
22
342
265
-174
-141
215
11
-253
-89
-232
-400
-113
165
-152
-438
-151
-101
-258
74
-70
-536
12
-49
-581
-195
-192
-228
-109
-205
-291
-403
6
23
-441
-106
68
-281
-244
-148
-17
-160
-228
-16
-401
-297
60
-210
-283
-178
-206
-275
-180
-121
-328
-142
254
-231
-452
103
-177
-472
8
-2
-377
-204
-67
-408
-274
244
-52
-374
19
-107
-316
114
60
-230
68
258
55
-59
125
317
73
-109
143
71
-196
228
298
-394
-375
-153
-370
-214
21
-311
-416
-22
-63
-333
-79
5
-294
276
1231
1595
2076
2300
1090
-508
-638
-239
-577
-404
120
-119
-210
199
-285
-516
130
-133
-373
-76
-101
-300
-132
106
-62
-107
88
-171
-235
152
-87
-401
-82
277
1
-269
68
290
10
-107
20
-70
104
438
126
-60
397
417
37
425
718
296
384
855
590
194
768
973
514
787
954
411
483
799
352
245
477
263
-13
182
396
4
-180
111
-4
-323
-60
56
-138
6
-36
-295
-106
95
-92
-271
-104
-112
-299
-54
19
-386
-264
121
-201
-302
60
-20
-286
8
101
-487
-233
335
45
-225
-105
1
-172
-153
145
-202
-388
165
35
-341
-118
-52
-102
-87
-153
-255
-199
181
-3
-365
61
149
-415
-248
236
-231
-357
172
-163
-478
118
22
-338
82
298
6
-173
182
101
88
467
-12
-200
126
9
-45
61
-45
-336
-220
97
-140
-507
-191
195
-283
-475
64
-76
-290
63
-39
370
1473
1999
1839
1113
225
-584
-990
-547
54
-355
-544
-56
-195
-247
-5
-56
-196
-119
-172
-339
48
66
-517
-235
204
-168
-282
-23
-28
-278
-229
49
-144
-24
355
-120
-393
149
227
-171
177
395
-101
120
361
-41
2
407
344
266
571
485
363
487
552
562
609
865
747
406
547
729
500
323
426
242
85
251
-30
-282
97
120
-227
-192
-99
-342
-372
-9
-46
-304
-270
-253
-255
-297
-211
-189
-206
11
-295
-529
-106
-16
-278
-182
13
-249
-430
-43
-33
-372
61
232
-435
-316
127
-16
-189
-254
-272
-220
-88
-153
-353
-226
1
-190
-309
-75
-174
-242
-42
-59
-192
-348
-94
-140
-486
-135
-89
-373
-120
12
-241
-226
-51
-160
-136
260
-80
-325
304
313
-132
-122
203
79
-165
40
-79
-429
-113
-58
-517
-388
-43
-159
-385
-112
-208
-485
-85
-78
-433
-152
630
1102
1584
2146
1499
281
-139
-623
-1172
-534
41
-460
-482
40
-84
-392
-146
-114
-417
-150
105
-274
-495
-213
-125
-367
-265
-42
-322
-179
129
-231
-315
37
131
-167
-50
140
-225
-24
364
35
-287
47
98
-193
431
381
-192
371
449
199
452
555
517
481
644
792
603
508
784
562
316
782
579
69
458
602
-40
-127
124
-147
-159
33
-117
-373
-58
90
-434
-246
7
-326
-335
-165
-221
-390
-140
-52
-376
-205
-116
-478
-394
41
-165
-389
-99
-177
-431
-231
1
-42
-274
-159
24
-290
-178
-24
-362
-216
-38
-240
-196
-121
-223
-290
-168
-113
-282
-148
1
-348
-263
-2
-315
-354
26
21
-155
-107
-165
-421
-461
-119
-66
-296
-69
25
-397
-97
85
-380
-215
63
-43
-93
116
78
-238
152
381
-52
-121
252
207
-252
36
95
-310
153
139
-573
-321
-33
-414
-478
-24
3
-346
-332
-219
-253
-28
131
-169
274
1448
2088
2070
1517
425
-658
-930
-390
-158
-363
-116
-27
-323
-139
-69
-413
-318
305
19
-584
-62
59
-281
22
-17
-501
-251
194
-97
-151
273
-32
-322
68
314
18
-348
28
153
-168
171
286
10
201
336
75
189
614
394
90
502
624
286
697
867
351
582
940
728
585
738
710
402
361
593
438
128
357
111
-435
148
276
-312
96
303
-353
-199
221
-150
-203
-16
-159
-344
-237
141
-129
-441
-19
-139
-385
-90
-220
-400
8
-130
-441
-168
117
45
-337
-37
-60
-440
-41
141
-152
-276
74
-148
-500
3
66
-397
-190
134
-188
-147
29
-369
-367
-60
-95
-86
2
-186
-336
-110
70
-334
-335
306
-122
-561
67
242
-211
-335
-39
-108
-216
176
54
-108
218
60
-179
42
503
365
-110
174
157
-194
170
197
-360
-202
55
-279
-309
50
55
-276
-230
12
-437
-460
254
-96
-399
692
1406
1429
2036
2138
641
-642
-662
-492
-302
-135
-237
-308
-70
-9
-295
-242
-20
-206
-275
81
-108
-520
-147
190
-228
-159
181
-170
-234
-22
-36
-264
-88
137
-170
-96
204
-70
-111
311
-34
-218
368
392
14
147
268
422
473
253
293
243
447
646
608
819
769
414
512
833
725
499
540
594
369
420
650
35
-354
179
236
-107
-54
-72
-286
-198
53
-6
-305
-199
-83
-365
-100
116
-407
-309
69
-241
-327
-46
-215
-472
-126
164
-216
-271
31
-143
-332
-187
-51
-163
-132
-81
-222
-95
-25
-246
-270
-33
119
-207
-336
-90
-411
-299
168
-122
-258
-163
-206
-244
-117
5
-237
-142
87
-254
-323
11
-55
-191
170
85
-335
22
353
141
22
185
69
-184
30
133
-256
-135
81
-375
-398
-37
-270
-471
-125
-100
-364
-277
150
-2
-379
226
721
984
1946
2125
799
-341
-656
-782
-613
-153
-117
-214
47
-167
-519
-133
58
-336
-286
0
-244
-379
-104
-137
-439
-85
229
-210
-268
82
-32
-164
-18
-72
-216
-67
118
-93
-76
178
-34
-172
78
267
203
218
371
52
74
736
422
-59
564
940
493
546
848
414
544
959
498
312
672
613
189
378
403
-3
32
193
4
-302
110
103
-403
-174
35
-143
-284
-210
-265
-417
-88
-28
-418
-318
-151
-363
-261
70
-233
-317
81
-71
-358
-182
81
-122
-205
-70
-279
-121
141
-74
-307
-268
17
-166
-412
138
-92
-501
234
-42
-611
-85
145
-295
-309
67
-167
-484
-88
62
-437
-166
233
-264
-311
43
-180
-358
-34
-32
-349
-17
148
-244
-226
155
63
-277
-19
32
-225
106
369
28
-3
241
40
-124
104
-68
-500
37
217
-494
-340
-80
-367
-245
16
-280
-403
36
-32
-501
-271
288
712
1274
1914
1982
990
-9
-539
-1000
-412
231
-362
-579
-65
-134
-515
-235
63
-298
-425
-4
-186
-487
49
207
-429
-348
-8
-66
-121
36
-18
-338
1
-46
-367
99
354
-261
-429
109
-8
27
330
151
60
192
279
12
276
604
279
377
705
554
228
521
837
665
645
966
654
210
572
550
245
375
533
205
22
129
-169
-243
131
-37
-497
-159
241
-284
-479
-70
-173
-330
31
51
-496
-360
-16
-384
-310
118
-182
-410
-12
-137
-465
23
74
-186
-60
-83
-379
-439
109
123
-450
-177
236
-384
-269
503
-215
-755
-81
-125
-299
151
-68
-490
-164
24
-202
-201
40
-15
-435
-301
110
-210
-280
50
-306
-370
140
-90
-503
-137
-115
-344
-55
160
-252
-456
164
-20
-569
-177
127
-324
-288
163
-301
-353
272
146
-203
-2
204
-98
-58
397
31
-162
304
129
-329
-8
159
-466
-338
80
-301
-341
104
-214
-643
-245
14
-194
-163
49
-210
-326
623
1321
1598
2254
1941
407
-689
-832
-638
-259
-36
-287
-354
-78
-18
-292
-386
-157
-90
-161
-132
-291
-515
-103
-12
-460
-77
214
-282
-180
207
-208
-450
80
128
-414
-220
324
99
-239
-33
127
2
115
259
-35
35
418
296
246
565
534
249
456
728
605
650
622
472
734
833
500
459
732
627
321
354
441
186
155
241
-68
-318
-131
122
-183
-113
160
-328
-377
-9
-78
-351
-157
162
-371
-385
172
-164
-580
85
155
-657
-228
40
-453
-168
151
-252
-353
52
-80
-392
-60
29
-251
-172
16
-40
-237
-155
-197
-245
57
-80
-401
-181
-5
-174
-171
30
-152
-374
-19
68
-376
-169
281
-175
-436
-19
83
-322
-325
-95
-249
-87
39
-109
-150
-77
-39
-108
99
115
-334
-227
119
-23
-21
192
231
32
166
359
-61
-112
343
13
-417
169
214
-483
-137
81
-482
-268
92
-214
-325
-24
-139
-303
45
189
612
1525
2337
2222
906
73
-524
-1050
-417
46
-233
-33
60
-374
-218
157
-264
-420
9
-58
-268
-62
49
-383
-356
202
-42
-368
108
162
-325
-163
118
-159
-160
114
-131
-275
180
299
-107
0
187
-81
218
512
36
109
665
408
43
388
640
410
490
856
692
316
765
931
324
494
825
482
250
366
348
42
231
239
-328
-73
247
-159
-189
169
-167
-549
-73
-36
-446
-107
47
-274
-262
-130
-146
-246
-66
-243
-524
4
-29
-458
-202
161
-103
-474
-54
42
-273
113
163
-344
-328
-4
-202
-366
-28
-15
-349
-60
165
-321
-253
53
-147
-193
19
-102
-294
-118
88
-103
-381
-139
-8
-293
15
136
-442
-111
359
-202
-131
361
-58
-168
229
92
-118
232
310
-109
-62
13
-181
-141
-118
-211
-217
-170
-274
-388
-145
-60
-309
-298
-96
-84
-288
-153
423
775
1436
2176
1676
471
-339
-836
-919
-405
-181
-188
-175
-44
-149
-365
-24
-172
-470
-207
89
-158
-358
-46
-118
-349
-159
-52
-105
-18
19
-79
-72
65
-346
-461
365
354
-298
19
311
-59
-9
194
39
-39
261
457
179
314
507
214
374
611
514
613
916
768
432
694
876
460
413
822
445
106
470
275
-66
178
146
-313
10
256
-268
-301
-71
-86
-257
-249
-109
-440
-392
-11
-263
-267
-46
-322
-351
-97
-161
-374
-133
189
-237
-321
105
-184
-331
-20
-127
-305
-148
11
-131
-169
-55
-25
-163
-298
-99
-297
-338
80
-100
-239
104
-152
-612
-19
200
-291
-223
-232
-452
-352
-2
-42
-286
-111
-97
-384
-225
190
-180
-359
213
96
-311
73
151
-361
6
455
-63
-300
173
1
-514
-30
29
-390
10
-14
-527
-434
-125
-279
-606
-298
-17
-431
-342
149
234
811
1814
2050
1603
799
-412
-1090
-648
-264
-430
-373
-174
-197
-316
-232
-70
-205
-266
-181
-345
-346
-137
-331
-494
-126
36
-241
-224
66
-189
-473
-86
-12
-163
55
11
-380
-107
200
-182
-42
302
43
-146
210
346
162
211
503
429
98
499
517
244
848
896
297
525
908
695
510
530
323
207
410
283
23
60
137
79
-45
2
-69
-260
16
-51
-463
-269
93
-165
-366
-24
-148
-432
-120
-13
-411
-282
72
-315
-364
29
-206
-370
4
3
-327
-75
21
-349
-362
-69
72
-271
-201
60
-355
-341
-1
-36
-71
50
-203
-364
91
29
-328
-162
11
-165
-217
45
-69
-363
-199
-209
-321
2
8
-271
-192
124
25
-410
-95
165
-249
-185
33
-245
-278
306
276
-496
-314
-105
-250
147
82
-155
-145
-78
-64
-75
150
46
-193
249
488
69
105
457
274
-50
176
210
-202
-84
278
-132
-346
223
99
-355
-39
143
-116
-18
143
-317
-349
291
218
440
1570
2009
1831
1499
406
-761
-808
-210
-173
-344
4
12
-277
-125
220
-24
-268
16
-433
-613
-70
-43
-365
-278
-214
-441
-311
-172
-239
-336
-111
99
-328
-232
57
-250
-61
143
-46
-97
43
61
26
209
176
22
165
338
49
-61
512
548
112
291
571
448
517
879
594
136
587
759
139
226
586
25
-209
107
-177
-325
121
-62
-595
-300
-22
-415
-212
164
-296
-424
-57
12
-244
-170
34
-300
-260
220
-48
-532
-248
25
-216
-163
9
-235
-319
-42
6
-265
-150
-11
-308
-72
192
-71
-156
-187
-240
-221
12
86
-91
-108
94
28
-321
-25
76
-308
86
109
-241
-4
-49
-114
-78
120
-46
-247
315
99
-354
16
213
-144
-3
562
209
-80
337
300
-52
-59
293
206
-273
-98
-190
-402
107
52
-285
2
-21
-367
-185
-15
-270
-181
134
-85
157
1151
1772
2013
1776
560
-682
-880
-477
-396
-548
-185
48
-314
-182
70
-219
-302
-95
-116
-401
-65
207
-385
-304
148
-164
-393
-5
0
-270
44
125
-394
-324
11
-246
-189
210
15
-429
-295
-6
-65
-121
152
114
-211
115
159
-153
149
304
114
202
520
469
129
316
405
76
162
214
-13
54
119
-386
-434
57
-425
-925
-331
-110
-908
-934
-365
-529
-855
-593
-538
-1083
-682
-369
-1000
-738
-407
-821
-831
-507
-677
-982
-516
-281
-808
-658
-329
-535
-514
-564
-475
-354
-472
-438
-616
-421
-190
-703
-646
-201
-413
-493
-122
-83
-705
-670
-79
-301
-563
-235
-341
-595
-146
-183
-714
-366
-128
-477
-311
-122
-314
-344
71
-89
-542
-133
173
-181
-305
41
27
-90
231
145
-398
-215
76
-312
-58
254
-515
-704
-176
-148
-468
-160
167
-436
-554
-47
-54
-384
-91
720
1200
1525
1668
944
162
-246
-882
-877
-275
2
-195
-266
-82
-266
-225
-118
-248
-310
-150
104
-282
-381
45
-260
-292
117
-181
-392
-31
254
-119
-360
-11
-164
-148
221
-51
-226
19
-47
-203
141
225
-142
36
433
330
105
330
437
173
332
624
527
381
547
561
568
801
578
464
557
496
333
141
264
197
-75
127
255
-249
-220
177
-60
-333
-192
-123
-244
-164
-191
-270
-136
-98
-291
-400
-267
-65
-60
-188
-152
-161
10
-26
-287
8
113
-244
-305
135
168
-392
-279
118
-152
-182
179
-11
-320
2
140
-299
-221
108
-217
-181
200
-102
-349
-68
54
-103
-66
-18
-264
-100
180
-55
-187
-13
79
-159
-151
84
-217
-56
368
-261
-394
303
116
-217
119
175
-41
104
304
235
99
386
402
-199
23
379
-70
-129
-32
-275
-230
214
284
-297
-409
-144
-79
-54
60
-44
-361
155
875
1057
1752
2250
1380
217
-354
-670
-614
-126
6
-224
-121
160
-51
-116
191
64
-73
138
121
-145
-130
22
-193
-103
418
-13
-378
354
259
-414
-55
340
56
-77
201
231
-115
119
289
-36
355
655
-1
-167
376
366
301
565
545
302
522
778
429
627
965
631
484
812
880
491
615
789
373
322
507
153
-62
265
290
-120
-10
217
-321
-300
160
-41
-194
-47
-62
-203
-25
0
-276
-170
138
-104
-440
-15
232
-222
-203
13
-352
-234
273
-117
-385
96
54
-150
-40
-64
-133
-86
128
-25
-203
54
-16
-176
168
98
-205
-25
-24
-229
-116
283
-18
-335
75
194
20
-9
131
-13
-228
11
93
-242
-105
171
-105
-32
137
-149
-185
104
-55
-406
-90
127
-203
23
316
-120
-266
9
104
-113
-151
132
-122
9
449
-191
-251
418
197
-140
222
392
59
192
433
106
-7
270
267
-78
-81
-15
-140
-50
86
183
-129
-314
-138
-193
50
169
-246
-139
365
641
1285
2186
2339
1393
479
-172
-790
-410
219
-121
-496
-130
79
-83
44
131
-340
-177
287
-155
-337
110
81
-175
120
84
-155
-28
94
192
-85
-39
92
-45
285
190
-200
-33
219
171
54
242
286
18
286
485
52
168
697
584
396
551
570
544
691
812
713
731
931
747
543
857
774
339
618
734
210
196
383
44
-98
242
344
-119
-129
186
-97
-124
390
84
-372
142
-34
-403
-41
53
-248
-61
212
-293
-412
117
-53
-441
-38
63
-277
-88
246
-172
-313
84
-61
-245
123
168
-389
-210
174
-236
-190
211
-151
-363
86
56
-361
-104
313
-204
-490
119
76
-475
-141
168
-184
29
162
-449
-394
216
101
-325
-169
90
-117
-164
26
-177
-244
65
-75
-336
-93
64
-183
-152
198
-127
-369
269
168
-300
52
198
-68
72
342
-5
-253
342
397
-241
-107
139
-347
-301
110
-258
-165
354
-218
-574
-32
109
-450
-333
199
-194
-43
1054
1588
1798
2167
1393
-107
-674
-501
-401
-344
40
-24
-414
-103
27
-295
5
180
-305
-273
181
-37
-324
-36
-44
-256
68
101
-197
-24
76
76
-87
32
328
-196
-36
345
-160
-114
341
233
63
295
331
240
343
475
254
143
705
867
256
420
795
475
836
1015
506
663
975
679
557
834
629
280
323
476
252
54
314
137
-106
31
40
-235
-53
272
-238
-329
209
127
-203
-122
-70
-167
-58
37
-194
-168
52
-189
-239
50
-59
-313
6
184
-165
-31
130
-142
-277
-6
63
-312
-134
142
-168
-225
202
26
-337
-45
-77
-164
23
-5
-246
-334
50
-12
-385
162
290
-566
-346
50
-253
-156
79
-75
-274
-84
-72
-271
6
155
-359
-456
-46
-188
-142
268
49
-287
-109
134
-137
-123
327
35
-300
214
222
-214
179
213
-309
-212
-73
-286
-227
-51
-101
-237
-322
-78
-301
-427
40
-139
-353
118
500
880
1643
1885
1173
460
-56
-788
-853
-377
-240
-324
-133
18
-301
-382
-33
-79
-432
-97
72
-193
-96
-287
-317
-64
-111
-178
-229
-33
-76
-263
16
91
-199
-145
217
-29
-161
154
-95
-339
116
331
-29
32
299
180
198
532
321
83
549
665
245
457
846
417
488
897
537
311
704
713
266
367
517
61
-121
172
-99
-305
77
32
-373
-294
59
-212
-526
-16
82
-461
-379
-203
-382
-399
-176
-181
-367
-131
3
-294
-231
-37
-315
-276
47
-268
-320
226
-95
-592
-149
153
-296
-402
34
-80
-360
-83
33
-332
-352
22
-154
-371
-50
-157
-426
-192
-101
-321
-228
-95
-309
-335
-96
-225
-409
-207
-61
-187
-348
-195
-269
-341
6
-198
-303
189
35
-224
96
44
-148
159
229
93
17
82
39
-312
62
175
-346
-176
131
-243
-573
-275
-209
-401
-182
-34
-436
-286
-55
-381
-168
-59
-50
495
1423
2076
1675
635
-144
-578
-855
-509
-172
-419
-305
-63
-433
-385
167
-172
-560
-140
-126
-393
-12
43
-461
-211
63
-348
-274
104
-184
-349
-78
85
-6
-272
0
-2
-236
333
18
-443
232
267
-175
155
528
144
111
527
282
3
370
620
453
615
987
642
272
736
800
393
476
659
268
227
519
116
48
298
119
-46
-27
-42
-161
-141
-114
-253
-228
-135
-79
-235
-195
99
-262
-470
-172
-252
-336
-20
7
-349
-137
211
-283
-318
223
-93
-357
1
-51
-294
-25
-14
-251
-23
-35
-299
-261
9
5
-340
-280
-105
-198
-114
-43
-246
-134
222
-146
-470
124
28
-551
-211
51
-321
-201
167
-192
-434
-61
42
-262
-109
252
-108
-483
132
294
-283
-12
160
-312
-214
167
-64
-210
252
303
-61
121
284
19
55
206
-19
-191
40
93
-217
-182
-13
-390
-268
23
-383
-309
101
-98
-444
-111
31
-204
343
1332
1802
2086
1865
466
-578
-459
-334
-613
-309
142
-147
-270
-2
-113
-350
-41
77
-365
-169
102
-176
-225
17
36
-254
3
61
-399
-124
161
-105
-31
274
10
-225
98
143
-105
3
126
-23
204
406
103
120
516
384
2
289
798
479
200
742
800
447
633
844
825
677
668
451
206
654
474
41
321
318
-163
-37
286
-125
-242
98
-10
-398
-236
-27
-284
-210
-82
-378
-238
91
-196
-392
-113
-60
-523
-470
23
-208
-317
17
-222
-411
-56
2
-193
-57
42
-196
-420
-147
-134
-391
-73
107
-183
-157
33
-286
-370
-24
-176
-380
-82
23
-342
-277
102
-167
-202
39
-222
-419
-107
308
-156
-527
94
-87
-463
-70
-26
-302
-108
173
-195
-154
201
-36
-165
179
24
-162
531
443
-160
19
150
-5
10
284
40
-348
-46
-25
-188
-103
-170
-437
-413
15
-55
-240
31
2
-484
-17
1143
1346
1743
2322
1237
-302
-662
-549
-427
-211
-161
-327
-224
104
-120
-335
17
-3
-300
-36
104
-345
-347
177
-31
-464
-146
101
-207
-152
207
-93
-192
153
-103
-281
117
264
-115
-5
347
-94
-131
314
307
91
279
469
113
435
681
114
324
826
512
440
861
670
451
779
797
311
389
772
528
276
318
167
-50
210
294
-295
-346
133
-111
-374
112
18
-511
-132
-7
-511
-233
101
-296
-484
-9
26
-477
-238
-36
-470
-332
166
-40
-293
-26
-164
-431
-28
191
-214
-296
-23
-237
-401
-122
-51
-268
-48
115
-421
-382
-20
-243
-405
-8
120
-396
-371
-73
-260
-158
70
-244
-219
-62
-328
-301
-121
-52
-250
-296
22
-289
-371
281
133
-368
-58
244
-133
-111
368
110
-118
109
-77
-111
74
28
-178
-268
-96
-259
-369
75
99
-420
-371
-89
-321
-321
-10
-246
-257
287
722
1163
1812
1932
760
-347
-514
-792
-695
77
-155
-673
-221
161
-209
-387
-72
-196
-272
-24
-109
-347
-145
8
-509
-381
176
-123
-186
134
-71
-408
-92
239
-115
-146
120
-105
-209
265
189
-317
154
520
64
50
309
188
286
592
363
47
400
719
515
562
805
541
438
972
862
271
628
691
39
123
403
204
-74
57
7
-304
-119
57
-94
-276
-293
-330
-203
49
-211
-380
-30
38
-361
-310
-87
-200
-198
-37
-154
-560
-151
193
-279
-327
-123
-211
-130
76
34
-209
-326
-117
-194
-255
-131
-188
-191
-88
-94
-365
-215
-54
-363
-192
55
-75
-361
-312
-18
-362
-414
-16
-269
-410
-100
-272
-317
-40
-227
-405
-28
-26
-514
-372
-93
-321
-338
39
-141
-385
-56
4
-434
-325
194
-124
-275
197
-119
-381
199
310
68
-45
21
71
-118
-45
-41
-213
-106
-64
-383
-204
136
-307
-499
-40
-88
-440
-88
-7
-414
-148
184
294
964
1798
2264
1708
471
-434
-968
-631
-10
-105
-310
-53
-7
-242
-126
-192
-370
-160
-28
-74
-85
-95
-116
-197
-124
-29
-288
-172
105
-243
-178
250
-25
-321
15
383
-146
-232
353
-27
-144
168
203
109
132
483
203
118
712
449
183
741
765
193
307
801
713
730
1019
515
415
1047
660
140
385
601
135
-6
381
102
-234
144
222
-289
-118
-46
-421
-173
239
-62
-456
-152
-10
-294
-86
103
-347
-293
92
-215
-385
129
52
-411
-38
70
-382
-253
9
-132
-81
120
-188
-355
28
101
-229
-182
215
-196
-488
-57
-40
-143
-126
78
-117
-427
-54
-68
-213
63
-171
-434
-6
60
-261
-112
137
-242
-405
62
-58
-386
-96
149
-246
-297
108
-226
-347
218
134
-270
-68
116
-116
171
457
-161
-178
322
160
-48
115
371
-2
-267
52
-180
-211
107
-159
-450
-167
-66
-303
-32
-59
-335
-230
-110
-192
-81
753
1406
1663
2139
1933
505
-637
-511
-363
-368
36
-119
-408
-116
69
-193
-278
45
-129
-297
-53
-33
-270
-141
230
-186
-295
130
-147
-371
54
178
-224
-97
167
-175
-107
328
339
-112
-48
292
-71
22
534
241
-102
351
384
36
594
880
189
329
1065
561
231
962
863
515
787
780
557
652
639
222
187
414
241
-97
-27
-22
-176
50
92
-104
-234
-2
-134
-391
224
148
-623
-297
168
-276
-325
123
-161
-408
-96
-119
-365
-166
81
-372
-307
62
-81
4
-51
-280
-427
-121
170
-153
-226
-11
-139
-359
-62
65
-264
-159
107
-160
-330
12
-144
-317
93
-63
-349
-110
-12
-277
-226
58
-169
-339
-15
101
-234
-261
18
-6
-196
-114
-91
-253
20
73
-331
-129
107
-207
-84
148
-35
-2
135
48
-1
151
198
121
209
260
1
-282
-30
203
-148
-49
151
-393
-401
10
-135
-312
-68
84
-296
-258
37
-250
51
923
1406
1804
2137
1588
-114
-904
-278
-471
-574
29
-136
-359
-160
-146
-324
-62
226
-178
-254
-3
-189
-351
69
156
-326
-182
65
-86
-110
44
-136
-245
173
67
-369
56
488
-66
-244
321
245
-131
154
459
281
246
252
128
366
616
441
354
735
754
403
871
1095
422
521
914
531
336
856
675
-58
327
649
-85
-216
238
-1
-223
158
77
-399
-203
152
-133
-381
-211
-152
-226
-157
29
-45
-189
-123
-374
-283
140
-211
-311
125
-123
-340
137
92
-348
-230
-32
-223
-206
-22
-20
-165
-131
72
-223
-187
35
-189
-220
-62
-77
-411
-154
109
-239
-182
-96
-280
-274
96
-16
-345
28
-70
-458
-135
63
-124
-122
-88
-228
-253
-24
79
-214
-304
170
-49
-561
-137
-40
-332
-25
150
-71
-133
11
-82
-220
207
320
23
133
194
6
-79
120
114
-264
-157
-67
-379
-151
-2
-397
-238
73
-161
-432
-240
-116
-296
-122
237
436
939
1898
2204
1548
385
-600
-876
-441
-111
-472
-423
-117
-162
-120
-73
-228
-261
-84
-21
-115
-239
-219
-278
-308
69
76
-174
18
32
-138
114
61
-308
-61
223
-101
-284
42
166
-155
-96
217
11
-19
416
332
91
252
287
179
347
804
509
175
767
807
465
707
754
509
628
774
462
188
511
478
-94
248
414
-201
-100
91
-253
-280
116
-314
-752
-31
10
-623
-497
-97
19
-270
-295
-319
-561
-135
-51
-498
-475
-57
-81
-441
-155
-106
-369
-8
-21
-493
-270
132
-266
-442
-1
-126
-367
-121
34
-312
-395
-47
-350
-376
300
-70
-572
-91
31
-419
-367
148
-183
-397
59
-156
-533
-157
273
-327
-457
50
-235
-329
122
-17
-487
-223
80
-178
-270
-79
-179
-276
-51
-110
-368
-17
212
-264
-186
121
-19
1
131
110
-25
97
323
-105
-260
156
-194
-431
-29
-178
-414
185
155
-596
-329
79
-264
-399
-19
-34
-484
-107
725
1168
1867
2312
1661
410
-527
-791
-660
-145
115
-303
-421
7
-113
-350
114
-137
-464
-129
-110
-263
-205
43
-161
-145
55
-258
-274
24
149
-136
-212
-43
-190
-83
218
-3
-257
154
211
-167
71
215
1
50
453
499
133
472
519
102
488
737
621
795
864
719
525
808
947
354
489
876
498
194
417
439
-77
108
337
-180
-38
302
-209
-425
81
34
-373
-151
165
-281
-424
110
-76
-342
0
-146
-446
-18
197
-260
-326
-56
-220
-242
22
-92
-366
-57
189
-285
-148
224
-264
-467
36
-53
-280
113
32
-335
-162
53
-119
-286
-135
-68
-239
-138
-71
-154
-57
-71
-180
-81
-11
-58
32
-85
-172
-244
-254
164
-38
-425
86
288
-295
-146
103
-326
-202
115
-95
-218
90
108
-1
189
82
-126
131
327
113
209
394
102
-158
21
158
-166
-194
32
-144
-175
76
-11
-339
-180
123
-156
-96
117
-233
-207
505
975
1387
2245
2085
717
-258
-340
-441
-446
30
-103
-461
-106
204
-160
-305
19
-129
-305
87
146
-340
-224
35
-200
-48
283
9
-251
76
-14
-305
25
187
-27
289
369
-268
-108
256
79
153
364
248
69
268
329
270
430
462
390
396
697
753
296
708
1146
488
604
1162
606
290
715
595
170
385
729
96
-276
250
184
-183
39
-46
-408
-119
125
-252
-276
32
-236
-289
-66
-252
-263
-10
-92
-370
-350
-68
-38
-424
-214
406
-194
-594
12
-100
-317
120
149
-334
-79
207
-365
-239
175
-248
-385
26
-46
-365
3
132
-421
-318
174
-122
-399
-61
-16
-311
-82
288
-300
-498
40
-317
-403
270
-1
-566
-209
-13
-364
-269
-33
-129
-247
-71
46
-160
-108
-48
-189
-58
248
-23
-90
380
-17
-273
132
188
-137
-239
95
-102
-241
58
-256
-486
-134
-39
-317
-315
-147
-223
-163
-30
-278
-71
965
1573
1653
1820
1307
-277
-1058
-494
-372
-480
-114
-85
-205
-164
-84
-96
-320
-47
-53
-399
-25
-3
-443
-301
-10
7
52
129
-113
-407
88
218
-383
-70
216
-134
-162
192
98
-175
269
278
-216
71
437
178
199
562
468
170
474
693
427
509
762
519
558
939
561
431
893
804
528
526
395
110
156
311
-5
-57
93
122
-56
-277
-61
-138
-432
-229
-172
-354
-64
-112
-473
-176
4
-220
-173
-71
-309
-382
-123
-116
-324
-244
-32
-240
-201
143
-73
-225
50
-50
-487
-378
156
-3
-389
-67
-18
-424
-352
-5
75
-244
-363
-303
-246
218
-22
-607
-53
71
-466
-251
-29
-364
-382
-9
-164
-444
-145
-20
-289
-171
-35
-362
-371
-91
-162
-243
-74
-69
-295
-2
201
-230
-130
179
104
46
139
67
-44
238
283
-178
-228
139
-18
-241
-82
-26
-297
-303
-10
-183
-282
-107
-279
-431
25
-5
-379
254
927
1289
1892
2017
1132
-240
-839
-527
-417
-231
53
-336
-449
1
-152
-456
-83
113
-388
-361
18
-324
-195
289
-274
-555
-30
-65
-120
23
-88
-234
-207
219
-48
-490
145
269
-301
-273
155
95
-98
344
223
-107
327
292
1
330
561
359
467
717
673
511
557
644
541
646
783
583
442
654
372
-32
384
471
-166
-191
187
-60
-292
70
-67
-290
-46
-185
-311
-334
-275
-273
-280
-155
-387
-384
-88
-30
-313
-374
45
-261
-616
-51
-111
-506
-15
77
-332
-146
-67
-297
-152
-24
-187
-161
-74
-305
-480
-173
108
-146
-310
-122
-152
-365
-181
209
-155
-457
-74
-212
-273
82
-92
-145
-75
-157
-171
-294
-92
-161
-319
-47
-188
-409
30
73
-377
-144
17
-224
-237
78
-29
-497
-113
99
-211
130
293
44
10
94
-22
-45
336
237
-308
-90
228
-270
-237
151
-153
-256
-47
-127
-341
-241
24
-95
-185
-172
-444
-497
-25
287
400
1317
2287
1998
1316
558
-608
-937
-325
-163
-183
97
-57
-515
-295
127
-293
-317
130
-314
-504
-103
119
-94
-309
-20
-119
-213
149
55
-268
60
145
-368
-282
86
-38
-65
273
118
-215
39
455
196
94
407
3
-75
579
524
167
579
727
376
430
911
940
345
598
967
542
548
785
584
392
467
195
76
592
301
-186
-99
-90
-79
-93
-82
-232
-328
-24
-8
-282
-65
-32
-303
-224
-62
-168
-228
-7
-235
-623
-171
96
-330
-305
-74
-187
-84
14
-266
-264
-53
-121
-352
-208
146
-97
-318
46
-1
-236
-184
-174
-111
-74
-150
-246
-338
-98
100
-223
-137
17
-351
-218
179
-84
-381
30
158
-381
-373
3
-148
-238
8
-186
-253
97
-65
-341
-123
107
-55
-107
40
-244
-320
146
50
-345
26
161
-292
-50
488
125
-230
160
243
15
-6
40
-192
-229
235
-17
-545
-154
-50
-329
-47
-64
-501
-219
187
-194
-330
262
811
1379
2225
2335
1063
-114
-422
-918
-815
66
113
-350
-308
30
48
-198
-163
-223
-252
40
39
-101
-252
-238
-159
-136
99
-113
-232
97
0
-207
-140
-14
21
202
83
-210
-15
252
168
-126
-29
417
227
63
340
136
230
728
449
168
534
751
534
501
871
750
347
632
853
587
469
574
479
185
374
354
-39
100
137
-142
-122
-139
-246
-89
-9
-259
-294
58
-162
-475
-102
-130
-448
-235
17
-55
-325
-261
-55
-265
-119
33
-412
-414
-1
-30
-135
30
-177
-376
-11
-46
-349
-72
78
-252
-293
-6
-65
-224
-53
-80
-371
-277
-1
-195
-253
127
-149
-461
-114
-33
-377
-151
202
-267
-451
-100
-174
-323
-30
-14
-454
-556
-43
26
-321
-137
-183
-354
-68
-99
-298
-130
-52
-90
-183
-80
-88
-262
214
253
-287
-205
219
-17
-222
271
-43
-574
-190
23
-324
-299
157
-215
-669
-119
-128
-504
-49
130
-479
-315
573
906
1504
2175
1538
344
-296
-546
-704
-538
-36
-114
-326
-43
-307
-494
16
73
-423
-340
158
-151
-321
-60
-139
-173
83
30
-238
24
44
-171
89
156
-152
-266
-103
30
-177
-30
241
53
71
210
135
115
621
590
-78
240
536
252
432
777
645
370
712
868
480
575
904
662
630
849
320
204
544
346
21
-79
143
67
-182
130
-37
-304
82
-113
-483
-156
48
-384
-526
-155
-128
-270
-55
-69
-382
-217
-13
-150
-233
-243
-340
-347
27
-10
-275
-3
-64
-320
-160
63
-35
-343
-31
211
-410
-454
86
-20
-250
7
-98
-446
-109
89
-268
-108
-2
-350
-258
-5
-102
-368
-254
129
-124
-315
9
-352
-285
265
-254
-532
-16
-32
-364
43
244
-277
-351
-146
-197
-253
-34
152
-7
-251
-158
-183
-273
18
133
-11
-108
-124
-101
80
310
84
-82
218
187
-218
-217
134
-179
-408
-78
-205
-333
-46
-14
-213
-175
-142
-231
-3
145
-128
151
1082
1889
2097
1821
927
-504
-756
-267
-369
-260
-63
-274
-217
-91
-125
-198
-101
205
-272
-513
-5
-66
-336
-122
-67
-256
-74
68
-298
-193
293
-168
-478
-103
73
-44
-78
218
-16
-188
172
5
-100
169
372
178
-14
412
272
84
586
529
442
731
803
571
414
795
688
515
875
759
519
713
628
113
154
350
70
-117
41
15
-265
-206
-76
-103
34
-106
-384
-225
-7
-189
-492
-173
57
-275
-153
-72
-571
-455
163
-237
-554
-141
-84
-206
-181
46
-147
-450
-87
-165
-371
34
-63
-484
-222
220
-221
-530
120
3
-402
-99
-176
-442
-196
279
-172
-579
-49
-97
-366
-125
24
-304
-406
56
-204
-455
92
14
-476
-234
-48
-259
-183
-79
-130
-286
-138
75
-341
-322
11
-293
-219
205
35
-274
-66
-35
-218
35
80
-229
-111
348
178
-115
135
149
-151
-140
201
175
-19
-21
-292
-411
12
83
-243
-143
-105
-366
-239
39
-76
-330
-80
277
807
2023
2512
1855
1027
33
-640
-615
-252
20
-198
-237
30
-242
-249
22
-361
-361
81
6
-229
-47
44
-359
-224
344
-56
-415
56
-87
-318
164
370
-5
-246
0
21
-35
153
101
133
260
187
-6
18
426
391
230
362
361
574
681
545
604
880
731
497
854
887
646
695
734
660
544
600
671
276
129
346
123
-55
6
154
2
-157
207
-55
-328
48
67
-281
-70
74
-354
-69
216
-254
-355
53
45
-370
-83
14
-453
-58
173
-364
-328
41
-107
-196
18
-42
-287
-143
362
-9
-529
-10
-105
-354
133
-47
-406
7
199
-263
-381
1
-34
-209
-3
-15
-228
-68
130
-229
-322
142
-22
-305
-154
-73
-115
-98
5
-132
-203
47
129
-195
-22
116
-330
-219
-53
-225
-40
104
-128
-87
54
-125
-236
116
403
19
-145
216
92
-158
187
181
-286
-135
196
-224
-381
205
-62
-510
-210
-73
-225
-169
-29
-1
-16
136
571
1047
1915
2121
1055
186
-303
-839
-749
146
12
-543
-23
75
-520
-370
129
-243
-402
26
-13
-356
-170
-90
-369
31
79
-390
-185
151
-19
-235
62
198
-426
-285
413
-57
-280
107
0
93
344
82
-214
91
377
172
148
390
329
222
515
781
518
503
912
551
297
718
707
437
616
620
203
426
540
66
-54
71
-45
-228
-99
-7
-304
-253
195
-117
-376
-55
-115
-293
-213
-267
-427
-114
34
-396
-455
15
-110
-589
-235
-23
-323
-152
-22
-372
-195
150
-191
-323
101
8
-556
-104
235
-365
-283
126
-129
-253
-10
-100
-414
-178
283
-263
-541
63
-29
-280
-48
63
-106
-284
-102
-97
-403
-156
-52
-244
113
26
-370
-141
-92
-261
-84
127
-135
-373
46
88
-270
-160
-83
-178
-85
-21
-163
-109
156
266
11
-75
298
188
-262
-31
189
-179
-225
-10
-253
-370
-206
-253
-244
-89
-215
-413
-122
-70
-313
-255
163
527
899
1804
2040
1403
669
-442
-1047
-556
-185
-315
-241
3
-356
-525
10
-106
-553
-180
124
-294
-420
-18
-51
-397
-199
141
-251
-396
142
-86
-380
38
126
-187
-90
38
-281
-130
204
-121
-193
251
185
-12
332
249
-74
254
524
297
376
621
444
397
824
902
431
613
833
527
551
842
567
137
563
614
-40
39
213
-22
-2
-15
-262
-335
88
77
-225
49
-34
-353
-227
-23
-176
-415
-109
64
-326
-320
-37
-196
-287
9
-248
-618
-129
-119
-531
-231
-26
-418
-429
17
-145
-360
-78
-75
-313
-155
65
-268
-352
24
-190
-418
-12
-81
-163
61
-184
-386
-319
-196
-243
-246
40
-164
-488
-156
-167
-380
-158
-3
-188
-239
-41
-57
-323
-450
-133
-184
-330
47
-131
-429
-91
-9
-355
-304
-36
-248
-250
226
76
-277
-27
-4
-15
268
358
-97
-248
290
-56
-242
243
-30
-358
-172
-6
-196
-240
-6
-272
-512
-84
-13
-329
-205
-91
-192
204
893
1297
1637
2225
1838
158
-657
-472
-471
-315
132
78
-359
-151
60
-272
-128
57
-240
-176
189
-7
-228
374
288
-432
-88
334
98
-49
160
20
-331
-108
130
94
203
186
-1
129
383
208
120
522
406
80
336
682
535
271
531
626
432
850
1023
557
618
1092
1000
761
1088
957
519
695
731
289
293
491
119
120
457
-35
-207
590
244
-419
143
221
-467
-396
202
-14
-306
-30
-233
-431
0
80
-313
-439
-24
125
-221
-236
-314
-483
-56
111
-450
-514
-69
-181
-322
-58
-238
-503
-258
3
-163
-371
-140
-106
-422
-390
-308
-476
-189
17
-402
-389
-182
-488
-445
98
-229
-753
-355
24
-113
-427
-312
-383
-572
-86
-201
-697
-354
-24
-382
-384
-151
-463
-458
-166
-159
-387
-381
-157
-451
-476
-20
47
-145
-209
39
-160
-265
207
-38
-264
62
-57
-240
35
33
-365
-332
-113
-309
-236
-61
-387
-532
-217
-188
-551
-311
152
-200
-321
358
949
1621
2427
2091
524
-382
-553
-707
-346
145
20
-308
79
318
-180
-84
308
119
-212
-65
19
-147
36
24
-278
-51
255
-100
-67
305
130
-68
126
78
-114
162
98
-152
142
326
70
-11
338
410
-90
43
576
324
332
740
454
283
912
956
387
590
993
681
646
1113
676
320
786
759
511
485
400
313
338
264
54
-35
259
192
-233
-14
197
-31
-142
31
-50
-114
33
-89
-70
48
-31
-188
-118
307
77
-373
27
139
-220
-123
74
-115
-27
490
119
-157
271
-106
-269
87
158
-57
-155
316
207
-382
-80
124
-308
-155
97
-88
16
296
-75
-538
-91
37
-347
18
110
-361
-122
197
-184
-539
-187
77
-164
-19
156
-235
-122
345
-26
-366
-81
66
-136
-87
126
-114
1
494
118
-252
152
160
-18
320
222
-347
-72
471
-165
-622
-39
-36
-505
-301
36
-261
-349
28
-97
-323
-162
-173
-421
98
965
1373
1706
1656
803
-325
-763
-892
-824
-235
-151
-500
-176
30
-405
-403
-188
-312
-416
-259
-155
-454
-537
-286
-373
-577
-318
-81
-346
-338
-235
-686
-541
-21
-486
-698
-174
-345
-707
-421
-164
-504
-526
-37
-251
-712
-444
-8
-409
-446
-33
-351
-318
121
-8
-203
129
262
51
120
146
-102
71
50
-554
-576
-215
-301
-649
-604
-344
-729
-822
-253
-666
-998
-428
-497
-1087
-856
-426
-879
-977
-579
-851
-1013
-500
-701
-1020
-528
-493
-873
-865
-561
-660
-873
-463
-430
-743
-390
-202
-626
-811
-636
-675
-594
-321
-523
-755
-402
-241
-629
-506
-129
-476
-824
-397
-303
-568
-135
-250
-716
-413
-248
-340
-417
-357
-246
-574
-441
-90
-430
-324
1
-312
-400
22
-13
-380
-146
79
-8
45
87
-3
-7
175
39
-101
353
409
-145
-180
117
8
-244
171
198
-363
-36
164
-314
-165
355
-158
-290
335
127
191
819
1302
1656
1736
1247
-44
-876
-463
-10
-224
-245
90
-45
30
335
-42
-196
211
9
-302
96
400
36
-283
174
242
-178
259
392
-225
-135
269
189
230
343
-21
-86
299
229
48
313
505
225
20
461
510
233
512
616
287
336
696
532
621
1041
757
646
1030
797
366
774
977
527
552
784
426
-12
280
367
9
176
327
-115
-72
315
-31
-127
417
185
-324
64
244
-176
-149
112
117
-106
-49
82
-209
-56
169
-204
-229
191
-52
-231
180
154
-41
-126
-81
-148
-86
401
6
-424
85
206
-171
-116
46
-191
-207
147
180
-122
-113
-59
-243
-30
177
-159
-164
263
31
-398
56
27
-495
22
291
-352
-362
57
21
-210
-74
4
-187
-19
-86
-376
-114
113
-197
-178
70
-54
-230
-97
263
-21
-215
328
187
-253
148
397
-82
-135
157
-34
-119
14
-248
-283
103
-90
-463
-246
-1
-297
-219
187
-63
-330
-121
498
966
1564
2056
1384
507
-131
-626
-612
-236
-83
-354
-178
-8
-337
-181
80
-243
-262
55
48
-160
-247
-16
-208
-366
37
-72
-237
-4
-45
-125
11
-11
-270
-185
197
52
-71
156
-29
-108
77
227
119
127
477
83
-44
474
367
266
517
673
560
502
825
657
383
710
834
629
651
633
235
178
622
357
-110
115
186
-161
-194
110
-55
-179
30
-191
-251
-35
-106
-229
-252
-36
-171
-408
-170
-182
-284
-6
-69
-397
-231
58
-123
-335
-107
-159
-219
0
-121
-318
-20
9
-487
-243
91
-203
-242
-140
-282
-387
-209
-58
-266
-215
-80
-400
-336
9
-148
-255
12
-105
-467
-260
-57
-369
-463
-161
-73
-231
-71
-41
-451
-365
154
-75
-483
11
56
-492
-279
-48
-278
-125
159
-159
-308
70
39
-191
-46
91
-10
136
421
124
-264
47
158
-76
232
98
-425
-150
240
-194
-490
1
-47
-294
28
92
-244
-319
-47
-68
115
1096
1691
1732
1811
1142
-259
-779
-354
-198
-176
-107
-126
-300
-119
-15
-459
-292
85
-92
-206
-42
-87
-359
-193
-15
-233
-128
156
-150
-296
171
10
-462
-119
308
-35
-260
103
-23
-331
69
349
107
-16
208
140
35
384
393
151
472
699
320
453
713
370
532
1025
697
333
714
882
539
541
612
102
73
557
228
-139
146
140
-115
-132
-9
14
-119
-82
-42
-85
114
-75
-322
4
44
-300
-269
100
-129
-409
99
284
-240
-198
57
-246
-307
222
118
-505
-52
103
-399
-132
246
-8
-363
-83
50
-178
112
130
-247
-105
88
-73
-37
17
-210
-278
54
133
-183
-125
23
-90
-53
96
-97
-121
241
59
-480
-118
312
-238
-266
260
138
-281
76
186
-359
-59
190
-141
-134
344
228
-207
305
343
-203
44
302
73
146
458
141
-39
359
171
-176
-37
105
-77
-192
145
93
-254
-40
18
-363
-148
163
-188
-293
229
601
768
1599
2149
1690
1049
246
-665
-513
23
-265
-265
-10
59
4
-57
79
-225
-308
110
-43
-64
253
140
-170
-106
102
-51
54
246
-22
-211
63
104
-164
205
394
-177
-62
293
107
75
298
218
-126
323
599
136
338
614
278
206
577
733
554
703
952
673
503
827
898
681
694
703
411
406
657
345
227
446
6
-176
265
228
-222
-168
168
-79
-156
145
-122
-310
51
73
-251
-52
125
-253
-266
21
-112
-48
107
-214
-369
-142
180
-59
-331
47
-50
-121
108
-137
-300
-94
172
130
-56
-40
-121
-177
109
63
-315
-155
97
-132
65
222
-137
-154
38
72
-147
-12
146
-291
-167
228
49
-171
-60
-26
-117
129
265
-183
-127
383
-106
-268
364
188
-349
-148
356
31
-170
252
101
-185
142
322
55
175
341
-63
105
799
291
-155
377
436
33
144
335
-51
-11
304
79
86
202
-68
-122
63
50
-154
-85
392
239
64
964
1404
1594
2354
1992
260
-587
-286
-250
-185
234
137
-264
-3
271
-86
-126
227
183
86
120
-61
-145
136
122
-248
-28
317
96
-23
201
219
23
153
312
83
74
420
369
214
510
646
445
391
538
425
439
838
562
440
929
686
376
850
1116
660
744
1307
1034
697
1152
972
579
1108
917
236
472
733
299
59
442
516
60
84
265
-34
35
297
-27
-166
70
165
-75
-181
246
-15
-282
144
-41
-218
97
-33
-368
-177
176
-15
-299
-38
0
-315
-35
141
-356
-75
165
-491
-259
160
-201
-237
25
-175
-403
-165
15
-96
-318
-45
61
-412
-245
-89
-379
-117
131
-299
-316
70
-41
-393
-183
-15
-365
-138
118
-289
-316
-17
-262
-289
45
-57
-206
-186
-50
-79
-183
58
-134
-513
-141
-9
-232
142
188
-337
-195
293
-5
-205
145
143
-164
-127
30
-198
-58
112
-375
-544
-13
141
-404
-519
-91
-151
-340
-88
-198
-470
148
888
1162
1728
1890
864
-108
-329
-725
-836
-268
-194
-358
39
37
-425
-269
28
-180
-422
-4
-14
-582
-215
6
-259
-48
99
-174
-480
-27
193
-326
-182
225
-175
-294
184
-76
-246
56
184
-98
-99
379
59
-31
429
337
94
274
489
311
444
645
328
378
774
760
466
564
732
375
525
865
496
133
111
23
35
102
-86
-227
-155
136
-132
-513
-186
-203
-389
-197
-251
-410
-99
-80
-570
-373
-9
-254
-312
-112
-303
-503
-257
-60
-394
-472
-61
-190
-500
-239
-118
-415
-238
-52
-344
-325
-103
-305
-583
-222
8
-409
-448
-235
-435
-382
33
-243
-725
-292
-99
-576
-201
10
-654
-441
4
-516
-759
-158
-54
-482
-219
-111
-660
-555
-99
-341
-503
-172
-192
-598
-409
-8
-414
-405
149
-99
-594
-216
179
-178
-178
84
-191
-179
234
-78
-533
-259
-174
-512
-400
-230
-326
-345
-229
-201
-604
-458
-192
-421
-227
-71
210
717
1332
2014
1586
482
-354
-1082
-890
-313
-488
-491
-6
-48
-568
-383
-184
-344
-231
-105
-248
-352
-194
-296
-397
-59
-39
-437
-305
-73
-411
-248
232
-15
-385
-215
-83
-240
24
177
-242
-201
206
111
-82
167
311
34
295
584
-5
74
639
463
222
686
979
437
438
921
590
433
848
582
134
373
415
-37
120
287
-37
-33
5
-208
-383
-250
-2
-95
-244
-213
-202
-201
-193
-257
-376
-155
-165
-403
57
81
-528
-406
20
-235
-353
-60
-219
-395
-45
126
-304
-383
93
25
-398
-160
-2
-256
-46
172
-300
-271
97
-163
-122
7
-63
-260
-297
-102
-328
-331
25
-122
-364
68
179
-356
-217
311
-151
-426
196
-24
-460
-57
66
-307
-156
85
-271
-326
124
-21
-421
23
210
-61
197
187
-176
-118
249
360
52
-39
210
29
15
223
-217
-195
128
-137
-383
5
114
-417
-270
71
-192
-353
19
12
-245
356
1041
1368
2000
2195
1049
-293
-513
-552
-505
55
14
-353
-267
128
-20
-364
31
31
-373
-6
154
-440
-149
277
-353
-420
93
0
-220
-53
98
-72
-179
103
150
3
182
-25
-257
163
185
-136
114
276
71
216
417
326
297
366
550
531
472
668
455
651
922
459
476
812
684
481
595
696
424
252
430
251
-35
244
235
-221
29
197
-279
-296
58
-6
-320
-159
-10
-384
-327
108
-54
-284
-35
-26
-283
-214
-76
-233
-202
7
-254
-360
16
-23
-331
-107
18
-282
-127
8
-258
-156
93
-76
-352
-109
96
-154
-162
1
-175
-281
101
-47
-350
-24
-39
-288
-154
171
-115
-387
118
-178
-407
167
20
-293
-44
57
-223
-99
220
-167
-453
63
113
-386
-120
206
-176
-143
254
169
-62
7
111
150
160
118
52
23
336
241
-123
112
113
-52
80
-29
-78
-134
-4
-128
-419
90
105
-395
-165
176
-45
-162
410
1045
1592
2177
1887
775
-56
-332
-764
-527
224
-4
-323
-60
89
-111
-89
125
-9
-255
-29
73
-226
-11
90
-189
30
184
-114
23
242
-88
-100
413
215
-327
9
332
103
109
293
171
-6
157
338
146
212
571
491
373
598
459
333
902
985
642
877
998
818
891
1123
947
606
890
957
344
403
754
361
33
200
199
9
169
121
-293
12
181
-200
-73
-3
-212
-280
12
87
-239
-36
70
-405
-268
251
-101
-464
17
-72
-382
6
14
-367
-385
21
-23
-378
-44
-32
-431
-102
253
-296
-417
109
-247
-511
-77
-75
-342
-151
-150
-343
-222
-119
-184
-341
-325
-121
-234
-421
-170
-237
-188
-36
-381
-342
-77
-239
-524
-167
106
-437
-426
69
-2
-415
-340
-87
-296
-156
52
-319
-472
-94
-34
-267
1
105
-191
-51
61
-139
-133
186
50
-285
-58
153
-143
-297
-67
-353
-441
63
-170
-529
-237
-109
-438
-304
-74
-388
-128
53
-144
251
1154
1981
1704
887
331
-723
-1209
-496
-359
-483
-42
-58
-480
-289
23
-333
-304
90
-436
-585
16
-101
-331
-148
-91
-346
-453
-58
-78
-316
-9
-6
-371
-6
254
-265
-208
134
-101
-273
120
207
-133
-104
288
233
38
228
190
334
517
310
261
536
749
539
388
826
817
337
591
690
412
505
353
-65
-60
211
157
-11
-40
-202
-293
-34
12
-302
-383
-78
-153
-456
-35
-73
-646
-408
-53
-328
-286
64
-328
-492
-82
-73
-275
-12
91
-424
-390
79
-138
-336
-20
-30
-306
-279
-46
-90
-169
88
-149
-488
-163
-104
-357
-237
102
-32
-273
-89
-142
-221
-100
-242
-504
-165
150
-333
-389
-15
-46
-348
-232
-94
-316
-160
-38
-198
-76
-100
-360
-93
-47
-387
-461
-137
30
-282
-145
0
-251
-368
80
285
-205
-124
162
-35
-166
100
184
-20
34
75
-253
-87
305
-109
-394
-150
-101
-234
-119
-70
-358
-162
159
-339
-595
10
57
-386
225
1266
1639
2036
1975
539
-582
-510
-465
-328
22
-267
-443
-208
-78
-130
-313
129
216
-527
-334
133
-301
-372
124
-136
-330
93
-76
-200
132
-25
-330
32
385
-118
-270
160
64
-69
85
88
-10
90
260
235
187
227
360
205
275
614
409
543
802
457
561
1038
670
451
988
847
393
611
614
353
389
279
89
-21
114
238
-185
-134
238
-93
-307
-8
-91
-294
-37
-46
-277
-162
-36
-267
-199
100
-105
-431
-253
52
-188
-241
-20
-201
-148
15
-202
-346
-51
34
-298
19
219
-281
-121
64
-340
-232
19
-66
-269
-158
100
-205
-146
186
-324
-515
102
173
-374
-199
172
-210
-355
-48
-94
-268
-24
-7
-283
-120
-4
-134
-141
-3
-145
-393
59
89
-276
25
171
-251
-267
4
48
180
-156
-414
-247
-20
217
-4
-33
293
128
-146
108
226
-20
376
589
7
-250
-43
114
-219
-132
227
-197
-263
40
-186
-176
144
-86
-445
-36
238
-102
259
1012
1279
1740
2273
1414
-219
-581
-232
-486
-360
147
-161
-165
133
-199
-235
90
-38
-296
45
215
-243
-176
196
-23
-202
-17
101
-49
-54
208
6
-129
223
54
-214
248
253
-101
-38
146
183
52
380
257
-15
521
413
153
478
541
548
516
601
632
466
823
998
595
535
865
773
494
611
626
259
190
302
189
86
154
-25
-248
142
121
-338
-109
94
-311
-127
263
-191
-446
-7
-44
-346
-146
-100
-148
-146
-52
-120
-297
160
76
-444
-128
-1
-277
-114
124
-91
-364
23
16
-494
-6
100
-501
-69
171
-387
-466
63
202
-367
-240
-55
-465
-283
201
-97
-418
35
81
-381
-324
-58
-280
-393
-59
-152
-349
17
-82
-245
-142
-242
-330
-179
110
-352
-555
-120
-163
-310
-86
67
-308
-254
204
-149
-257
51
-58
-132
46
137
-160
-192
217
65
-275
106
53
-414
48
203
-521
-424
-44
-276
-217
-54
-322
-500
-256
-92
-364
-270
39
-108
507
1526
1885
1929
1610
375
-1007
-869
-340
-344
-131
-11
-307
-440
-140
33
-180
-320
-113
-256
-431
-11
-27
-459
-129
142
-442
-433
134
-27
-303
-4
27
-310
-88
158
-308
-273
273
2
-260
138
63
-245
175
419
95
17
137
44
287
649
380
166
558
744
239
457
856
355
388
809
480
64
384
647
182
-100
106
-109
-269
26
-260
-481
-82
-93
-563
-498
-184
-421
-478
-85
-343
-612
-121
-280
-609
-305
-204
-380
-441
-204
-93
-354
-326
-204
-430
-316
-13
-247
-313
16
-165
-414
10
46
-521
-300
-5
-324
-259
-100
-207
-423
-204
-42
-395
-157
-105
-463
-360
-29
-43
-422
-274
-130
-495
-279
-26
-206
-262
-131
-153
-475
-246
-45
-398
-209
-19
-394
-405
56
-60
-503
-248
-74
-285
-246
-88
-212
-322
21
-19
-390
-67
157
-304
-262
98
-201
-214
235
108
-109
172
222
-40
91
19
-370
-191
271
-74
-603
-178
78
-213
-354
-20
-194
-354
207
-89
-494
-104
307
351
1090
2257
2052
1104
236
-543
-853
-379
130
-292
-248
100
-376
-511
13
57
-331
-171
-43
-344
-277
101
-60
-121
58
-192
-280
-88
25
-266
-131
307
-57
-224
17
-58
-225
68
396
-20
-146
415
223
-84
338
275
7
330
412
291
698
672
277
488
852
804
470
693
856
513
734
826
471
434
565
385
103
281
246
-200
64
352
-182
-261
157
-99
-424
-60
23
-373
-254
-42
-283
-239
-63
-158
-345
-145
81
-369
-379
71
-62
-322
-168
-76
-80
8
-199
-394
-214
-2
-116
-193
85
-51
-387
-172
-64
-236
-176
-29
-181
-301
18
-53
-374
-1
90
-438
-279
117
-221
-356
-78
-143
-227
22
-14
-420
-176
239
-237
-375
276
40
-419
-32
-156
-609
-281
341
-14
-406
53
61
-322
-302
-104
-80
-121
-60
-8
-146
-172
34
-54
-39
307
-58
-100
418
81
-98
316
103
-345
61
236
-246
-232
36
-206
-269
199
-192
-554
-42
90
-322
-439
95
138
-267
414
1171
1561
2201
1859
492
-334
-482
-443
-224
-151
-234
-459
-212
118
-149
-212
-50
-179
-270
-15
-98
-339
-62
137
-193
-224
145
-74
-245
81
-107
-405
-10
222
-132
-163
186
174
-96
122
114
-224
217
363
-87
197
611
348
321
494
282
300
607
794
623
497
764
789
614
767
905
548
464
640
319
414
628
79
-89
397
241
-307
-43
227
-233
-303
69
-69
-261
-73
-194
-334
105
132
-308
-409
-279
-261
-211
84
-239
-480
96
139
-401
-290
204
-185
-453
-2
-39
-304
-47
-27
-329
-212
98
120
-302
-273
-100
-348
-47
246
-317
-420
23
-160
-191
204
-40
-377
-57
-69
-398
-117
112
-80
-172
-135
-140
-251
-28
109
-230
-158
68
-286
-371
-19
-134
-152
36
-167
-288
-185
-9
-98
-293
27
72
-324
-137
-10
-148
117
162
-204
-167
333
232
-69
226
174
-118
12
65
-141
-234
-4
-80
-426
-133
11
-332
-116
161
-75
-339
-41
68
-234
550
1430
1552
2014
2056
582
-620
-592
-657
-481
127
143
-310
-129
138
-210
-213
201
246
-172
-84
133
-188
-6
257
-76
-118
192
167
-56
80
319
-67
-222
243
116
-92
277
340
10
281
485
19
71
450
271
198
594
500
164
600
822
414
532
806
712
789
935
652
469
912
1051
705
544
650
487
169
362
346
44
267
307
-161
-160
162
4
-260
91
90
-446
-29
268
-330
-113
337
-182
-315
105
47
-162
131
175
-329
-171
202
88
-258
-254
-93
-285
-39
189
-145
-333
115
144
-509
-270
72
-234
-92
71
-359
-191
286
-201
-507
-143
-61
-378
-65
164
-543
-382
105
-144
-144
56
-215
-526
36
259
-488
-403
26
-342
-407
-46
-209
-377
-82
-174
-396
-144
-35
-220
-298
-61
-172
-470
-247
-139
-193
-66
-23
-232
-275
34
15
-74
121
26
-383
-310
178
-98
-370
-57
-220
-444
-83
-52
-558
-525
-31
-103
-293
-16
-285
-648
-188
116
335
1235
1929
1729
1029
260
-513
-1011
-722
-231
-386
-447
-71
-244
-435
-180
-81
-286
-490
-289
-270
-304
-24
-174
-313
-44
-49
-385
-257
-92
-328
-184
20
-171
-139
260
-32
-590
-53
335
-112
-67
140
-58
-67
281
355
110
287
362
190
449
616
448
375
638
748
394
538
901
558
501
722
309
150
488
365
-50
88
167
-232
-152
64
-208
-456
-240
-166
-336
-233
-301
-505
-406
-167
-356
-636
-255
-180
-646
-342
11
-457
-431
-92
-413
-561
-15
-8
-567
-177
58
-502
-341
93
-202
-444
-130
-182
-477
-161
65
-359
-424
-78
-175
-286
-124
-129
-433
-152
301
-348
-438
-38
-349
-351
41
14
-454
-317
-10
-349
-339
9
-110
-272
-15
-172
-549
-64
68
-448
-258
44
-326
-376
-2
-75
-390
-306
-7
-223
-374
-20
-77
-279
17
62
-94
100
18
-281
-13
280
-89
-306
81
-75
-544
-223
4
-296
-369
-139
-52
-359
-355
-221
-328
-112
-134
-483
-188
844
1555
1779
2265
1478
-367
-685
-421
-598
-404
-45
-266
-370
42
-159
-490
-209
-79
-219
-159
-13
-283
-347
82
-200
-498
46
126
-264
-164
77
23
-231
-56
251
-76
-44
178
-238
-152
495
119
-293
273
301
-16
228
403
253
576
779
230
261
826
667
382
752
928
748
701
816
585
376
643
673
448
313
170
-117
71
410
123
-202
-45
-51
-201
8
-108
-279
-154
-146
-156
-143
-149
-225
-312
-167
-40
-264
-148
119
-246
-401
-142
-215
-171
141
-92
-434
-187
33
-244
-242
115
-97
-78
210
-130
-406
-171
138
-130
-305
59
-112
-353
-82
9
-202
-69
242
-164
-461
-77
59
-236
-207
108
-107
-203
108
-109
-362
31
31
-315
20
123
-304
-192
147
-196
-299
241
57
-361
10
148
-172
-143
97
-42
-103
311
120
-376
241
547
-68
60
281
10
3
149
64
-53
52
127
-208
-46
359
-203
-359
83
-101
-363
-21
286
-255
-407
22
-184
278
1394
1774
2044
1850
798
-280
-819
-458
-139
-243
34
71
-318
-141
140
-132
-104
46
-316
-279
190
98
-299
-12
291
-158
-245
166
40
-92
149
23
-92
178
124
-63
115
129
-31
80
368
292
-40
255
389
6
313
816
461
147
611
632
427
819
882
539
718
1092
790
385
746
860
506
557
666
345
62
305
155
-57
194
22
-219
39
212
-239
-324
58
-144
-250
41
-28
-342
-83
66
-374
-192
27
-280
-146
134
-175
-409
-47
17
-325
-117
29
-272
-220
209
113
-317
-105
55
-262
-255
83
-22
-365
-175
-87
-398
-139
186
-233
-336
158
44
-309
-161
67
-134
-328
-34
-286
-320
208
-277
-524
157
51
-392
35
134
-272
-352
-156
55
-114
-137
-128
-339
-145
-109
-410
-159
292
-11
-384
119
296
-200
-115
137
51
152
278
-158
-254
276
232
-232
-238
-46
-209
-183
32
-221
-481
-97
147
-317
-234
-66
-368
-88
42
-113
420
1312
1855
1790
1263
250
-739
-891
-508
-418
-354
66
-29
-382
-177
140
-260
-467
24
-199
-381
29
-102
-368
-108
62
-331
-359
168
-36
-221
114
-170
-299
129
143
-35
118
169
-99
-151
235
271
-10
281
357
-22
123
420
310
193
538
613
367
604
630
277
567
997
655
379
593
569
248
271
321
-98
-96
321
-3
-400
-122
-214
-504
-238
-161
-433
-494
-307
-377
-538
-388
-450
-545
-384
-380
-525
-461
-189
-482
-627
-165
-370
-624
-410
-304
-356
-438
-311
-269
-473
-179
-199
-712
-494
-204
-337
-327
-131
-469
-564
-27
-205
-591
-255
-225
-571
-390
-30
-182
-529
-354
-246
-468
-266
-23
-463
-448
93
-186
-518
-210
-99
-313
-275
-66
-343
-457
-44
-124
-364
-233
-94
-148
-246
-261
-434
-258
96
-332
-509
65
43
-496
-159
113
-289
0
358
-167
-263
225
68
-32
105
-170
-407
-91
119
-287
-391
78
-120
-621
-209
-59
-514
-172
320
-380
-640
30
99
188
1108
1893
1911
1801
1119
-442
-966
-317
-239
-439
-174
116
-240
-304
161
-194
-374
65
80
-196
-234
-74
-326
-162
274
-240
-425
110
20
-159
96
51
-78
-104
40
88
-122
266
191
-447
-59
325
-134
-7
546
119
-80
512
296
126
807
602
103
603
884
509
476
852
816
668
851
647
278
612
716
192
110
408
225
-273
-67
131
-108
-68
23
-1
-255
-325
-278
-317
-30
-14
-341
-387
-101
-116
-302
-153
-142
-449
-296
5
-335
-458
-115
-53
-246
-147
-266
-466
-39
-84
-414
-143
89
-310
-606
93
156
-518
-176
19
-395
-222
53
-416
-475
77
-153
-428
-37
-49
-521
-169
254
-353
-413
-75
-257
-317
-68
-34
-242
-156
35
-58
-341
-87
144
-209
-247
-216
-375
-196
46
-38
-210
-69
-81
-237
40
218
-114
-94
237
10
-87
195
90
-109
111
309
25
-141
70
-135
-264
92
-62
-286
2
96
-315
-351
27
-108
-309
0
106
-61
629
1546
1850
2243
2034
372
-770
-456
-282
-426
64
198
-484
-189
431
-161
-448
202
75
-337
-98
48
-91
-55
109
-118
-131
163
56
-237
105
430
15
-57
177
79
-7
94
54
203
396
164
176
307
262
262
359
560
410
237
545
689
536
702
993
821
711
894
849
822
1011
970
618
555
731
660
535
507
345
59
240
305
-133
-9
309
-3
-270
128
242
-238
-138
230
-91
-142
143
-188
-113
260
48
-218
-168
-76
-285
-66
258
-157
-328
157
116
-201
10
33
-124
-39
188
24
-325
144
194
-280
230
198
-456
-177
113
-170
-164
201
46
-307
100
244
-230
-168
187
-9
-292
46
58
-224
121
311
-214
-335
178
90
-216
67
172
-108
-16
8
-338
-7
357
-145
-296
216
175
-110
243
173
-283
189
504
85
52
308
245
-85
59
183
-101
23
240
-20
-81
202
-150
-423
39
156
-268
-167
177
-77
-127
304
587
1045
1961
2375
1492
378
-254
-870
-750
16
57
-167
-60
-93
-226
-110
116
-141
-294
100
-12
-367
87
235
-386
-205
338
-35
-261
318
38
-495
-20
286
44
-40
118
14
-131
180
105
-140
338
270
-160
163
521
189
38
523
554
248
630
839
361
520
825
481
485
889
743
454
875
743
123
372
430
214
281
101
-174
-82
100
-99
-339
-162
125
-263
-437
44
-135
-421
-109
23
-354
-410
-162
-215
-246
-126
-92
-325
-282
28
-199
-239
1
-127
-280
-121
-69
-409
-83
173
-453
-316
239
-227
-409
146
59
-324
-247
-186
-359
35
218
-343
-368
-59
-177
-375
-134
-42
-409
-248
262
-183
-476
34
-217
-490
97
121
-394
-165
30
-347
-366
-68
-93
-301
-109
15
-272
88
372
-203
-273
151
19
-242
147
179
-122
149
171
-189
-247
145
179
-251
-22
83
-371
-199
-44
-395
-381
-128
-214
-418
-176
-118
-460
-206
-71
-447
-195
782
1437
1596
1927
1249
-359
-842
-641
-718
-485
-114
-334
-613
-419
-233
-336
-451
-323
-518
-505
41
-334
-683
-205
-130
-351
-192
-160
-529
-441
5
-125
-425
-167
-142
-394
-259
-142
-147
-326
-224
-33
-259
-80
34
-183
-27
207
114
80
346
463
283
578
688
165
429
768
481
384
595
525
382
716
486
-71
184
443
30
-406
-52
18
-444
-167
-33
-358
-212
62
-225
-290
97
-266
-366
175
-59
-320
-168
-178
-355
-241
183
21
-371
-239
-27
-111
-92
-16
-287
-320
80
17
-251
-28
-58
-376
-175
149
-153
-458
-155
-183
-530
-309
-194
-573
-539
-381
-767
-787
-353
-576
-807
-387
-470
-960
-758
-512
-797
-655
-426
-789
-1022
-736
-567
-863
-819
-740
-775
-783
-978
-1096
-1275
-980
-978
-1387
-1073
-1067
-1468
-1470
-1433
-1474
-1560
-1592
-1517
-1793
-1748
-1362
-1632
-1730
-1443
-1712
-1967
-1666
-1756
-2086
-1855
-1700
-1950
-1998
-1709
-1953
-2443
-2089
-1893
-2268
-1996
-1867
-2485
-2416
-2026
-1916
-1265
-327
236
-212
-1098
-1857
-2691
-2578
-1747
-1885
-2529
-2156
-1887
-2243
-1963
-1574
-1914
-2063
-1650
-1626
-1800
-1431
-1154
-1534
-1504
-1186
-1353
-1268
-1055
-1271
-1433
-1154
-1110
-1399
-1164
-833
-994
-820
-731
-1138
-1012
-436
-411
-690
-329
-12
-173
-9
550
719
400
594
855
652
989
1335
1073
1200
1666
1410
1112
1459
1429
1121
1274
1283
887
836
1082
891
580
932
985
453
665
903
504
504
846
660
414
723
789
418
603
981
562
417
837
636
396
774
791
400
580
730
446
546
853
622
393
723
839
563
688
851
557
547
847
720
590
877
800
509
746
886
647
780
1071
829
584
928
997
669
951
1207
832
792
1163
1030
783
1135
1204
863
1033
1163
792
888
1220
973
887
1187
1084
762
997
1221
852
909
1298
1128
984
1188
1193
1039
1256
1459
1177
1038
1323
1168
938
1337
1249
863
1081
1247
983
1019
1243
981
776
1113
1156
776
1060
1350
886
1172
2210
2622
2820
2938
2079
789
418
588
547
738
1097
945
640
919
1069
721
839
1069
798
838
1063
834
718
972
975
761
1016
1195
817
851
1145
907
904
1145
866
694
1011
1055
786
877
1121
961
846
1187
1128
739
1015
1272
892
931
1295
1120
1026
1373
1374
1061
1331
1504
1089
1190
1490
1208
892
1119
1085
602
731
870
468
437
724
457
191
532
480
58
208
419
222
178
369
128
-11
452
337
-40
232
322
-36
9
345
210
59
312
240
-2
239
460
86
-28
333
147
15
380
275
-55
156
288
-63
-10
354
31
-47
347
84
-228
-6
223
-51
-139
154
-11
-94
179
54
-247
3
287
-46
-112
234
1
-190
289
245
-257
-37
191
-111
-34
226
-77
-195
239
204
-103
139
284
-61
110
450
56
-48
349
294
-55
20
157
-125
-220
36
-71
-326
-12
12
-302
-105
-66
-360
-322
-54
-120
-306
220
852
1029
1595
1879
933
-44
-474
-891
-687
11
-115
-579
-256
16
-359
-331
-15
-235
-414
-165
-130
-394
-195
-18
-301
-242
-74
-314
-431
-90
-122
-353
-112
-97
-367
-219
92
-125
-342
-67
29
-141
-87
55
-172
-130
290
126
-22
346
322
51
342
549
279
362
663
585
359
520
592
310
508
599
133
97
383
66
-269
1
-26
-244
-180
-198
-363
-352
-131
-257
-562
-340
-262
-551
-274
-97
-481
-466
-220
-389
-518
-234
-256
-504
-216
-113
-433
-361
-93
-300
-376
-38
-227
-422
-75
-82
-425
-335
-80
-260
-337
-71
-165
-422
-148
42
-318
-282
-26
-287
-379
-11
-67
-396
-139
33
-386
-330
12
-290
-374
19
-102
-422
-198
12
-234
-316
-113
-298
-376
-34
-106
-363
-145
-1
-342
-303
13
-274
-388
75
35
-334
-132
109
-96
-72
168
-77
-212
141
19
-255
-9
-50
-451
-294
27
-273
-413
-132
-191
-447
-251
16
-303
-359
-8
-199
-28
1021
1584
1698
1868
1033
-467
-834
-424
-446
-393
-13
-175
-524
-189
9
-398
-302
9
-350
-409
-56
-218
-367
-142
-135
-424
-270
8
-315
-406
-64
-115
-362
-173
-66
-343
-232
101
-172
-334
45
-67
-326
-9
153
-98
-31
335
118
-70
431
407
85
388
509
306
565
720
404
429
729
536
236
451
430
-18
5
250
-91
-285
123
-63
-508
-178
-55
-392
-300
-94
-374
-525
-67
-49
-601
-378
-89
-518
-467
-132
-394
-517
-125
-235
-566
-310
-228
-494
-358
-124
-320
-440
-332
-362
-465
-227
-142
-468
-352
-101
-367
-486
-215
-213
-441
-317
-167
-424
-415
-73
-336
-580
-190
-290
-465
-108
-105
-455
-399
-170
-375
-417
-130
-228
-374
-179
-169
-425
-335
-65
-307
-406
-81
-254
-531
-177
-28
-379
-281
-71
-346
-337
-14
-100
-239
-6
67
-164
-13
251
-101
-227
132
20
-247
-67
-12
-333
-262
-30
-328
-386
-8
-155
-392
-68
-159
-482
-119
70
-214
88
1068
1714
1877
1934
1089
-345
-719
-329
-319
-443
-45
-26
-453
-155
-56
-462
-200
107
-239
-271
37
-207
-388
-35
-36
-310
-99
105
-219
-329
-12
-109
-273
63
10
-325
-96
137
-144
-185
181
98
-154
169
302
-80
126
467
171
153
474
364
224
653
726
297
535
868
458
309
713
589
281
586
542
31
174
383
-76
-203
205
-10
-376
-27
-39
-456
-233
0
-355
-444
-48
-111
-331
-139
-200
-478
-314
-51
-320
-399
-74
-319
-512
-203
-169
-472
-397
-116
-461
-516
-73
-219
-425
-142
-153
-468
-262
23
-272
-384
-77
-195
-443
-64
-38
-538
-351
-88
-348
-289
-76
-300
-391
-37
-74
-431
-230
-64
-333
-296
-57
-192
-339
-100
-89
-400
-216
-10
-263
-263
-33
-172
-402
-180
-43
-214
-154
-8
-227
-248
93
-24
-191
65
117
-81
60
235
-79
-235
113
-35
-388
-77
25
-316
-254
-82
-253
-281
-75
-226
-425
-57
36
-294
34
824
1305
1611
1764
995
-182
-601
-650
-600
-241
66
-188
-389
-59
-191
-425
17
5
-426
-121
102
-296
-323
27
-74
-290
-55
6
-240
-96
88
-204
-173
159
-88
-161
193
-6
-255
3
142
-70
-27
290
150
-45
251
351
117
370
675
246
228
755
649
431
704
714
425
625
850
553
440
597
383
176
359
227
-102
149
258
-183
-190
101
-170
-341
-16
-53
-410
-244
29
-375
-306
124
-301
-463
-53
-107
-380
-191
-66
-374
-293
26
-284
-377
103
-102
-467
-146
54
-330
-388
38
-100
-357
-4
3
-394
-246
-21
-269
-336
-37
-200
-349
-19
-111
-385
-192
-55
-310
-294
-17
-216
-401
-60
-5
-314
-157
-49
-404
-380
13
-108
-368
-35
-48
-375
-6
93
-416
-373
35
-71
-316
-62
19
-161
-8
67
-167
-72
249
43
-157
114
126
-159
-60
94
-316
-352
85
-155
-438
-145
-117
-357
-140
26
-368
-398
-13
-223
-311
449
1033
1360
1980
1864
465
-505
-463
-611
-644
-106
10
-419
-283
-25
-330
-341
-13
-193
-415
-119
16
-316
-278
21
-236
-237
44
-160
-314
39
89
-304
-163
14
-252
-167
55
-49
-100
79
46
-175
62
241
-13
57
382
180
63
495
491
201
380
619
525
537
731
592
476
752
654
377
600
619
189
97
355
209
-74
142
101
-319
-105
61
-354
-292
51
-230
-468
-44
-103
-526
-190
-52
-439
-357
-40
-286
-436
-23
-183
-577
-239
11
-315
-355
-38
-228
-425
-65
-97
-431
-161
21
-321
-213
80
-225
-329
-11
-75
-369
-214
35
-302
-381
7
-178
-342
-14
-82
-437
-187
70
-315
-271
66
-241
-416
-31
-110
-423
-114
-16
-349
-216
84
-260
-464
-78
-85
-323
-128
-43
-315
-110
211
-104
-189
199
88
-181
142
313
34
99
291
136
161
332
160
4
226
225
-143
-71
158
-125
-205
54
-20
-171
-169
-160
-321
-266
40
-196
-282
85
-1
110
1057
1802
1800
1593
872
-387
-895
-501
-211
-401
-325
-114
-400
-365
-28
-270
-442
-17
-127
-541
-251
-29
-292
-296
-114
-346
-471
-74
-150
-479
-190
-33
-241
-266
-64
-215
-396
37
-33
-443
-68
102
-275
-101
275
-37
-220
306
298
-94
272
508
159
326
684
427
335
687
673
414
627
758
332
315
574
205
-58
247
165
-216
5
41
-352
-197
29
-232
-304
55
-53
-370
-45
-14
-436
-309
-14
-249
-421
-32
-72
-507
-111
86
-444
-337
-73
-310
-356
-142
-249
-489
-222
-96
-427
-262
-5
-311
-449
-48
-126
-543
-268
-61
-353
-337
-38
-130
-380
-149
-144
-425
-128
-29
-384
-264
-85
-447
-473
-94
-207
-453
-212
-96
-376
-307
-97
-353
-482
-148
-91
-389
-178
0
-445
-307
50
-372
-452
-35
-172
-406
-132
-49
-428
-251
174
-150
-289
117
82
-140
203
263
-197
-57
165
-168
-267
142
11
-482
-202
-8
-333
-255
-19
-329
-416
42
-83
-483
-102
84
-275
319
1402
1754
1893
1802
607
-614
-568
-369
-519
-246
54
-244
-397
-55
-154
-422
-165
-35
-261
-375
-207
-280
-378
-70
-164
-442
-129
-50
-379
-246
16
-52
-177
-86
-171
-325
-62
31
-182
-82
157
-96
-159
304
180
-102
286
335
32
359
638
391
358
563
505
374
713
886
489
604
927
538
383
672
449
171
385
359
2
72
259
-87
-186
144
-21
-256
58
92
-279
-112
134
-210
-204
187
-22
-264
41
91
-225
-71
182
-107
-203
105
-59
-278
105
177
-245
-104
245
-75
-176
190
93
-216
18
249
-135
-141
147
-122
-132
260
68
-237
12
74
-184
-97
150
-79
-171
182
87
-117
126
115
-185
-113
169
-40
-196
195
100
-248
72
230
-138
-45
181
-82
-46
227
-47
-216
213
294
-52
27
247
108
116
458
234
-85
221
190
-119
67
217
-157
-112
176
-143
-261
78
72
-157
-24
98
-185
-143
269
114
151
1194
1829
1806
1813
1065
-249
-785
-425
-233
-248
53
69
-297
-104
243
-144
-277
94
-52
-215
19
77
-135
-119
57
-57
-77
185
57
-144
250
188
-222
38
259
-52
-84
330
195
-123
203
376
102
203
417
176
207
598
443
212
594
662
348
594
878
607
580
853
699
564
926
902
396
470
683
358
162
361
219
-63
228
249
-203
-108
122
-146
-230
38
-107
-282
-50
-157
-373
-103
10
-306
-307
44
-37
-364
-152
-3
-344
-183
39
-251
-203
96
-91
-319
-59
-16
-265
-118
72
-283
-377
-9
-149
-294
-55
-106
-277
-156
2
-213
-271
11
-78
-367
-191
-60
-344
-226
11
-200
-342
-116
-146
-383
-147
-59
-266
-121
41
-262
-402
-41
-92
-362
-90
2
-355
-184
148
-179
-222
140
-37
-189
198
290
-164
-129
136
-217
-267
105
-100
-414
-137
-137
-405
-134
-72
-364
-297
-116
-298
-460
13
41
-316
549
1588
1670
1681
1411
92
-889
-631
-322
-360
-190
-53
-327
-312
36
-197
-359
22
-126
-501
-252
-52
-316
-310
42
-87
-299
6
-16
-330
-158
173
-98
-343
64
-23
-303
63
119
-256
-31
279
-88
-106
289
175
10
242
327
138
386
747
396
288
668
609
472
808
923
555
606
782
507
448
674
432
147
324
255
-81
47
248
-128
-212
75
-116
-269
-30
-105
-376
-140
-17
-371
-305
12
-208
-380
-92
-124
-400
-189
-39
-348
-280
75
-82
-300
-7
117
-223
-124
200
8
-50
186
-39
-204
96
88
-123
66
141
-223
-132
230
-24
-278
-26
18
-167
9
67
-259
-136
89
-213
-232
35
-30
-274
-196
8
-200
-251
22
-163
-373
17
51
-301
-186
-47
-311
-285
62
-252
-448
47
46
-278
-36
158
-199
-168
228
29
-202
156
188
-314
-257
-15
-288
-346
-157
-254
-471
-223
-147
-578
-218
13
-576
-412
-3
-247
-423
-86
333
757
1607
2078
1514
538
-277
-896
-856
-178
-159
-564
-282
-42
-355
-356
-102
-271
-439
-135
-177
-529
-193
-7
-385
-321
-99
-258
-383
-159
-149
-419
-127
24
-344
-230
37
-143
-245
8
82
-85
-46
48
-121
36
416
132
-118
249
367
162
343
616
375
397
791
464
300
774
655
383
648
700
242
254
598
229
-75
235
207
-229
-143
101
-184
-196
37
-184
-251
-72
-176
-322
-242
-104
-243
-321
-45
-190
-393
-42
-102
-467
-229
-62
-387
-310
-53
-313
-389
-40
-176
-383
-59
-51
-401
-356
-127
-256
-374
-64
-134
-472
-206
-51
-371
-432
-133
-253
-454
-95
-108
-369
-149
-134
-464
-461
-131
-158
-356
-113
-122
-463
-230
27
-330
-307
8
-210
-353
-50
-92
-481
-258
44
-289
-301
-2
-184
-226
128
45
-212
-40
86
-61
13
250
56
-116
205
163
-256
-42
142
-270
-285
37
-167
-457
-173
-5
-223
-190
-75
-307
-171
142
-117
184
1211
1774
1884
1837
922
-559
-839
-240
-337
-408
28
-108
-378
-190
-96
-250
-245
-43
-344
-507
-74
-128
-432
-204
-31
-408
-329
59
-246
-337
-38
-118
-202
-58
-65
-284
-216
77
-142
-315
132
129
-229
97
300
-124
53
572
213
13
450
419
344
624
600
381
489
760
587
418
800
732
260
474
518
72
155
260
-18
-67
227
60
-374
-168
32
-278
-205
189
-112
-367
53
-69
-424
-65
-34
-381
-224
0
-261
-234
143
-178
-429
-27
109
-283
-229
110
-131
-203
92
-1
-298
-143
54
-141
-58
126
-98
-128
108
-1
-210
-4
140
-140
-114
174
-95
-265
8
-31
-160
124
76
-267
-56
160
-136
-204
192
77
-330
-45
218
-260
-289
185
-40
-239
55
-63
-125
220
173
-107
-14
403
233
-70
367
241
-192
186
248
-176
-64
197
-104
-241
108
13
-288
11
46
-276
-4
120
-194
-211
138
118
277
1312
1980
1865
1493
688
-459
-907
-424
-62
-165
-71
33
-246
-120
170
-140
-192
117
-22
-283
-11
223
-231
-300
240
49
-289
66
30
-208
121
156
-230
-64
290
-44
-180
240
192
-30
148
206
-51
158
544
225
29
445
487
240
530
749
482
579
869
586
529
899
770
554
808
807
449
461
541
306
182
315
194
-59
106
132
-189
-28
182
-282
-386
65
4
-305
-184
-62
-330
-194
69
-262
-316
27
-11
-276
-122
-10
-320
-86
244
-243
-386
66
24
-262
-48
54
-295
-160
195
-124
-297
-21
-132
-305
-46
70
-290
-285
-11
-275
-279
66
-137
-339
-118
-59
-234
-144
-33
-316
-319
113
-35
-418
-150
15
-276
-177
-20
-361
-341
78
-121
-365
-25
-4
-257
-42
121
-169
-72
275
96
-159
42
201
-126
-218
52
-201
-347
69
-30
-442
-148
70
-349
-314
30
-234
-452
-111
-90
-327
3
576
898
1583
2172
1368
123
-408
-692
-704
-248
-110
-395
-254
64
-224
-362
-17
-110
-363
-113
-59
-407
-266
31
-254
-290
101
-73
-285
41
97
-178
-51
155
-116
-48
297
-6
-190
219
309
-65
13
323
105
88
416
381
260
453
576
312
445
746
489
498
879
732
532
903
838
451
606
723
382
318
550
174
-35
351
232
-212
-72
143
-196
-186
97
-155
-330
-72
-12
-300
-211
91
-205
-362
-8
-159
-433
-52
5
-410
-256
-31
-173
-253
-137
-183
-396
-135
126
-186
-237
25
-228
-307
47
-77
-290
-77
-14
-282
-310
-91
-165
-148
62
-92
-226
-12
-50
-347
-185
7
-308
-329
49
-69
-295
-9
13
-261
-82
37
-247
-207
133
-120
-403
5
54
-369
-196
82
-256
-305
87
-27
-249
31
77
-181
-46
203
-32
-154
197
120
-69
274
345
-67
17
299
-95
-140
261
2
-346
-30
54
-378
-205
62
-316
-348
58
-96
-356
98
181
-94
835
1946
1932
1835
1437
109
-638
-354
-185
-334
-140
31
-231
-155
143
-93
-324
32
63
-327
-183
61
-154
-143
82
-135
-199
158
130
-180
-55
116
-59
-32
146
-44
-248
151
226
-166
54
280
45
50
285
217
58
384
578
194
267
597
408
476
827
672
482
764
813
555
770
905
562
514
732
510
190
402
419
-55
12
226
-99
-211
60
-41
-244
52
41
-370
-224
102
-185
-241
61
-70
-311
-96
27
-352
-212
153
-212
-300
99
-119
-319
27
13
-307
-118
167
-182
-311
18
-133
-192
156
12
-336
-49
93
-287
-176
185
6
-318
-71
30
-304
-173
23
-235
-232
98
-20
-278
-43
-43
-346
-184
118
-51
-250
2
-89
-353
-85
-2
-311
-207
60
-166
-257
-52
-136
-261
-30
29
-231
37
254
-121
-117
201
82
-124
190
262
-42
72
138
-201
-285
-2
-111
-390
-103
-22
-321
-207
-69
-284
-286
-109
-259
-269
40
203
462
1277
2040
1969
1218
290
-613
-929
-311
-109
-370
-119
-3
-397
-325
89
-202
-468
-147
-60
-316
-236
-94
-347
-248
72
-187
-437
-76
19
-304
-83
114
-277
-272
86
-142
-347
56
201
-93
-17
129
-59
78
356
165
60
448
411
81
426
681
402
448
789
649
405
797
889
541
673
724
441
438
601
343
46
293
271
-114
98
320
-26
-152
55
-112
-264
110
83
-345
-158
99
-177
-190
48
-142
-228
37
-59
-237
-113
-89
-287
-169
128
-204
-328
18
-35
-169
-28
102
-204
-266
173
-31
-331
50
34
-270
-9
100
-182
-202
-7
-122
-235
94
38
-276
-13
56
-299
-193
101
-112
-258
41
1
-297
-98
29
-225
-137
77
-163
-230
57
-55
-299
-64
183
-125
-145
229
-19
-221
244
226
-68
284
295
-146
-42
196
-63
-151
194
33
-388
-105
34
-345
-265
44
-96
-333
-88
-91
-280
37
131
142
823
1675
1882
1653
1009
-95
-880
-691
-10
-187
-405
11
-179
-329
78
-74
-375
-85
14
-229
-108
66
-192
-270
15
-89
-230
98
99
-195
-51
156
-39
-114
129
103
-117
42
240
7
-35
263
181
127
375
237
51
371
489
212
345
642
494
464
741
747
492
757
1013
472
519
935
589
347
599
455
122
331
286
-155
-27
275
-80
-278
57
-15
-322
-112
69
-334
-319
2
-329
-422
-37
-94
-341
-162
-39
-320
-257
-24
-340
-361
109
-62
-513
-207
82
-251
-265
24
-167
-336
-24
-68
-287
-89
-54
-355
-302
-21
-170
-222
-56
-198
-350
-145
-98
-302
-187
-9
-144
-373
-123
-64
-430
-237
-126
-317
-204
-9
-268
-385
0
-186
-484
-169
-13
-269
-271
-137
-333
-344
-11
-9
-183
18
65
-146
25
259
-9
-143
232
113
-343
-116
75
-321
-320
51
-164
-399
-155
-140
-365
-232
-106
-366
-255
144
-79
-147
751
1353
1654
2192
1541
-77
-733
-491
-445
-394
-87
-129
-305
-72
-23
-315
-236
-43
-183
-251
-137
-207
-341
31
108
-381
-178
121
-229
-284
169
91
-316
-86
75
-243
-73
235
-80
-170
173
109
-162
139
420
40
24
423
295
202
556
555
269
548
756
415
601
941
634
580
956
788
359
568
756
282
326
444
-100
-39
317
33
-334
22
161
-309
-166
94
-213
-244
33
-73
-328
-167
23
-256
-234
34
-252
-336
-29
-148
-357
-77
-32
-380
-241
59
-182
-379
-2
52
-316
-144
56
-193
-124
46
-198
-319
-45
4
-207
0
128
-231
-130
259
-30
-137
282
115
-190
127
264
-73
46
258
-113
-150
239
139
-198
5
86
-241
-110
69
-116
-163
-8
-143
-397
-96
-33
-452
-247
4
-361
-413
64
-45
-360
-64
-12
-374
-190
173
-4
-123
-22
-134
-302
-178
-124
-337
-222
-153
-568
-452
-41
-353
-687
-290
-171
-552
-384
-125
-452
-502
217
734
1166
1996
1953
745
-262
-716
-978
-729
-256
-351
-555
-301
-311
-523
-335
-240
-500
-452
-104
-337
-509
-109
-152
-481
-224
38
-339
-428
-28
-141
-393
-152
-48
-323
-151
55
-254
-245
134
103
-184
34
185
-7
106
298
101
49
446
475
268
527
648
472
673
836
562
615
898
759
638
761
719
320
297
589
267
10
284
219
-161
50
141
-234
-22
247
-167
-319
46
-80
-319
-94
-26
-292
-131
152
-255
-415
-28
-96
-328
-30
21
-342
-161
112
-137
-228
-13
-144
-279
78
76
-276
-65
106
-186
-138
115
-143
-377
-66
57
-252
-212
44
-120
-172
-23
-230
-373
-32
78
-268
-170
182
-158
-328
79
-187
-448
-45
-44
-317
-36
118
-241
-236
41
-170
-346
6
-47
-340
0
92
-311
-253
47
-33
-118
147
173
-143
-75
228
47
-73
195
109
-56
134
105
-208
-148
64
-222
-343
53
-14
-393
-125
-6
-403
-246
128
-115
-303
122
673
1309
2071
2179
1200
212
-324
-845
-566
97
-107
-413
-128
-1
-286
-242
-52
-330
-357
-15
-52
-243
-174
-157
-422
-214
97
-208
-260
5
-160
-301
-12
14
-299
-162
176
-133
-291
38
-27
-162
81
191
-39
123
377
108
128
450
344
239
567
613
379
510
706
514
598
920
616
390
725
701
281
392
492
47
25
370
99
-229
112
115
-358
-205
42
-223
-225
60
-112
-439
-101
-27
-430
-200
78
-211
-260
97
-140
-484
-39
17
-450
-192
27
-311
-288
-38
-125
-204
-3
14
-188
-151
-27
-225
-191
149
-162
-407
20
-34
-318
-61
82
-274
-219
178
-150
-398
-26
39
-210
-124
19
-246
-247
105
-38
-282
-35
57
-126
-79
-16
-305
-220
237
-53
-359
6
44
-157
33
115
-106
1
346
135
-170
131
312
-56
-24
265
-70
-147
135
-119
-328
53
83
-335
-168
93
-202
-242
63
-198
-319
142
75
161
1121
1866
1883
1579
939
-214
-836
-423
-153
-329
-84
133
-300
-228
246
-105
-356
62
38
-281
-104
98
-90
-91
203
-40
-354
172
237
-253
-38
163
-173
-108
239
10
-165
228
197
-164
114
377
79
22
379
299
143
504
499
149
498
801
388
488
912
630
465
823
747
507
838
946
442
355
561
405
247
248
191
-27
12
73
-147
-98
55
-158
-280
-36
-88
-325
-143
-37
-291
-237
-48
-229
-272
-22
-130
-390
-196
94
-186
-377
-5
-130
-291
0
-21
-230
-133
9
-305
-297
180
-72
-412
-12
-75
-361
-15
-73
-416
-250
30
-113
-331
-132
-75
-304
-169
-2
-333
-308
30
-206
-328
-67
-177
-348
-99
53
-271
-348
-63
-202
-284
-23
-89
-313
-173
-17
-227
-151
92
-193
-246
69
-60
-167
150
253
-123
-110
270
5
-288
6
-1
-328
-131
-1
-395
-395
-62
-180
-402
-88
-93
-453
-123
65
-368
-58
919
1365
1823
2118
1096
-237
-497
-370
-546
-387
-42
-220
-379
-48
-86
-328
-75
-8
-341
-260
111
-125
-360
-55
-105
-339
-65
191
18
58
290
7
-103
301
238
-56
179
379
173
252
422
163
76
402
368
102
441
617
237
415
827
566
437
805
737
580
931
1031
666
635
976
703
458
798
615
226
310
359
-56
-79
330
24
-210
79
-115
-332
-23
-13
-418
-363
-6
-262
-509
-191
-191
-456
-275
-99
-468
-473
-169
-411
-473
-170
-190
-433
-347
-174
-466
-403
6
-363
-554
-107
-185
-549
-373
-164
-434
-336
-81
-406
-470
-136
-173
-395
-307
-138
-372
-395
74
-148
-518
-124
-110
-429
-193
-107
-442
-269
17
-282
-401
-59
-84
-425
-151
115
-287
-418
-75
-268
-398
154
-78
-551
-140
-19
-342
-102
114
-134
-121
116
85
-173
21
412
24
-171
159
-54
-214
75
-65
-323
-97
-89
-303
-213
15
-220
-424
-83
-88
-355
-153
12
-306
29
1020
1546
1924
2091
1144
-235
-582
-444
-568
-293
12
-237
-374
-46
13
-364
-237
-59
-342
-259
-9
-103
-299
-202
-180
-352
-51
34
-317
-155
125
-130
-260
38
6
-236
50
114
-285
-67
287
-87
-193
241
185
-56
240
409
93
205
549
425
319
614
657
456
786
838
432
614
905
616
421
705
567
219
371
369
19
-32
205
109
-131
-7
-99
-360
1
102
-360
-292
150
-87
-473
-136
-183
-377
19
-46
-444
-300
-9
-236
-380
-20
-81
-400
-158
0
-394
-342
46
-155
-290
-15
-134
-378
52
84
-411
-181
85
-231
-359
-18
-32
-390
-150
39
-312
-257
19
-59
-151
-87
-160
-393
-153
36
-360
-251
125
-186
-367
34
-89
-393
59
32
-422
-201
8
-213
-330
-83
-89
-322
-81
107
-183
-186
130
-42
-106
354
180
-158
134
111
-199
-101
73
-88
-335
-264
-252
-334
92
-71
-667
-338
-56
-360
-347
-44
-195
-434
32
725
1068
1733
2212
1398
158
-435
-681
-755
-235
90
-333
-361
59
-214
-422
36
-87
-486
-138
75
-324
-325
-33
-205
-274
70
-120
-453
-64
57
-291
-181
123
-98
-252
105
29
-146
117
-31
-267
69
294
-1
30
334
129
15
409
535
319
437
737
566
422
724
683
532
805
799
438
622
804
382
298
508
298
3
151
196
-107
-25
282
-108
-380
34
-71
-333
-4
64
-303
-215
54
-251
-343
62
-65
-331
-79
-31
-241
-158
62
-140
-314
29
-20
-304
8
121
-247
-143
124
-18
-229
-33
9
-226
34
56
-287
-83
144
-124
-158
-20
-121
-130
13
-40
-241
-19
141
-232
-203
195
-14
-319
-78
30
-232
-118
194
-117
-279
77
86
-168
-69
29
-217
-18
299
-91
-223
142
88
-43
146
294
87
-104
85
-36
-151
155
18
-328
-69
33
-256
-49
67
-269
-329
97
-25
-456
-90
63
-86
497
1403
1776
1779
1408
327
-682
-616
-298
-371
-145
54
-260
-380
10
-21
-288
-59
-23
-397
-200
83
-210
-236
65
-76
-350
3
185
-119
-80
61
-148
-227
67
161
-51
-14
21
-138
119
364
31
-108
363
374
-33
263
487
121
300
648
372
428
866
656
444
869
837
470
678
861
577
412
678
472
13
259
322
-102
-47
161
-173
-313
33
-72
-399
-11
51
-492
-287
17
-366
-402
-8
-201
-462
-88
-38
-450
-302
7
-296
-376
69
-49
-440
-168
-40
-373
-183
72
-272
-347
13
-146
-392
-94
-79
-343
-196
-60
-351
-427
-65
-70
-452
-263
-52
-375
-238
80
-263
-389
-46
-160
-362
-71
-113
-442
-199
-21
-377
-406
3
-107
-351
-68
-126
-428
-129
29
-339
-205
221
-49
-341
-34
110
-75
55
166
-137
-170
192
-30
-366
46
28
-326
-134
-81
-354
-332
-48
-139
-407
-247
-120
-400
-222
116
-228
50
1158
1698
1822
1913
923
-575
-799
-348
-415
-326
32
-276
-420
-34
-21
-350
-198
64
-345
-385
117
-153
-527
-90
10
-235
-184
-39
-191
-247
107
-46
-246
85
101
-193
-49
132
-166
-150
279
64
-219
180
306
53
191
421
222
229
589
482
326
649
745
532
621
824
606
522
824
645
345
669
647
130
206
359
4
-67
181
-1
-175
184
24
-450
-202
-13
-287
-315
-18
-181
-431
-66
-62
-423
-176
91
-254
-366
30
-103
-424
-129
58
-233
-256
-11
-215
-297
132
-21
-481
-141
22
-333
-181
67
-186
-259
84
35
-316
-123
-8
-348
-136
102
-281
-338
-10
-176
-401
0
80
-396
-260
97
-185
-273
3
-266
-493
-49
32
-346
-168
102
-246
-342
135
-76
-397
-9
45
-326
-275
-44
-284
-215
223
24
-241
55
151
61
219
170
-144
-113
176
29
-228
-80
-55
-277
-218
-11
-211
-278
11
-179
-342
44
0
-384
-133
197
-99
175
1297
1913
1966
1729
635
-619
-666
-246
-184
-165
-135
-311
-364
-48
-11
-263
-83
77
-348
-301
65
-188
-288
127
109
-373
-238
82
-200
-222
176
93
-195
-33
-27
-186
56
185
-124
-69
264
116
-36
201
255
0
223
549
256
228
603
488
411
766
740
483
696
839
567
615
880
659
460
723
587
162
248
441
96
-48
260
-19
-261
99
44
-196
-56
-53
-347
-274
95
-139
-440
-87
-13
-307
-136
63
-253
-306
-21
-262
-346
-27
-171
-424
-123
83
-275
-270
87
-173
-404
7
5
-382
-215
4
-265
-251
6
-243
-366
-57
-121
-361
-117
-65
-387
-215
87
-196
-446
-62
-41
-482
-232
35
-247
-182
-89
-367
-328
-38
-146
-423
-187
29
-337
-361
-13
-178
-373
-85
-7
-320
-239
21
-192
-132
168
-139
-231
265
172
-176
108
131
-262
-155
119
-76
-237
-80
-161
-357
-153
-4
-268
-297
-87
-230
-372
-68
35
-310
-41
843
1309
1676
2095
1486
104
-536
-628
-688
-156
54
-348
-208
55
-96
-188
-118
-136
-309
-150
126
-188
-326
-8
-155
-291
88
-4
-249
72
122
-274
-165
188
-17
-118
179
153
-228
-2
347
-30
-29
309
153
122
457
392
66
379
673
306
337
861
700
417
858
896
521
776
911
539
625
854
536
295
476
380
49
213
305
-61
-20
167
-93
-222
82
-15
-349
-54
37
-312
-186
63
-150
-282
-23
-31
-398
-317
-50
-213
-251
93
-44
-310
27
48
-357
-201
111
-178
-262
22
-14
-250
-69
-9
-404
-134
141
-226
-206
132
-19
-263
-30
-38
-289
-107
-12
-211
-177
-39
-286
-299
98
-31
-357
-112
43
-302
-222
141
-186
-372
171
34
-475
-152
62
-251
-252
52
76
19
47
-131
-309
31
244
-124
-57
279
52
-259
4
98
-294
-256
-13
-177
-171
37
-290
-470
5
-55
-473
-266
-137
-279
-193
131
584
1089
1822
1939
993
92
-458
-897
-745
-184
-278
-409
-31
-166
-456
-143
27
-312
-309
39
-183
-434
89
23
-557
-168
112
-350
-293
62
-129
-233
31
27
-236
-35
121
-248
-168
123
18
6
144
116
16
124
271
140
261
551
239
137
632
632
414
656
728
483
612
873
680
453
630
670
275
350
519
19
-68
224
-29
-213
81
-78
-338
-24
-125
-462
-286
-50
-187
-359
-148
-165
-438
-192
-27
-241
-269
-209
-274
-345
-162
-153
-381
-138
75
-271
-243
98
-120
-287
-47
12
-214
-134
-14
-399
-349
20
-115
-204
-47
-108
-319
-186
3
-272
-235
102
-240
-282
215
-75
-433
-100
0
-328
-219
65
-173
-289
-5
-24
-244
-35
74
-268
-159
169
-142
-373
-66
-42
-208
69
213
-86
-118
190
98
-85
212
252
-18
227
284
-254
-198
218
-57
-325
38
-29
-362
-32
43
-287
-156
59
-155
-299
40
-50
-225
619
1410
1729
2069
1831
506
-638
-561
-309
-359
-88
91
-378
-349
116
-180
-370
20
-75
-325
9
105
-292
-262
78
-127
-312
95
84
-390
-154
159
-240
-206
241
-1
-134
287
222
-1
296
439
197
237
414
160
266
647
359
191
581
756
426
518
910
651
523
886
885
629
801
890
526
607
823
408
123
445
465
-30
52
214
-216
-144
231
4
-111
95
-156
-396
-125
65
-182
-325
-16
-175
-401
-73
-108
-377
-236
-152
-353
-256
-64
-222
-418
-183
-122
-434
-286
-43
-327
-352
17
-262
-422
85
-61
-469
-106
34
-365
-282
-18
-335
-510
-140
-159
-384
-192
-118
-337
-258
8
-145
-340
-115
-101
-292
-148
-76
-359
-340
-22
-189
-297
-43
-211
-354
-42
14
-209
-221
-48
-193
-344
-27
-106
-375
-155
67
-108
-151
159
16
-176
153
240
-91
31
249
-56
-109
83
-203
-349
93
-64
-477
-177
10
-276
-284
12
-187
-342
17
-99
-394
-105
319
604
1417
2290
2005
1094
188
-598
-779
-233
34
-378
-333
61
-179
-317
31
-92
-380
-107
82
-203
-273
-30
-145
-253
72
-21
-307
-54
134
-220
-291
112
11
-126
95
12
-192
-29
159
-38
-33
305
142
-111
254
298
90
444
494
194
451
760
444
306
741
740
469
858
969
439
591
903
516
296
564
441
130
282
206
-136
-48
152
-101
-183
93
25
-304
-81
251
-305
-362
77
-247
-314
49
-162
-450
-38
54
-477
-221
114
-396
-426
-47
-117
-271
-147
-96
-342
-215
62
-185
-332
-8
-48
-360
-42
67
-351
-271
39
-170
-318
36
-101
-491
-180
29
-336
-321
27
-170
-368
-8
-78
-375
-61
-4
-369
-206
129
-239
-380
24
-124
-455
-31
140
-442
-342
76
-189
-368
45
87
-260
-51
76
-157
22
173
-42
0
165
174
38
3
123
-147
-153
208
-63
-369
-92
-3
-283
-126
39
-297
-239
71
-182
-333
61
9
-202
528
1254
1473
1966
1896
540
-554
-477
-385
-441
-68
13
-330
-215
72
-108
-273
-13
-36
-375
-74
162
-252
-243
114
-85
-162
271
110
-324
2
241
-118
-88
197
-80
-123
283
149
-41
200
403
160
-10
378
322
126
448
420
216
524
741
408
505
937
720
607
999
991
570
722
890
547
658
819
421
223
479
309
-24
345
325
-195
-64
291
42
-243
62
49
-218
-33
-9
-316
-171
115
-186
-226
123
-111
-373
-82
93
-163
-116
235
-42
-321
32
66
-191
55
189
-182
-138
163
-1
-108
101
-15
-220
-4
122
-131
-195
49
-103
-266
99
24
-329
-68
69
-254
-76
195
-184
-280
88
-56
-267
-11
-39
-314
-132
183
-91
-287
89
116
-258
-106
152
-206
-134
296
-111
-241
209
7
-250
216
348
-84
5
302
76
-146
174
135
-263
-43
134
-216
-293
14
-136
-333
-33
-144
-428
-27
133
-297
-264
382
808
1243
2178
1972
630
-88
-548
-906
-434
55
-271
-270
126
-143
-407
-112
-19
-230
-139
-55
-195
-180
-5
-40
-333
-147
142
-227
-207
282
-58
-371
85
18
-265
27
174
-89
-36
182
-85
-153
263
279
-6
231
481
147
274
655
295
228
651
643
437
718
827
443
702
990
560
464
793
601
163
478
579
-78
-64
323
2
-280
46
-47
-366
-111
2
-330
-193
80
-387
-529
-52
-184
-469
-173
-77
-336
-259
36
-111
-285
-117
-198
-359
-123
69
-189
-275
-56
-192
-199
44
-141
-332
-64
-35
-404
-299
36
-218
-309
48
-121
-401
-87
31
-334
-261
19
-223
-341
25
-63
-421
-140
95
-287
-267
95
-228
-359
62
-146
-439
-52
42
-255
-188
-57
-256
-297
-25
-90
-347
-89
84
-272
-226
215
69
-222
49
119
-95
122
162
-210
-10
328
-86
-331
11
-63
-360
-97
80
-241
-255
77
-83
-225
146
44
-232
86
187
-32
523
1445
1798
2019
1896
708
-507
-609
-356
-382
-137
-56
-393
-305
-93
-247
-362
-176
-109
-386
-312
91
-9
-321
-70
-60
-390
-65
43
-275
-168
74
-110
-273
42
-34
-299
33
142
-161
-133
151
103
-77
110
178
-84
172
415
21
68
448
333
236
659
621
317
594
692
525
559
716
551
391
576
394
156
357
262
-136
-67
120
-215
-291
-10
-127
-226
-82
-154
-446
-270
68
-356
-475
-10
-267
-521
-107
22
-386
-367
-40
-375
-412
66
-199
-508
-125
-164
-490
-205
-1
-282
-309
58
-97
-437
-70
35
-390
-235
42
-265
-273
-26
-260
-457
-65
71
-376
-256
101
-200
-386
-103
-88
-304
-112
-4
-416
-269
106
-229
-313
-22
-160
-314
-52
16
-338
-115
295
-226
-367
42
-154
-344
-56
-2
-209
-87
95
-129
-253
93
82
-220
41
185
-149
45
373
33
-150
134
158
-167
-65
114
-245
-275
-11
-217
-283
69
-207
-477
-24
-10
-427
-208
88
41
593
1591
2143
2053
1403
178
-759
-597
-161
-210
-293
-59
-68
-301
-96
-29
-461
-317
84
-164
-157
59
-240
-390
-20
16
-239
28
88
-335
-191
162
-118
-274
11
75
-221
-118
269
37
-93
195
58
-138
205
359
79
193
441
245
264
501
460
394
631
764
451
606
896
549
634
1017
566
155
613
591
-45
241
427
-217
-126
248
-153
-349
-6
-10
-323
-220
15
-246
-338
11
-140
-410
-98
-102
-364
-160
-42
-371
-385
-99
-234
-363
-154
-137
-377
-190
3
-264
-235
-81
-225
-282
-16
-27
-366
-211
61
-221
-337
85
-28
-388
-42
-55
-437
-160
14
-228
-103
5
-295
-348
-93
-70
-196
-151
-79
-213
-240
1
-76
-343
-83
42
-280
-60
142
-272
-338
-32
-164
-369
-17
164
-275
-163
245
-112
-175
307
159
-179
153
301
-28
-38
108
-94
-134
129
-54
-395
-23
117
-434
-256
90
-388
-360
127
-191
-430
29
2
-103
872
1761
1852
1805
1275
-77
-869
-486
-214
-392
-93
161
-364
-325
130
-181
-333
7
77
-281
-277
80
-155
-198
152
-63
-291
15
92
-207
-98
198
-117
-230
177
105
-90
94
128
-18
67
286
237
45
305
354
58
372
566
212
325
622
433
537
887
654
585
896
791
592
701
853
642
458
735
561
80
319
338
-93
48
220
-140
-94
171
-55
-194
-34
-53
-330
-147
104
-220
-387
-56
-51
-397
-133
76
-207
-118
-20
-356
-252
139
-120
-308
19
-20
-327
-109
164
-103
-203
14
-139
-146
89
-131
-285
-152
50
-29
-268
-52
-27
-273
-87
-38
-357
-51
179
-372
-294
173
-150
-371
65
-10
-367
-138
74
-112
-196
32
-31
-284
-108
126
-160
-256
57
-211
-298
178
40
-221
89
154
-44
94
207
-3
34
320
81
-158
-15
-105
-324
-163
96
-211
-354
-28
-202
-394
-38
-79
-435
-165
116
-207
-38
935
1399
1697
2210
1172
-482
-739
-430
-517
-429
48
-196
-543
-81
-18
-380
-194
-50
-277
-241
-85
-238
-310
45
-57
-418
-155
57
-273
-240
135
-118
-349
-66
-36
-263
-72
230
-127
-311
189
51
-168
434
291
-307
88
494
197
224
601
369
154
682
810
379
673
958
500
411
881
848
401
546
586
118
170
333
-12
-91
177
-113
-388
8
-35
-386
-166
-51
-391
-367
-51
-218
-480
-226
-70
-343
-298
-25
-144
-195
63
-95
-261
147
130
-278
-64
144
-126
-141
160
-15
-290
119
210
-322
-138
269
-173
-352
84
-25
-345
-33
4
-317
-165
-6
-233
-260
92
-98
-365
-41
-20
-343
-266
-4
-284
-392
-52
-233
-416
-42
-98
-433
-207
-118
-308
-179
11
-260
-439
-67
-117
-526
-227
56
-456
-430
113
-130
-465
-17
198
-208
-130
92
-213
-200
225
-128
-561
-176
-136
-442
-320
-154
-437
-443
-84
-371
-559
-159
-201
-399
-173
-39
58
689
1698
2208
1838
960
-200
-985
-615
-63
-379
-403
-90
-332
-432
-138
-80
-374
-260
-48
-418
-475
13
-36
-487
-259
-71
-339
-90
164
-267
-341
51
-79
-240
3
70
-183
-82
161
-65
-161
93
81
-7
218
195
-90
237
575
188
321
719
369
359
833
742
568
812
906
586
558
908
672
290
479
460
114
262
383
-26
-12
347
-44
-349
2
27
-257
-153
35
-232
-190
48
-236
-351
32
-48
-407
-47
84
-365
-386
40
-50
-472
-151
4
-428
-277
50
-252
-279
31
-186
-386
-23
55
-342
-136
52
-382
-345
85
-93
-347
-14
-61
-420
-159
38
-296
-280
144
-28
-460
-101
55
-359
-176
137
-172
-335
-75
-222
-362
32
1
-437
-144
136
-372
-298
215
-105
-455
-80
-31
-381
-138
251
-96
-345
48
-41
-295
110
221
-70
65
229
-77
-234
88
33
-339
-55
-53
-538
-239
57
-349
-329
37
-276
-376
-11
-174
-444
-171
223
472
1371
2190
1916
1207
347
-574
-1036
-475
43
-309
-303
-17
-167
-357
-111
-96
-415
-148
-21
-332
-283
-31
-204
-333
41
16
-283
-146
-34
-251
-151
172
-105
-304
97
80
-219
84
248
-149
-86
354
119
-58
364
307
-12
274
501
308
436
668
432
314
725
902
589
641
878
603
573
944
613
207
513
447
4
167
387
-16
-41
224
-27
-252
-55
98
-199
-139
65
-316
-287
89
-70
-285
-25
-64
-348
-44
134
-274
-265
116
-96
-251
50
-41
-361
-127
99
-240
-170
143
-120
-249
22
-43
-339
-120
67
-176
-107
97
-87
-129
71
-121
-304
72
169
-294
-244
102
-70
-252
45
39
-374
-120
175
-227
-194
202
-152
-354
144
23
-297
-43
46
-139
-162
23
-90
-241
106
198
-133
6
274
-29
25
447
135
-101
215
59
-145
213
105
-426
-195
203
-150
-398
22
-20
-516
-198
118
-300
-243
182
72
373
1334
1794
1828
1502
488
-633
-775
-300
-263
-331
-56
-56
-371
-84
128
-257
-233
83
-155
-275
78
-71
-265
89
126
-234
-158
122
-58
-191
42
11
-198
73
202
-239
-161
278
28
-188
242
261
-10
201
333
118
219
519
319
151
534
669
422
596
772
503
585
869
621
507
856
726
357
510
648
275
78
356
153
-140
136
2
-291
-24
-28
-419
-305
57
-176
-369
20
-119
-566
-255
-2
-324
-342
-81
-212
-390
-137
-151
-346
-121
-94
-319
-211
48
-163
-334
8
-72
-395
-184
-22
-316
-263
-18
-350
-401
-51
-174
-459
-160
67
-259
-311
-87
-160
-401
-193
-136
-452
-172
-1
-383
-330
-72
-369
-405
113
-78
-552
-268
-100
-389
-161
35
-385
-432
-81
-129
-354
-103
-11
-276
-41
77
-245
-43
269
-12
-252
43
221
-138
-151
140
-179
-450
-56
-84
-460
-193
-47
-315
-266
-68
-351
-463
-52
-53
-322
36
765
1252
1936
2367
1400
117
-268
-445
-517
-25
152
-287
-163
144
-131
-224
-22
-127
-278
-62
-56
-337
-157
103
-232
-367
59
-38
-254
20
39
-94
-50
0
-183
-189
136
34
-184
98
206
-138
-39
312
73
-38
369
318
0
218
418
270
310
586
473
437
875
648
233
658
922
549
407
594
308
56
334
186
-111
83
124
-166
-166
-16
-294
-312
57
-242
-527
-139
-87
-492
-377
-93
-339
-448
-62
-87
-561
-331
-85
-473
-293
52
-338
-492
-161
-195
-309
-68
-46
-365
-292
-42
-292
-400
-15
-94
-442
-133
-21
-442
-265
21
-345
-396
24
-74
-443
-147
31
-369
-165
142
-195
-290
1
-137
-416
-120
-69
-422
-251
28
-214
-356
-86
-123
-370
-165
23
-199
-198
-68
-289
-284
29
-169
-326
167
169
-274
-80
181
-40
-41
250
183
-55
120
185
-157
-53
108
-216
-280
-3
-133
-365
-56
-71
-419
-232
-40
-310
-242
117
-141
-384
330
1171
1546
2169
2232
778
-450
-405
-294
-463
-206
54
-235
-301
-59
-250
-315
-32
-184
-384
-75
26
-375
-268
19
-276
-339
43
-52
-347
-12
60
-298
10
183
-246
-210
20
-45
-72
123
110
-101
22
221
108
89
378
296
87
390
571
382
501
779
589
475
900
930
502
739
917
657
716
712
413
253
319
206
39
231
194
-154
-68
102
-106
-215
127
-14
-359
19
98
-324
-248
3
-294
-373
-67
-202
-318
52
-21
-432
-349
-86
-267
-378
-55
-196
-477
-107
122
-314
-387
-86
-226
-285
-75
-273
-413
-26
-89
-416
-115
41
-324
-374
15
-46
-381
-125
-18
-403
-297
34
-287
-360
81
-146
-360
3
-82
-440
-223
111
-231
-370
36
-169
-431
64
50
-393
-227
-47
-127
-113
151
172
-185
-62
169
2
133
282
34
-67
127
70
-92
112
48
-304
-123
81
-275
-364
74
59
-348
-119
45
-304
-99
130
-91
323
1183
1602
1817
1959
1068
-327
-564
-403
-493
-234
110
-41
-294
47
168
-235
-112
134
-165
-161
214
-74
-205
247
110
-238
-66
205
-99
-131
350
85
-152
280
160
-172
100
273
70
-11
281
331
20
264
507
182
270
512
355
412
663
562
486
728
794
702
764
987
690
594
1269
953
423
751
551
204
411
405
30
47
328
131
-139
78
76
-257
-92
174
-25
-208
-28
-112
-282
33
-81
-468
-165
61
-277
-178
121
-159
-353
-39
154
-219
-95
242
-301
-317
138
-102
-280
30
72
-312
-202
113
-195
-187
178
-113
-211
27
-164
-182
-50
-20
-239
-310
94
-113
-409
6
-19
-409
-170
138
-195
-281
59
-224
-388
43
33
-402
-228
142
-149
-304
-36
-79
-271
79
205
-215
-159
97
-70
24
356
0
-229
239
169
-374
-196
67
-300
-316
9
-197
-405
1
108
-449
-420
-107
-214
-216
-86
-109
164
1097
1722
1749
1616
769
-540
-914
-446
-426
-474
-53
-113
-347
-115
-71
-435
-330
49
-163
-343
-80
-99
-354
-209
-117
-336
-256
44
-84
-299
-74
-95
-291
-28
52
-232
-185
103
-9
-207
64
96
-169
186
398
-51
27
477
269
63
467
602
326
495
726
455
520
829
647
562
787
586
231
511
702
126
-23
245
-49
-206
59
-35
-262
-126
-60
-346
-321
-14
-292
-379
-149
-233
-351
-331
-187
-409
-428
-61
-346
-507
-91
-162
-430
-236
-105
-357
-352
39
-146
-408
-64
-129
-269
-48
-120
-435
-320
-5
-262
-422
-30
-74
-457
-217
20
-346
-347
59
-202
-408
24
-117
-478
-205
-67
-232
-143
7
-312
-526
-123
-86
-463
-210
-6
-319
-282
-88
-297
-253
120
-212
-462
-81
-114
-424
-275
87
-82
-168
203
12
-239
71
116
-84
23
184
-29
-179
57
-54
-246
6
-25
-392
-289
19
-196
-374
-76
-102
-352
-187
-52
-233
-118
455
922
1494
2227
2031
706
-235
-454
-672
-437
20
-89
-302
-67
-131
-461
-154
57
-249
-162
8
-346
-360
20
-64
-225
51
104
-339
-307
193
-23
-335
25
-96
-384
96
216
-208
-48
253
-95
-203
252
181
-193
122
468
176
190
455
336
341
672
667
439
745
838
537
686
811
500
466
806
678
275
411
494
48
27
374
158
-196
-44
-39
-271
10
18
-388
-225
97
-137
-384
26
44
-418
-171
18
-411
-352
25
-259
-362
50
-173
-520
-155
33
-353
-260
179
-159
-408
24
-56
-374
-108
-16
-394
-264
57
-198
-281
-7
-114
-435
-84
66
-382
-140
150
-320
-474
-27
-83
-405
-168
14
-167
-183
10
-205
-450
-15
-11
-431
-178
4
-306
-243
5
-248
-344
37
-66
-373
-94
8
-335
-217
139
-130
-322
96
11
-294
108
160
-268
-11
341
-17
-123
205
56
-159
131
212
-191
-186
60
-240
-306
-9
-142
-295
-122
-29
-268
-343
-51
-171
-341
229
840
1198
1999
2341
1393
272
-406
-677
-349
38
-197
-408
-116
25
-234
-273
-15
-220
-371
88
29
-444
-202
31
-236
-182
65
-202
-348
103
116
-217
-73
67
-85
-22
34
-182
-76
254
18
-190
251
361
-40
154
445
70
87
501
419
273
583
671
447
734
944
533
535
926
731
501
732
637
444
584
410
156
86
91
82
-203
2
204
-297
-237
75
-218
-284
78
-121
-362
-26
-72
-416
-260
30
-257
-328
-38
-137
-224
-171
-159
-190
-206
-100
-271
-363
22
-9
-311
-141
-70
-317
-146
88
-185
-207
66
-102
-287
6
90
-225
-125
23
-217
-210
55
-53
-330
-16
17
-412
-204
110
-91
-186
114
6
-347
-113
39
-159
-72
43
-165
-188
210
108
-287
12
7
-264
-58
11
-170
-90
291
48
-193
178
243
-2
154
396
-24
-112
211
48
-131
-24
75
-161
-166
46
-219
-180
96
-143
-257
-3
-70
-330
-66
231
373
1134
1966
1995
1343
565
-267
-928
-609
-26
-110
-203
-49
-173
-302
7
115
-217
-171
78
-122
-99
122
-207
-312
119
123
-251
-54
175
-149
-113
185
50
-178
51
147
-38
125
248
-35
-84
257
118
4
418
359
16
330
572
276
326
545
475
474
802
862
558
707
864
597
599
798
583
315
537
523
-89
32
425
-52
-157
163
-82
-359
-135
23
-238
-240
-74
-311
-232
14
-398
-468
-28
-100
-351
-213
-25
-317
-412
-26
-190
-400
-8
-80
-436
-115
133
-226
-362
-94
-151
-314
-61
47
-376
-323
47
-251
-288
9
-186
-374
34
90
-511
-352
13
-283
-272
44
-196
-457
-64
-74
-444
-205
-60
-311
-262
-71
-229
-429
-82
101
-318
-270
-10
-316
-398
-30
-94
-361
-138
-47
-224
-19
83
-222
-121
244
66
-165
65
140
-297
-219
112
-289
-303
-56
-349
-425
-170
-194
-461
-286
-99
-459
-374
19
-178
-235
654
1602
1603
1721
1456
-28
-851
-644
-563
-457
-109
-155
-428
-246
-82
-362
-343
-17
-194
-441
-146
-26
-330
-220
-48
-278
-161
5
-233
-301
-127
-142
-181
-117
-101
-244
-210
95
-52
-301
-19
176
-89
-47
232
-6
0
381
178
104
542
393
184
541
673
436
569
919
662
416
805
817
273
420
653
200
118
353
127
-152
33
74
-264
-158
2
-276
-200
7
-324
-442
-73
-186
-586
-201
136
-376
-367
37
-229
-445
-165
-142
-413
-218
-12
-309
-322
-67
-246
-392
-37
-58
-399
-126
56
-289
-318
-20
-102
-329
-93
-23
-267
-121
-117
-406
-206
49
-299
-446
-60
-80
-378
-126
66
-283
-266
33
-240
-417
-73
-92
-339
-126
65
-274
-220
156
-294
-488
-8
-88
-364
-110
69
-259
-202
133
-108
-226
132
28
-312
86
383
-59
33
419
-31
-158
181
-45
-329
-72
69
-321
-258
45
-171
-347
-111
-103
-303
-88
-81
-348
-178
46
245
866
1783
2257
1791
906
80
-498
-605
-180
19
-266
16
98
-396
-118
187
-94
-124
74
-115
-304
44
56
-319
-60
176
-150
-193
86
-76
-299
26
111
-144
111
297
-108
-43
388
175
-85
191
269
29
150
435
157
137
556
323
166
572
631
294
503
863
476
450
1048
768
266
670
636
228
517
597
85
71
332
10
-174
42
34
-284
-230
72
-237
-365
-120
-258
-406
-162
-120
-455
-405
-216
-330
-293
-119
-337
-479
-257
-330
-486
-284
-155
-427
-426
-89
-266
-385
-147
-246
-399
-236
-143
-350
-310
-40
-305
-451
-84
-196
-379
-129
-160
-482
-332
40
-270
-480
-100
-206
-512
-139
57
-471
-400
27
-301
-385
-68
-168
-368
-196
33
-259
-289
45
-221
-309
26
-165
-355
-57
-39
-354
-223
96
-253
-391
163
84
-303
-17
197
-103
-85
213
-28
-110
186
43
-119
35
-46
-386
-259
0
-309
-251
94
-251
-555
-194
-18
-396
-308
135
-147
-322
542
1214
1606
2309
1926
297
-543
-432
-533
-342
153
-33
-431
-249
-134
-393
-185
121
-285
-408
-6
-120
-314
8
11
-319
-113
106
-204
-225
128
-73
-338
163
147
-396
-89
215
-90
-98
185
112
-68
146
242
-70
214
564
112
37
594
579
209
528
760
532
612
785
679
679
864
674
375
575
658
264
250
516
104
-220
180
113
-302
-141
-19
-291
-191
-6
-327
-330
6
-199
-432
-127
-6
-368
-335
33
-248
-427
-108
-310
-445
-165
-110
-304
-182
30
-312
-410
-68
-118
-374
-42
40
-437
-277
0
-218
-295
-16
-84
-428
-141
44
-337
-133
130
-318
-369
74
-26
-308
-117
34
-223
-339
0
-113
-334
1
-106
-414
-76
159
-238
-293
47
-183
-365
91
10
-325
3
10
-234
-50
123
-50
-128
206
31
-234
248
380
-30
4
272
64
-100
213
33
-377
-41
86
-260
-185
60
-263
-353
57
-144
-337
40
141
-254
99
1130
1389
1740
2117
1161
-262
-646
-461
-475
-90
137
-245
-297
47
-20
-275
-39
3
-263
-106
208
-58
-307
49
5
-258
22
164
-116
-44
132
-146
-162
197
128
-144
212
295
-171
96
332
-34
-3
309
201
110
387
405
150
326
703
509
417
796
662
429
776
912
601
710
893
559
510
796
574
196
405
449
9
22
258
-61
-242
177
0
-359
81
132
-317
-229
-40
-301
-305
-26
-124
-191
-14
-83
-372
-231
79
-177
-331
23
-25
-225
-25
-50
-254
-96
106
-168
-250
57
-42
-247
-20
36
-328
-243
75
-198
-272
84
-153
-431
-51
33
-245
-38
119
-274
-410
-1
-21
-323
-37
11
-383
-275
22
-207
-277
62
-93
-390
-67
-7
-353
-11
123
-403
-309
