369
318
268
503
500
336
453
558
404
262
276
418
398
446
481
101
33
251
12
-138
66
-19
-222
-87
71
-225
-348
-25
-218
-265
156
86
-181
-92
-31
-251
-310
-169
-174
-211
-85
-65
-190
-173
-43
-74
-229
29
25
-271
17
6
-311
-95
125
-87
-203
-127
-189
-130
157
6
-290
-172
-113
-257
-205
-21
-103
-168
-49
-75
-170
-115
-207
-438
-234
-54
-234
-175
-1
-131
-303
-172
-83
-361
-340
7
-132
-282
-35
-68
-346
-254
-112
-252
-210
-39
-221
-295
-30
-126
-276
-81
98
-68
-151
140
168
171
297
171
33
160
202
-63
74
99
-388
-312
-18
14
-151
-220
-98
-362
-452
0
-132
-468
-140
-211
-454
-133
77
613
1916
2979
2973
2168
960
-37
-71
224
265
12
-170
3
-170
-304
-126
-190
-332
-248
-66
-215
-264
43
-114
-471
-162
22
-322
-208
-97
-379
-220
58
-243
-296
-29
-10
-33
-107
-15
-93
-99
211
100
96
326
225
121
162
344
325
265
466
417
319
473
488
227
332
555
301
153
311
235
61
190
51
-234
-113
26
-181
-274
18
-135
-420
-106
41
-299
-274
-21
-290
-328
-8
-68
-166
-41
-92
-250
-146
11
-214
-228
66
-137
-366
-114
-55
-241
-133
2
-112
-101
18
-181
-291
-76
-89
-309
-150
18
-252
-257
-93
-230
-325
-260
-295
-268
8
19
-356
-318
15
-158
-360
-209
-202
-413
-262
-8
-289
-328
-164
-335
-365
-75
19
-252
-112
-81
-386
-311
-160
-169
-252
-94
-54
-408
-384
-165
-149
-157
-107
-33
-54
29
73
-55
59
129
-70
85
362
4
-243
154
214
-16
-28
-192
-303
-123
-51
-254
-472
-303
-125
-402
-427
-158
-197
-264
-135
-185
-316
129
995
1910
3064
3506
2345
781
158
70
-4
180
27
-271
-67
-4
-364
-455
-118
-218
-405
-167
-83
-240
-166
-51
-432
-240
168
-152
-288
2
-14
-347
-209
31
-100
-109
56
-72
-124
161
191
-35
59
293
173
92
267
306
262
413
322
115
399
660
490
538
770
602
422
475
444
216
90
168
137
49
171
25
-426
-188
80
-227
-169
22
-228
-360
-45
-98
-397
-124
41
-310
-326
-57
-288
-372
-45
-169
-349
-236
-263
-343
-189
-65
-156
-218
-188
-168
-291
-227
-74
-286
-208
18
-255
-451
-106
-7
-261
-130
-45
-235
-228
-124
-286
-344
-105
-227
-351
-127
-46
-243
-324
-57
-158
-350
-20
-131
-527
-158
-84
-476
-101
103
-278
-278
3
-193
-535
-228
29
-226
-205
-3
-244
-396
-199
-151
-221
-12
-48
-385
-195
-9
-260
-183
199
135
-36
139
241
89
58
142
48
5
160
143
-8
48
5
-230
-212
-192
-272
-279
-149
-195
-433
-115
-88
-407
-182
-165
-358
-140
558
1418
2462
3430
3241
1911
550
134
225
160
155
101
-211
-164
51
-198
-348
-206
-154
-156
-53
-76
-259
-361
-139
-22
-164
-41
-105
-268
18
-4
-366
-119
177
-101
-73
118
-64
-33
152
56
-27
164
199
160
263
344
312
256
393
437
363
473
575
470
373
476
581
337
414
577
182
232
295
-53
82
237
-193
-302
26
-13
-171
-242
-231
-155
-125
-76
-245
-244
-12
-136
-143
-55
-189
-198
-140
-113
-280
-289
-15
-154
-353
-78
17
-300
-128
83
-240
-208
-82
-219
-174
17
-24
-206
-165
-52
-153
-208
-4
-35
-405
-307
-7
-232
-233
8
-115
-179
-126
-276
-239
-128
-32
-168
-326
9
-49
-316
-103
-115
-382
-243
-81
-258
-316
-81
-39
-189
-86
-82
-285
-136
-158
-289
-88
-54
-134
-234
-37
-83
-322
41
151
-58
80
265
150
126
180
61
55
14
24
13
-54
104
-101
-360
-178
-230
-531
-435
-199
-217
-175
-31
-168
-357
-171
-119
13
954
2007
2744
3028
2266
801
-142
-236
-77
-6
12
111
-54
-176
12
-148
-352
-120
-185
-360
-121
-19
-217
-414
-226
-171
-420
-55
161
-176
-158
-35
-155
-204
44
71
-235
5
140
-183
75
242
-86
34
306
142
22
333
482
267
272
494
422
225
396
494
378
566
620
220
147
356
168
34
156
-4
-105
75
-52
-317
-179
-8
-207
-224
27
-43
-305
-226
-105
-269
-152
-16
-325
-345
6
-192
-373
-46
-139
-331
-80
23
-170
-234
-51
-109
-315
-119
-15
-180
-147
-4
-199
-319
80
-62
-386
-111
-89
-263
-147
-111
-273
-223
-57
-140
-359
-221
-75
-437
-318
34
-284
-309
14
-69
-290
-232
-152
-303
-222
0
-210
-328
-52
-103
-405
-264
-95
-359
-247
0
-168
-167
-28
-146
-259
-61
83
-23
-16
79
55
48
189
11
-191
256
240
-155
101
266
-86
-181
-38
-226
-273
-121
-212
-529
-438
50
-139
-371
-111
-209
-440
-152
-14
-19
927
2392
3115
2953
2225
920
-59
58
225
-121
-76
47
-219
-195
-36
-178
-365
-209
-214
-492
-213
-11
-277
-251
-97
-193
-256
-65
-44
-222
-169
-13
-105
-215
-17
-48
-225
0
111
-96
-4
259
61
-81
292
269
101
333
378
258
421
462
152
333
618
426
390
571
529
332
288
399
251
27
81
84
-59
-23
10
-212
-242
-81
-129
-240
-41
-29
-470
-319
72
-200
-218
0
-208
-234
0
-252
-486
-52
77
-274
-178
47
-233
-333
-68
-100
-356
-187
-53
-229
-83
-13
-194
-131
-25
-141
-266
-122
-86
-324
-177
-85
-255
-253
-178
-271
-384
-150
-86
-351
-293
-5
-149
-315
-57
-159
-344
-140
-61
-355
-350
-51
-372
-485
-32
-59
-366
-247
-24
-210
-247
-121
-278
-246
-33
-235
-439
-147
-116
-430
-244
114
-44
-135
52
-98
-312
105
290
-16
88
317
139
-44
148
-27
-240
262
430
52
-14
48
-164
-304
-143
-118
-406
-294
-53
-251
-183
-54
-273
-463
-258
48
199
1193
2511
3069
3193
2608
1073
41
286
389
36
34
54
-166
-193
-38
-153
-362
7
99
-275
-83
45
-255
-225
-6
-113
-234
-30
33
-200
-179
-30
-40
4
90
-45
-118
95
169
27
85
175
-23
52
379
225
91
382
397
249
443
648
469
338
621
573
379
613
644
425
498
466
172
178
217
-55
-198
105
139
-148
-169
-26
-164
-285
-74
-63
-171
-62
-93
-326
-258
-121
-204
-323
-145
-126
-303
-43
-12
-399
-383
-65
-240
-244
60
-122
-354
-188
-38
-281
-236
4
-280
-300
56
-106
-281
40
-1
-353
-190
-30
-253
-251
-202
-224
-102
-56
-159
-234
-107
-22
-252
-293
-132
-242
-217
-61
-82
-350
-298
21
-153
-268
-131
-181
-303
-86
35
-383
-267
62
-168
-260
-162
-149
-269
-133
50
-230
-156
-33
-327
-148
143
-96
-183
158
181
-21
123
239
77
84
238
124
-22
99
137
-142
-162
42
-152
-372
-235
-156
-317
-219
-138
-318
-182
-38
-246
-304
-57
-71
21
1097
2336
3008
3123
2199
724
-66
53
210
7
74
103
-299
-134
102
-233
-244
-57
-216
-193
-28
-146
-221
-102
-61
-284
-176
111
-59
-228
-55
-119
-297
65
173
-221
-167
169
150
-44
13
198
182
161
241
187
253
445
238
220
555
474
253
298
495
399
268
726
645
228
471
432
165
162
147
13
-36
110
-8
-216
-78
-157
-303
-137
-27
-142
-298
-125
-101
-224
-8
5
-252
-200
-18
-233
-365
-105
-131
-376
-227
-38
-152
-96
48
-184
-295
-126
-316
-307
99
112
-61
-27
34
-176
-256
-32
-153
-282
-72
-14
-179
-163
-7
-129
-251
-29
-178
-613
-182
199
-172
-195
35
-138
-197
0
-178
-334
-181
-66
-129
-179
-81
-186
-205
-45
-145
-342
-164
-33
-402
-281
123
-102
-222
-23
-152
-237
-44
-5
-84
-50
144
69
-228
-4
185
-15
180
265
77
137
241
90
-90
112
148
-171
-122
-100
-436
-385
-196
-219
-279
-218
-209
-338
-85
-56
-452
-245
228
728
1818
2956
3160
2316
1020
178
-15
128
250
-90
-259
5
-75
-252
-87
-132
-334
-189
3
-235
-333
-79
-100
-280
-126
-29
-204
-101
55
-70
-199
-129
-131
-237
-107
151
90
-30
92
10
-28
250
204
-50
116
341
153
207
538
481
341
505
542
345
485
586
325
436
695
351
111
377
334
17
12
94
-119
-201
-60
-223
-408
-74
28
-269
-142
-45
-291
-284
-88
-326
-462
-111
-146
-368
-159
-254
-498
-148
-64
-408
-342
-73
-116
-308
-191
29
-173
-340
-58
-106
-335
-45
-72
-426
-186
-77
-298
-243
-125
-119
-166
-154
-228
-232
-86
-125
-353
-285
60
-251
-499
-1
-88
-422
-159
-154
-406
-138
95
-230
-346
-66
-194
-425
-106
23
-384
-331
-14
-149
-173
-100
-73
-237
-375
-153
-160
-178
-6
-134
-282
-71
-103
-298
-46
27
-62
-4
53
15
-144
132
323
92
224
287
31
59
222
163
47
51
-86
-284
-145
-23
-284
-343
-66
-193
-389
-120
-223
-517
-217
-39
-179
-116
359
1266
2259
3239
3309
2077
857
269
104
147
117
-36
-73
-107
-193
-217
-143
-31
-196
-195
-65
-267
-271
-3
-45
-309
-117
18
-262
-176
30
-166
-218
-55
-73
-75
36
178
22
-92
118
22
-45
160
239
169
179
286
210
254
482
410
329
487
522
391
457
683
568
446
646
515
226
344
302
32
18
-11
-99
-33
-8
-125
-151
-28
-117
-300
-185
-215
-290
-64
-24
-218
-233
-74
-136
-300
-229
-179
-278
-244
-23
-61
-376
-284
-86
-237
-152
-14
-125
-254
-14
-57
-459
-78
89
-358
-212
75
-220
-269
11
-86
-206
-94
-180
-347
-276
-64
-118
-178
12
-97
-390
-181
27
-265
-200
-107
-294
-214
-139
-209
-316
-148
43
-185
-251
-83
-207
-308
-110
-112
-268
-146
8
-216
-285
-9
-92
-224
-29
-79
-303
-209
-90
-185
-130
63
-147
-378
13
124
-106
136
240
-34
-61
133
171
262
421
192
4
132
112
34
112
136
-154
-222
18
-276
-421
-23
-127
-336
-240
-127
-92
-224
-147
-110
-296
157
1250
2169
2989
3311
2365
975
203
107
168
202
149
-100
-45
72
-141
-191
-48
-203
-327
-35
55
-267
-280
33
-103
-232
5
-29
-182
-73
92
-127
-153
182
-5
-238
56
135
-116
36
269
95
39
223
217
221
386
321
-6
278
705
380
374
678
475
362
523
489
399
473
500
240
61
256
263
-93
48
226
-186
-143
78
-190
-267
-41
-121
-313
-133
-103
-227
-203
-131
-189
-210
-50
-247
-354
-79
-107
-291
-164
-54
-242
-204
26
-289
-350
117
42
-226
-54
-65
-353
-194
98
-45
-173
-79
-145
-228
-42
20
-239
-249
13
-99
-244
-54
-161
-312
42
98
-292
-192
55
-259
-378
47
56
-304
-282
-54
-116
-159
-25
-93
-228
-151
-183
-315
-19
72
-296
-153
131
-90
-240
-67
-48
-212
-172
-70
-191
-207
30
-93
-258
-23
-15
-236
-98
56
-50
58
181
32
72
277
214
98
95
171
77
-52
123
190
105
74
-39
-187
-209
-186
-302
-198
28
-144
-327
-122
-106
-387
-204
18
-247
146
1463
2351
2815
2982
1959
300
-128
185
71
126
127
-162
-171
-13
-93
-268
-161
-52
-199
-203
-8
-110
-253
-49
-197
-343
-61
-2
-126
-87
77
-3
-170
84
12
-319
-18
196
-9
39
245
61
-41
174
282
160
109
376
364
360
585
464
361
481
481
298
425
602
335
306
449
288
130
237
160
-54
51
93
-189
-226
3
-119
-220
-54
-94
-204
-220
-218
-246
-280
-71
-232
-407
64
-76
-406
-131
-195
-344
-128
8
-192
-299
-95
-39
-123
-142
-86
-173
-232
-10
-63
-290
-131
-23
-281
-240
-15
-223
-285
-48
-58
-290
-192
-40
-286
-301
-74
-157
-247
-57
-167
-412
-159
-27
-417
-357
13
-166
-210
-29
-170
-288
-151
-183
-321
-170
-117
-308
-332
-121
-150
-307
-231
-172
-167
-136
-183
-280
-170
-73
-241
-363
-134
-88
-321
-136
38
-84
-108
112
129
-21
115
145
84
139
116
19
9
150
10
-269
-34
21
-320
-377
-194
-254
-405
-210
-195
-401
-191
-91
-403
-255
49
2
641
1925
2763
3079
2771
1343
85
147
301
77
-51
-23
-106
-323
-159
-106
-282
-126
15
-184
-301
-154
-120
-309
-242
-13
-234
-181
140
-130
-370
-47
-25
-237
49
155
-137
-149
60
-14
-79
194
205
-46
81
337
219
145
268
213
283
605
509
295
537
603
433
410
511
463
427
496
255
24
129
144
-89
-69
85
-259
-329
57
-46
-320
-201
-160
-349
-196
6
-286
-403
-118
-188
-402
-273
-174
-315
-328
-64
-172
-281
-84
-385
-506
-121
-43
-162
-135
-41
-217
-441
-104
-32
-336
-162
19
-250
-373
-200
-236
-179
4
-138
-275
-130
-53
-216
-226
-81
-215
-336
-206
-245
-316
-95
-39
-259
-286
-146
-243
-338
-124
-91
-293
-190
-45
-283
-241
-1
-233
-345
-104
-199
-480
-273
-54
-242
-252
-59
-133
-318
-87
-62
-404
-180
-54
-241
-74
45
-120
-47
120
1
-70
116
220
15
21
276
93
-156
95
111
-146
-86
-70
-342
-254
-14
-303
-547
-257
-185
-443
-238
-79
-386
-363
-100
-151
288
1389
2547
3304
3158
2098
510
-107
345
215
-142
14
-65
-265
-87
-32
-267
-325
-175
-422
-446
44
7
-293
-234
-36
-137
-204
-2
-165
-313
-41
-127
-242
-16
-63
-177
-8
119
-43
-99
186
138
-141
67
251
115
193
399
323
150
334
360
164
483
687
363
346
675
496
287
466
317
124
123
76
-45
-126
11
-186
-334
46
-29
-438
-242
-24
-226
-263
-25
-133
-408
-170
-152
-381
-242
-65
-298
-446
-180
-256
-309
61
-66
-488
-391
-135
-215
-244
-29
-150
-265
-40
-130
-300
-131
-65
-305
-432
-114
-11
-259
-202
-80
-225
-170
-61
-370
-406
-114
-188
-254
7
-33
-329
-169
-47
-461
-373
35
-247
-477
-99
27
-287
-325
-122
-176
-235
-68
-164
-298
-179
-204
-275
-122
-125
-314
-220
-119
-259
-355
-70
57
-226
-66
200
-87
-138
239
138
-40
130
176
13
84
279
37
-73
68
-172
-285
-10
-108
-318
-216
-167
-350
-333
-46
-190
-341
-132
-142
-336
-149
430
1286
2414
3097
2726
1416
355
73
-75
1
57
-94
-86
8
-95
-265
-214
-158
-255
-407
-251
-55
-164
-35
-69
-379
-152
-21
-268
-179
-50
-93
-141
-60
-15
-159
-67
-54
-203
-13
162
57
56
161
82
19
239
336
161
257
428
311
315
493
343
274
562
557
325
323
369
241
212
170
63
-10
8
4
-242
-276
-93
-139
-242
-50
-114
-402
-165
-29
-358
-384
-144
-161
-278
-241
-235
-403
-214
21
-296
-315
-2
-171
-277
-21
-91
-216
-147
-122
-258
-273
-3
-123
-247
-63
-222
-311
-87
-67
-260
-187
17
-202
-369
-77
-95
-376
-145
39
-231
-365
-117
-238
-458
-78
-64
-319
-91
-24
-451
-378
-13
-248
-294
-94
-174
-192
-178
-227
-357
-378
-194
-203
-213
-88
-185
-349
-238
-69
-194
-242
-32
-208
-321
88
65
-239
21
113
-236
-43
252
130
92
187
129
-24
125
156
-199
-187
45
-219
-435
-195
-234
-412
-253
-225
-452
-364
-43
-220
-375
-31
-67
56
1176
2390
3060
3007
2018
416
-212
251
235
-167
-123
-8
-196
-200
-122
-262
-268
-120
-225
-330
-148
0
-223
-342
-57
-173
-307
18
-148
-428
-132
22
-206
-271
38
56
-194
-58
112
-46
-6
249
69
13
287
123
-19
376
377
161
423
520
386
341
598
579
307
557
539
205
345
543
172
13
335
70
-227
25
38
-187
-152
-6
-228
-299
-8
-165
-332
-160
-294
-341
-126
-20
-176
-258
-61
-186
-385
-206
-47
-297
-289
-93
-248
-229
5
-40
-270
-198
-68
-180
-115
65
-141
-203
66
-124
-339
-63
25
-309
-291
-53
-173
-226
-170
-154
-149
13
-93
-502
-95
240
-142
-227
-45
-149
-355
-156
-72
-263
-231
-178
-272
-286
16
-14
-367
-166
-99
-219
-123
-114
-141
-299
-169
-78
-285
-64
-32
-238
-120
-130
-177
-61
137
126
-27
68
139
55
184
394
87
-17
163
20
41
67
38
-120
-250
-136
-325
-277
-95
-353
-350
-37
-29
-221
-178
-122
-389
-257
549
1312
2250
3392
3340
2032
784
224
169
172
207
1
-218
22
28
-271
-204
-119
-210
-117
-59
-201
-248
-79
-96
-236
-37
66
-194
-240
-55
-41
-149
-33
-48
-222
47
122
-150
-35
290
184
-81
197
274
-72
186
533
186
229
666
494
314
541
575
338
498
725
419
372
672
474
205
372
308
-42
92
111
-206
-26
188
-98
-331
-81
-54
-354
-102
107
-181
-287
-117
-106
-293
-184
-78
-353
-231
38
-204
-232
7
-69
-307
-264
-62
-136
-181
-48
-136
-174
40
-82
-287
-57
-25
-312
-282
-12
-31
-161
27
1
-306
-102
70
-369
-314
75
-112
-187
76
-11
-322
-187
65
-205
-326
41
-130
-269
113
14
-239
-137
-46
-203
-265
8
-90
-300
-82
-134
-201
-11
-84
-264
-191
40
-50
-151
13
17
-58
20
145
0
-48
223
229
106
222
213
71
130
238
-54
-205
137
-15
-133
51
-147
-409
-288
-40
-211
-249
-92
-256
-309
-95
-70
-334
65
1205
2264
3243
3371
2130
649
-22
70
143
93
96
-159
-152
122
-81
-290
-109
-152
-324
-122
-30
-175
-66
87
-95
-186
35
-55
-186
13
87
-43
-50
24
-128
-100
70
73
9
90
145
-84
98
363
146
168
450
307
119
436
499
296
440
546
345
259
544
609
335
368
532
263
113
180
28
-24
-9
-96
-179
-129
-29
-223
-226
-54
-264
-294
-54
-87
-294
-187
-74
-319
-265
-34
-204
-287
-102
-129
-318
-292
-90
-144
-236
19
24
-396
-279
83
-108
-178
-30
-140
-175
37
-95
-320
-42
-92
-398
-101
69
-252
-447
-151
-25
-221
-141
-135
-308
-196
-67
-278
-289
-82
-165
-320
-161
-54
-274
-212
-24
-181
-189
-138
-300
-221
-19
-151
-318
-107
7
-220
-269
-96
-173
-262
-2
-57
-395
-236
-39
-214
-97
167
-48
-169
99
185
15
62
244
41
91
315
-69
-170
218
118
-171
-128
-90
-278
-337
-138
-223
-399
-221
-164
-313
-218
-219
-380
-163
-31
148
1183
2497
3171
2914
1837
602
-88
-63
224
89
-166
-120
-252
-377
-138
30
-197
-276
30
-112
-315
-53
-112
-380
-177
-42
-233
-212
-48
-167
-398
-169
43
-88
39
183
-105
-203
104
98
-72
97
210
-113
-44
401
164
175
494
329
204
325
560
506
417
546
462
509
630
342
56
282
354
-53
160
307
-183
-284
-51
-32
-139
-69
-147
-405
-265
30
-243
-365
-113
-301
-386
-140
-157
-377
-253
-136
-370
-253
-56
-320
-344
-84
-96
-316
-309
-30
-113
-236
-82
-159
-260
-91
-100
-278
-166
-34
-294
-279
64
-136
-396
-152
-98
-295
-102
-83
-292
-185
-46
-231
-502
-193
0
-237
-150
-64
-331
-344
-123
-143
-283
-213
-58
-193
-201
-34
-292
-379
-35
-52
-232
-164
-75
-249
-179
34
-321
-452
-31
-39
-358
-128
92
-181
-113
139
2
-21
285
217
36
227
170
-95
-39
237
29
-159
121
-98
-361
-128
-177
-439
-291
-94
-292
-338
-83
-112
-345
-229
-76
-171
156
1097
2014
2903
3410
2592
1103
325
180
73
155
220
-107
-245
-4
-112
-401
-209
-7
-187
-123
48
-223
-317
-19
-120
-320
-90
82
-168
-213
70
-69
-218
-81
-35
-53
144
219
-227
-96
286
-73
-77
348
276
61
234
408
285
330
504
387
240
438
546
348
464
717
568
427
466
377
311
289
142
-91
-30
157
-67
-120
-66
-257
-290
-165
-125
-206
-46
-77
-348
-195
-54
-259
-285
-39
-148
-362
-174
-131
-254
-256
-172
-268
-413
-97
-180
-369
-44
-87
-246
-103
-12
-157
-213
-79
-111
-224
-185
-218
-289
-123
-71
-265
-214
13
-132
-297
-80
-155
-335
-227
-65
-66
-315
-188
-61
-353
-161
-1
-395
-269
69
-190
-277
-126
-219
-252
-124
-62
-201
-286
-78
-129
-341
-79
-13
-251
-152
-112
-278
-131
27
-148
-232
-137
-112
-181
-82
204
142
71
226
65
31
198
112
69
114
134
76
58
189
-23
-277
-90
-143
-414
-293
-82
-195
-277
-158
-261
-322
-139
-236
-369
-17
369
1051
2241
3222
3120
2032
1006
120
-219
259
325
-263
-243
86
-151
-347
-108
-3
-247
-258
-102
-228
-186
22
-185
-305
-91
-196
-298
-7
-53
-358
-103
101
-123
-71
77
-107
-131
137
77
-156
56
290
104
56
321
330
85
282
366
139
423
644
414
273
506
580
333
429
501
180
181
399
76
-150
136
113
-288
-230
90
-147
-245
6
-276
-351
-9
-165
-370
-103
0
-362
-308
-49
-271
-281
-10
-161
-372
-226
-156
-191
-160
-91
-204
-293
46
61
-255
-175
-58
-267
-279
2
-50
-263
-150
-27
-223
-206
-111
-283
-188
-146
-237
-112
-45
-113
-190
-65
-87
-326
-281
-105
-203
-212
-92
-235
-263
-136
-231
-397
-165
96
-151
-255
-139
-270
-341
-137
-22
-239
-239
-50
-227
-361
-70
-104
-379
-202
-112
-199
-24
124
-29
-183
64
149
-8
240
268
-10
-28
87
-87
-114
56
-343
-442
-7
-115
-432
-212
-76
-334
-313
-143
-252
-421
-301
-136
-260
-68
762
1630
2475
3035
2403
1021
212
59
-61
12
133
-156
-347
-43
-95
-441
-308
-53
-184
-216
-40
-357
-349
130
-60
-412
-152
-70
-210
-58
36
-132
-327
-87
12
-231
-84
177
-89
-324
114
165
-2
291
194
-19
276
372
180
240
366
419
396
508
545
340
380
358
287
525
552
273
134
244
141
-109
-58
51
-124
-364
-181
-77
-245
-92
-88
-331
-223
-65
-308
-406
-82
-197
-409
-119
-156
-396
-128
8
-497
-403
62
-178
-286
-55
-157
-341
-113
-20
-226
-155
44
-137
-316
-108
-137
-327
-153
-84
-192
-197
-205
-251
-166
-43
-135
-348
-383
-241
-236
-204
3
-119
-311
-80
-238
-529
-170
-95
-338
-205
-40
-151
-350
-253
-133
-426
-228
126
-294
-310
-35
-213
-263
-62
-83
-395
-447
-171
-183
-180
-13
-207
-281
-44
-80
-302
-104
189
-5
-31
140
-45
-101
80
105
34
155
222
18
11
151
-50
-105
39
-185
-279
-81
-90
-337
-314
-131
-412
-513
-125
-80
-324
-185
-8
-248
274
1642
2626
3196
3122
1941
514
63
252
44
-113
214
33
-385
-125
40
-278
-252
-19
-306
-517
-26
101
-185
-81
-133
-286
-23
50
-325
-335
55
21
-214
-71
30
-63
-3
53
-111
9
253
162
32
154
271
144
201
328
144
228
495
389
330
599
693
405
514
587
161
318
592
296
159
315
164
-145
-45
161
-97
-341
-39
-103
-295
-81
-166
-290
-123
-90
-241
-207
-112
-363
-373
25
-91
-363
-164
-151
-415
-344
12
-4
-192
-116
-240
-343
-144
-37
-221
-260
-52
-108
-250
-33
-7
-337
-169
104
-260
-403
36
3
-265
-148
-56
-286
-317
-75
-233
-361
-191
-54
-172
-132
-20
-209
-164
-14
-162
-344
-183
-71
-246
-157
-100
-296
-276
-39
-128
-240
12
-158
-261
-7
-34
-229
-183
12
-302
-338
109
-82
-262
12
-42
-230
66
267
-54
48
428
258
108
247
204
-1
61
177
12
-26
84
-119
-355
-201
-193
-381
-58
28
-354
-219
33
-175
-386
-168
5
-181
387
1767
2714
3299
3217
1886
434
67
327
196
76
136
-89
-93
17
-138
-171
-72
-173
-303
-176
1
-184
-216
13
-152
-396
-161
58
-216
-93
199
-53
-123
99
7
-142
39
76
-134
-11
230
49
21
240
127
77
332
377
202
409
661
455
392
600
462
258
553
574
187
297
496
226
107
292
154
-35
92
51
-184
-104
7
-229
-251
-44
-182
-293
-130
-159
-274
-367
-284
-141
-218
-110
-90
-253
-113
-55
-203
-168
-42
-216
-393
-102
-148
-361
-74
-20
-252
-158
-4
-189
-327
-76
4
-407
-325
48
-182
-200
32
-203
-275
-19
-130
-294
-127
-139
-252
-144
-53
-298
-382
61
-47
-338
-100
-199
-347
-116
-124
-310
-202
59
-46
-331
-197
-52
-276
-213
0
-176
-190
2
-97
-246
-107
-15
-350
-343
182
138
-166
-49
113
136
257
299
9
20
254
-32
-104
170
66
-120
-71
-47
-265
-360
-247
-261
-187
-64
-278
-414
-195
-225
-404
-95
7
-53
815
2237
3046
2792
2145
923
-286
-133
226
27
-50
-8
-116
-277
-184
1
-234
-269
-84
-230
-251
-136
-214
-228
57
74
-237
-155
-6
-340
-287
166
-76
-201
79
-9
-214
-157
179
130
-133
135
227
-37
173
386
103
219
513
140
52
440
458
301
458
608
259
223
583
381
177
337
170
-92
72
151
-124
-180
-30
-92
-179
-85
-12
-329
-366
-30
-279
-202
72
-242
-273
-56
-219
-378
-171
-50
-182
-125
-73
-280
-301
-112
-69
-168
-140
-100
-159
-44
46
-181
-173
62
-144
-311
-79
0
-211
-174
-44
-350
-297
12
-102
-241
-103
-66
-305
-176
9
-181
-342
-137
-27
-297
-158
-36
-404
-382
-80
-280
-400
-77
5
-199
-181
-80
-185
-127
-134
-342
-238
-20
-166
-364
-180
-36
-279
-217
40
-138
-191
84
96
-36
112
145
-22
103
280
109
-16
162
120
-168
-144
-41
-289
-358
-212
-326
-348
-73
-73
-332
-206
-138
-394
-340
-178
-303
-90
933
1861
2510
3219
2601
812
61
200
2
-5
221
21
-243
-95
-43
-308
-232
-59
-412
-451
-59
-171
-264
-56
-101
-390
-259
120
-89
-226
15
-64
-175
10
52
-160
-212
1
-42
-95
15
-99
-11
304
308
-120
-86
474
406
264
474
401
285
435
504
382
357
480
351
103
493
480
37
296
126
-175
156
115
-155
-137
-70
-88
-232
-132
-16
-320
-349
-53
-199
-423
-149
-133
-307
-113
-174
-345
-148
-13
-173
-225
-88
-103
-241
-158
-52
-320
-288
35
-84
-144
-8
-133
-288
-132
-53
-232
-65
123
-194
-246
-11
-106
-323
-212
12
-236
-252
78
-212
-446
-135
-114
-262
-35
-90
-397
-162
-18
-347
-279
24
-79
-285
-180
-101
-316
-137
-15
-301
-303
-155
-137
-210
-131
-69
-264
-236
-113
-197
-152
-123
-177
-256
-85
60
-263
-199
63
-42
-148
87
243
-20
55
273
22
57
322
109
-99
74
211
54
81
21
-309
-231
-45
-227
-392
-132
-65
-434
-283
-140
-355
-161
-111
-203
-102
591
1696
2580
3383
3174
1619
419
338
272
65
166
127
-97
-172
-131
-212
-216
-65
-210
-278
-65
-122
-265
-119
-94
-336
-172
94
-137
-261
-7
40
-275
-127
125
-173
-125
178
-14
-159
188
164
-95
186
314
136
183
327
237
203
427
384
185
442
717
446
410
621
459
370
418
378
243
167
226
70
-109
94
83
-233
-63
79
-293
-295
-39
-216
-306
10
-91
-478
-179
-52
-427
-215
-65
-385
-236
40
-195
-312
-79
-75
-402
-276
2
-218
-247
-25
-92
-276
-137
-238
-362
8
-34
-344
-200
33
-96
-218
-89
-84
-189
-140
-85
-314
-282
-87
-219
-191
-70
-123
-296
-167
-15
-276
-224
-6
-201
-449
-177
1
-234
-93
22
-226
-320
-100
-53
-200
-41
-51
-358
-306
-26
-145
-176
33
-190
-279
-59
-124
-206
-46
-65
-225
-49
178
37
-56
209
130
-160
223
415
75
88
221
48
-15
171
128
-207
-230
-119
-304
-231
-105
-353
-299
-51
-179
-297
-198
-191
-380
-240
236
764
1784
3109
3431
2507
1333
363
-105
58
291
38
-250
-92
-75
-285
-91
-6
-297
-195
-74
-236
-123
-48
-206
-262
-87
5
-253
-225
74
-157
-280
31
-80
-256
-7
37
-72
1
91
104
22
172
250
-18
75
391
205
173
447
259
214
584
477
244
471
578
387
382
538
372
129
227
235
-70
0
171
-70
-45
131
-85
-205
-205
-340
-272
-107
-100
-227
-194
-58
-162
-209
-59
-117
-321
-226
-81
-353
-310
-3
-242
-393
32
82
-245
-66
-2
-278
-213
33
-150
-344
-33
41
-261
-289
-168
-200
-74
96
-103
-213
-68
-258
-499
-163
-12
-293
-272
-99
-129
-220
-128
-157
-315
-174
-8
-245
-278
-35
-207
-278
-26
-85
-259
-103
-199
-526
-281
12
-116
-215
-126
-50
-157
-92
-16
-260
-314
-182
-277
-294
-84
-40
-81
51
105
-94
-18
150
-221
-228
360
396
9
3
141
34
22
111
-111
-379
-182
-119
-410
-264
-96
-325
-337
-220
-329
-376
-150
-194
-363
-79
464
1223
2320
3156
2685
1341
297
-129
-114
130
136
-94
-122
-110
-259
-324
-172
-102
-253
-250
-105
-234
-203
-41
-197
-294
-174
-97
-151
-166
-68
-121
-223
-40
-73
-140
48
-74
-214
22
134
-50
-11
106
42
174
252
96
160
384
409
206
281
498
329
172
399
468
219
280
318
112
234
222
-89
-47
195
42
-246
-154
-87
-238
-325
-168
-151
-267
-69
-143
-380
-216
-243
-529
-320
56
-246
-451
-51
-119
-388
-131
-12
-248
-166
23
-230
-307
-83
-109
-178
-87
-159
-388
-223
15
-282
-420
-41
-34
-271
-124
-76
-283
-227
10
-152
-415
-146
-71
-420
-283
-57
-276
-250
-108
-377
-373
-117
-129
-265
-204
-23
-207
-309
-94
-244
-362
-144
-179
-321
-234
-88
-176
-302
-167
-146
-282
-91
-72
-289
-144
-88
-294
-256
-156
-319
-293
-67
-56
-102
18
179
-99
-298
183
278
84
192
55
-22
163
89
-144
-82
146
-78
-340
-53
-2
-333
-249
-154
-484
-359
-17
-181
-310
-135
-224
-476
-175
424
1016
2188
3263
3058
2103
925
16
-130
91
224
-6
-209
-37
-84
-290
-108
-88
-335
-146
16
-265
-239
3
-223
-308
-114
-88
-139
-80
83
-133
-237
-8
-56
-178
1
49
-107
79
172
-69
-50
197
57
20
306
291
176
365
486
319
376
445
330
451
662
509
300
439
529
309
175
260
132
24
133
-61
-204
8
-116
-316
-79
-6
-236
-281
-26
-106
-464
-326
-143
-355
-367
-38
-144
-342
-202
-292
-333
-78
-23
-280
-363
-146
-194
-303
-98
-31
-205
-149
-144
-333
-255
-80
-90
-204
-147
-122
-196
-55
-78
-279
-194
-134
-305
-221
-61
-276
-328
-56
-87
-261
-146
-49
-250
-325
-47
-125
-367
-81
18
-386
-303
6
-250
-356
-52
30
-262
-189
-24
-302
-240
-24
-178
-191
-30
-188
-267
-37
-3
-279
-320
-23
-104
-236
-22
-91
-160
36
93
-50
-133
139
144
22
296
248
42
176
300
141
35
167
-1
-219
72
47
-250
-122
-99
-360
-332
-180
-288
-235
-159
-231
-271
-120
79
-143
68
1192
2157
2922
3417
2555
935
307
388
169
91
202
5
-177
-123
-159
-289
-110
38
-297
-260
53
-135
-232
-30
-94
-341
-189
52
-143
-133
32
-97
-167
44
62
-223
-37
148
-98
-1
343
50
-144
336
279
10
293
487
241
204
541
450
255
584
550
275
576
667
228
345
728
407
88
261
230
-4
-45
68
-13
-178
7
-37
-297
-167
-8
-242
-188
-12
-319
-244
-12
-172
-197
-108
-189
-331
-313
-169
-164
-163
-12
-106
-222
-103
-128
-262
-190
-22
-145
-156
34
-125
-307
-158
-42
-293
-353
-29
-35
-101
5
-176
-322
-38
-149
-546
-109
149
-145
-207
-142
-143
-283
-223
-109
-256
-175
-23
-243
-221
-32
-266
-367
-66
-125
-351
-224
-49
-169
-292
-54
-202
-379
-28
-9
-273
-271
-73
-123
-304
-68
-174
-482
77
134
-340
-93
66
-109
53
183
-25
-18
276
273
-5
176
222
-54
10
155
54
-181
-126
-70
-252
-134
-83
-299
-307
-232
-279
-262
-120
-218
-386
-191
18
136
1052
2451
3083
2877
1985
714
1
89
252
0
-77
94
-131
-287
-141
-145
-208
-18
-8
-325
-235
-102
-303
-248
109
50
-300
-130
151
-66
-248
-59
-11
-122
-20
78
-40
50
90
-135
-12
291
146
-64
292
401
112
267
489
307
275
515
365
262
614
597
285
274
481
400
251
381
132
-114
84
91
-138
-46
126
-195
-268
-11
-220
-357
-127
-141
-269
-133
-126
-346
-162
40
-288
-399
-32
-176
-588
-134
141
-220
-241
-40
-52
-253
-163
-45
-248
-61
156
-282
-311
-14
-196
-278
-39
-134
-324
-27
56
-276
-364
-108
-95
-263
-144
-129
-298
-185
-30
-256
-312
-42
-172
-403
-202
-161
-371
-207
32
-259
-414
-82
-108
-287
-103
-64
-324
-146
3
-276
-220
-104
-290
-253
-64
-194
-280
-84
-60
-248
-271
-26
-50
-210
43
26
-112
163
151
-78
171
388
117
-89
11
140
40
56
249
-94
-348
-6
-68
-379
-161
-125
-400
-132
-32
-403
-273
-137
-277
-194
-100
39
732
1958
2969
3048
2334
1073
-50
-147
214
161
-99
20
89
-278
-172
92
-224
-296
-60
-52
-130
-147
-128
-230
-301
-50
-41
-282
-161
44
-126
-163
-33
-114
-30
-21
-85
98
171
44
-115
47
241
51
53
275
173
63
299
420
303
382
547
401
374
570
432
327
505
473
262
282
267
-50
-18
237
26
-292
-80
8
-303
-111
71
-213
-307
-174
-258
-276
-35
-66
-303
-215
-75
-249
-234
-212
-410
-292
7
-39
-270
-134
16
-262
-394
-21
-108
-376
23
88
-238
-92
22
-236
-177
-57
-264
-306
-48
-68
-381
-116
0
-381
-278
-57
-208
-266
-44
-95
-304
-226
-66
-305
-386
34
-158
-373
-81
-66
-283
-270
-89
-245
-374
-145
-83
-260
-105
-52
-305
-115
-16
-321
-295
-71
-175
-211
42
-72
-303
-235
-233
-268
-167
6
-92
-238
-24
-111
-420
-28
219
-31
67
124
-58
49
283
251
76
158
323
-118
-292
126
44
-52
68
-99
-255
-145
-142
-314
-255
-172
-289
-281
-135
-67
-274
-255
47
-77
558
2072
3000
3210
2865
1623
192
107
452
126
-14
94
-54
-163
-9
-61
-212
-117
-162
-283
-145
-50
-207
-277
-2
6
-264
-77
68
-167
-194
38
-50
-272
95
187
-268
7
237
-241
-85
382
221
33
253
268
75
281
495
303
214
515
466
334
605
496
315
564
618
292
311
601
365
96
147
121
36
68
109
-91
-179
-46
-123
-187
-59
-196
-404
-223
83
-103
-182
80
-132
-249
-52
-65
-226
-133
-39
-383
-267
75
-247
-282
127
85
-296
-188
-4
-210
-34
157
-52
-173
11
-44
-425
-215
66
-215
-248
-19
-108
-278
-113
-64
-356
-226
45
-226
-293
-105
-176
-193
-56
-69
-312
-233
-19
-316
-398
-112
-161
-210
-51
-112
-270
-339
-201
-123
-215
-1
-192
-376
32
-65
-384
-225
-41
-256
-256
31
-120
-319
-211
-115
-52
56
79
43
98
151
92
74
129
174
42
105
280
61
-56
73
78
-72
27
-3
-377
-256
-13
-318
-319
-26
-174
-357
-238
-156
-459
-309
119
419
1613
2963
3380
2917
1752
386
-155
225
354
-91
-114
61
-184
-362
-200
-44
-324
-407
-143
-226
-250
-182
-247
-215
-92
-134
-325
-158
-38
-247
-215
-124
-231
-78
33
-179
-149
154
238
-71
-63
240
49
-57
289
335
131
289
434
157
191
544
431
303
500
527
281
415
680
341
228
435
170
-71
121
23
-391
-319
-133
-347
-301
-87
-214
-451
-355
-262
-374
-254
-168
-377
-371
-220
-412
-403
-147
-139
-475
-449
-149
-342
-260
-58
-320
-260
-27
-170
-317
-192
-94
-241
-242
-77
-124
-280
-99
-166
-430
-108
-72
-442
-194
-89
-461
-229
-28
-159
-247
-236
-158
-277
-242
-38
-102
-322
-202
-156
-295
-131
-87
-367
-331
17
-93
-354
-164
-129
-308
-118
-121
-248
-90
-32
-136
-280
-175
-15
-188
-157
50
-176
-161
145
71
-73
8
165
221
315
292
31
112
292
125
-14
34
-16
-228
-209
-46
-156
-234
-154
-226
-235
-24
-106
-305
-109
-52
-273
-148
353
1110
2092
3009
2934
1769
663
49
-124
-23
98
14
-110
4
-2
-146
-56
-50
-273
-210
60
-42
-179
9
-64
-171
-9
-52
-203
-196
61
39
-101
129
-6
-150
162
93
-168
94
189
-4
168
394
288
24
248
505
222
279
497
372
318
446
496
317
386
550
397
402
455
262
159
337
310
-63
16
113
-216
-122
70
-156
-284
-236
-151
-155
-113
-16
-257
-378
-138
-126
-197
-46
-152
-372
-123
15
-313
-248
-62
-230
-219
-28
-119
-188
20
-35
-235
-141
44
-111
-252
-144
-141
-190
-127
8
-84
-73
103
-146
-301
-55
-125
-362
-127
7
-300
-231
-83
-210
-207
-106
-47
-319
-286
-181
-434
-249
77
-73
-320
-78
-35
-345
-176
-25
-235
-175
-85
-243
-252
-164
-202
-318
-160
-23
-224
-206
-6
-27
-194
-64
130
-47
107
303
40
78
317
146
-126
28
105
-127
-57
53
-156
-287
-145
-224
-426
-131
-98
-367
-282
-265
-371
-320
-146
-226
-266
529
1582
2397
3211
2973
1455
299
106
35
-50
87
31
-205
-134
-53
-332
-303
-86
-311
-319
110
-7
-307
-145
-48
-196
-199
-38
-203
-292
17
18
-274
-234
67
-14
-135
131
19
-154
140
168
-21
168
291
70
150
378
214
118
431
496
280
528
824
459
293
651
541
323
503
495
222
220
288
-41
-71
217
-77
-370
25
89
-109
-37
-207
-325
-264
-76
-98
-258
-91
-229
-352
-75
-85
-341
-225
38
-206
-329
-67
-97
-213
-89
-71
-249
-238
-90
-154
-294
-97
-36
-310
-93
61
-306
-159
193
-182
-470
-87
11
-294
-233
-44
-179
-219
-6
-125
-365
-150
-81
-315
-196
-51
-275
-156
47
-266
-400
-111
-20
-224
-154
-58
-301
-335
20
-54
-464
-222
-49
-209
10
-18
-280
-254
-110
-156
-304
-48
-50
-391
-87
135
-143
-128
69
-79
-147
171
224
95
282
288
34
27
68
82
41
58
-5
-322
-147
6
-417
-358
-125
-406
-406
-65
-121
-405
-222
-27
-273
-359
24
797
1884
3125
3456
2558
1341
343
20
114
133
-38
-112
85
-56
-351
-136
-11
-330
-379
-137
-89
-218
-211
-183
-267
-109
-105
-363
-75
126
-212
-249
-41
-30
-179
-218
-59
-109
-74
196
173
35
88
122
35
234
310
99
205
358
325
288
483
590
384
485
596
395
437
687
497
206
267
227
107
66
77
-145
-211
53
-190
-330
-94
-208
-248
-19
5
-247
-272
-99
-244
-341
-99
-149
-450
-275
-19
-179
-287
-119
-199
-376
-158
-124
-368
-113
24
-354
-233
-14
-206
-224
-65
-117
-358
-201
16
-393
-400
103
-106
-425
-243
-124
-182
-142
-109
-252
-264
-56
-145
-295
-74
-168
-325
-99
-231
-494
-183
121
-115
-283
-118
-210
-369
-183
0
-164
-247
-109
-238
-262
-48
-94
-339
-282
-17
-198
-280
22
-100
-136
188
87
-79
91
181
78
99
247
34
-102
205
235
-177
-117
67
-204
-173
-64
-300
-470
-199
-122
-355
-180
-119
-338
-316
-169
-107
88
996
2110
2831
3202
2460
767
-8
199
76
-9
101
-130
-236
-102
-143
-188
-100
2
-214
-305
-51
-92
-232
-105
-51
-289
-290
17
-15
-166
-5
-126
-421
-6
280
-133
-201
91
38
-40
101
100
-40
117
327
136
43
345
333
201
427
434
349
506
574
300
229
563
492
255
388
375
40
114
254
-93
-115
116
-56
-327
-203
-145
-212
-85
-66
-284
-289
-179
-350
-264
8
-123
-371
-230
-74
-304
-352
-81
-224
-379
-10
-38
-422
-234
67
-151
-284
-80
-213
-306
49
31
-210
-68
-131
-412
-128
144
-148
-257
-150
-244
-232
-42
-44
-244
-179
-62
-258
-356
-254
-173
-145
-60
-66
-250
-166
1
-219
-314
-96
-200
-350
-92
-67
-356
-212
-7
-156
-211
-83
-121
-314
-326
-96
15
-82
38
53
-118
138
205
-115
148
347
46
-31
31
-38
-60
26
-53
-205
-188
-203
-310
-266
-259
-381
-394
-185
-138
-329
-247
-93
-251
-265
176
907
1972
2973
2983
1869
641
27
-60
45
106
-139
-340
37
19
-399
-171
-37
-283
-287
-195
-189
-130
-42
-128
-253
-233
-102
-190
-182
-48
-222
-181
-21
-38
-82
-64
-41
-238
-175
164
49
-3
250
130
3
247
327
170
330
473
231
245
492
492
364
507
563
158
85
507
531
185
292
374
-15
-29
126
-209
-370
-17
-81
-299
-158
-302
-401
-186
-9
-211
-415
-137
-286
-409
-91
-238
-402
-222
-118
-289
-325
-146
-243
-452
-235
-15
-278
-253
-50
-256
-280
-90
-258
-356
-172
-89
-139
-120
-143
-279
-212
-96
-261
-417
-199
-7
-207
-233
-53
-253
-416
-241
-252
-244
-50
-214
-361
-97
-54
-305
-354
-129
-167
-407
-184
-187
-334
-104
-168
-417
-262
4
-232
-395
-62
-14
-318
-232
-88
-300
-255
-131
-208
-208
-151
-181
-294
-152
-86
-247
-206
3
-51
-138
81
24
-89
197
261
-70
8
309
67
-135
100
135
-189
-181
-53
-321
-346
-114
-221
-361
-183
-197
-511
-590
-272
-167
-132
65
-43
404
1722
2759
3165
2868
1689
404
121
351
103
-152
59
21
-532
-385
67
-170
-241
1
-112
-314
-181
-184
-294
-98
-84
-257
-197
-2
-184
-405
-103
-136
-351
-90
45
-146
-80
110
-70
-168
49
85
-42
147
337
149
143
359
247
167
434
460
327
445
653
467
390
615
402
262
465
357
123
210
185
-63
-73
30
-187
-237
66
-294
-654
-129
120
-285
-320
-8
-226
-449
-128
-107
-338
-117
-111
-361
-232
-147
-278
-338
-225
-159
-379
-319
-81
-282
-294
-43
-216
-335
-63
-87
-315
-143
-48
-310
-215
35
-198
-416
-109
-71
-387
-213
-72
-266
-199
-117
-346
-322
-62
-135
-304
-159
-79
-304
-316
-56
-212
-355
-117
-325
-456
-108
-81
-274
-202
-55
-207
-444
-193
-28
-318
-170
-18
-304
-233
-51
-336
-417
-41
-192
-473
-108
46
-137
-162
-33
18
-15
178
155
-56
108
233
69
72
185
36
-50
154
13
-388
-212
82
-163
-282
-62
-207
-499
-289
-141
-358
-173
22
-336
-327
13
137
916
2312
3156
3144
2572
1321
64
92
500
137
-111
33
-116
-419
-239
41
-111
-265
-247
-263
-266
-68
10
-172
-144
-67
-206
-205
-55
-137
-189
49
31
-232
-207
-20
-35
-165
-23
63
6
207
170
-11
122
260
140
160
406
346
293
528
530
355
509
543
333
389
491
517
448
322
270
200
188
145
-127
-116
64
-135
-230
-49
-189
-372
-79
-32
-204
-171
-126
-122
-232
-203
-125
-288
-182
-53
-269
-256
-166
-256
-246
-28
-46
-289
-286
-85
-55
-143
-32
-74
-231
-59
4
-258
-125
-17
-379
-214
108
-97
-301
-82
-46
-352
-176
4
-113
-224
-73
-13
-219
-61
-11
-264
-165
16
-255
-305
-52
-97
-205
-47
-140
-415
-211
-43
-172
-119
41
-92
-290
-88
-15
-319
-156
126
-210
-310
24
-86
-371
-155
23
-201
-89
161
-23
3
313
102
-139
249
302
-38
176
301
18
33
198
28
-90
26
-121
-326
-210
-60
-250
-410
-182
-120
-217
-68
-131
-353
-140
113
179
1037
2554
3133
2645
1839
588
-313
-78
307
28
-149
81
-46
-200
-40
-132
-386
-180
31
-185
-259
-107
-120
-215
-125
-43
-231
-199
34
-173
-293
56
91
-101
-34
26
-116
-126
133
97
10
174
164
-7
117
267
129
233
389
238
255
512
451
326
480
387
260
440
515
300
137
386
293
-34
132
83
-304
-229
-15
-234
-208
12
-181
-391
-179
-52
-313
-238
-55
-284
-324
-61
-208
-479
-112
24
-349
-207
-28
-338
-386
-216
-301
-289
-36
52
-189
-165
39
-184
-275
-44
-155
-334
-89
-69
-329
-225
-110
-188
-222
-205
-250
-368
-241
-7
-130
-296
-101
-144
-299
-71
-135
-325
-162
-89
-371
-386
-193
-353
-233
0
-214
-350
-131
-70
-305
-189
-10
-320
-380
-77
-106
-380
-176
18
-357
-293
2
-313
-381
-21
-117
-230
15
29
-45
92
25
-130
119
340
84
-96
142
152
-29
119
169
-150
-257
-135
-321
-297
-76
-242
-338
-240
-154
-252
-319
-133
-346
-479
-113
147
865
1984
2963
3137
2164
994
80
-105
242
154
-207
-91
62
-192
-402
-189
-150
-409
-119
-40
-373
-215
10
-180
-246
21
-77
-279
-86
-139
-367
-110
103
-121
-208
3
-96
-292
12
100
-10
145
195
66
59
281
218
155
379
356
211
348
599
422
274
579
483
263
511
462
248
342
380
177
-4
44
-9
-158
-10
16
-248
-204
-39
-252
-335
-171
-204
-247
-169
-127
-276
-292
-85
-282
-336
-57
-192
-333
-133
-130
-328
-97
-219
-477
-43
76
-132
-207
-36
-15
-386
-247
13
-143
-86
-50
-197
-235
-150
-150
-265
-166
17
-228
-401
-33
2
-214
-44
-120
-369
-235
-52
-106
-305
-176
-68
-201
-101
-193
-394
-129
74
-211
-166
29
-188
-310
-4
-13
-422
-254
-36
-222
-159
14
-250
-375
-8
61
-241
-210
-6
-239
-291
60
-4
-245
-91
-84
-362
-126
75
-136
-41
152
90
49
111
191
162
166
205
-33
-5
282
166
-80
54
4
-321
-284
-141
-206
-232
-110
-215
-273
-70
-82
-336
-376
-174
-159
-99
582
1410
2328
3422
3257
1688
565
284
54
175
344
-40
-225
45
7
-257
-188
-74
-324
-361
-112
-217
-275
-87
-70
-201
-124
-121
-260
-134
13
-60
-159
-6
-8
-276
-125
95
-89
-30
226
118
-62
86
339
5
-143
346
405
312
462
465
390
551
604
390
481
645
328
273
578
452
202
291
286
-52
70
284
-86
-207
50
-49
-436
-289
55
-135
-204
3
-166
-287
-67
-200
-381
-194
-151
-308
-179
48
-265
-455
-39
-217
-483
35
139
-203
-155
53
-138
-353
-114
-128
-241
-47
-112
-272
-102
-52
-251
-223
-122
-97
-126
-106
-72
-235
-152
9
-210
-302
-134
-195
-286
-95
-104
-323
-222
-81
-281
-255
46
-18
-271
-143
-18
-271
-256
-89
-238
-271
-50
-58
-229
-128
-137
-379
-166
57
-230
-354
-73
-44
-256
-135
-1
-187
-87
143
-120
-149
142
151
92
216
333
103
55
209
-34
-10
330
119
-191
-50
-165
-409
-102
-10
-293
-244
-63
-151
-348
-225
9
-153
-237
-17
-30
623
2056
2896
3080
2681
1417
114
-129
226
144
-142
123
163
-208
-79
32
-221
-197
-6
-146
-219
-40
-106
-228
24
-32
-315
-156
-8
-205
-200
181
118
-54
31
30
-133
-85
223
57
-20
276
157
-51
235
285
52
301
344
161
338
493
489
379
469
598
325
270
586
463
164
307
323
56
28
60
-19
30
100
-97
-298
-15
-55
-472
-185
20
-235
-204
-47
-139
-275
-81
-140
-408
-100
-141
-408
-52
51
-258
-258
26
-30
-305
-106
-37
-297
-157
-38
-141
-128
79
-64
-322
-110
19
-231
-286
-21
-179
-245
18
-6
-212
-203
-41
-186
-374
-90
1
-268
-93
-191
-322
46
-34
-293
-188
-63
-190
-302
-114
-48
-331
-216
69
-176
-232
22
-176
-335
-1
24
-274
-203
-165
-272
-148
-68
-156
-191
1
62
-90
74
85
-100
187
372
204
8
111
188
-84
84
280
-121
-198
69
-170
-338
-109
-150
-404
-398
-202
-219
-185
-5
-180
-314
-88
1
370
1419
2585
3006
2485
1425
154
-213
144
114
-109
-61
0
-173
-164
-29
-150
-241
-66
-40
-273
-198
-45
-269
-153
44
-146
-194
-34
-76
-230
-58
31
-141
-182
52
67
-97
124
117
-113
172
313
-24
32
248
155
184
380
366
225
374
442
231
379
528
271
282
578
531
242
343
361
27
39
52
-105
-71
80
-27
-251
-65
-67
-403
-382
-102
-120
-264
-124
-209
-373
-61
-28
-401
-263
47
-159
-308
-98
-59
-289
-262
-88
-156
-201
-145
-150
-237
-86
-21
-297
-127
97
-280
-321
79
-53
-316
-77
-66
-314
-197
-82
-250
-266
-120
-250
-398
-130
-98
-553
-301
53
-365
-311
52
-199
-375
-88
-128
-431
-237
14
-252
-318
-160
-353
-467
-132
-30
-252
-210
-237
-351
-219
-119
-304
-384
-101
-85
-336
-101
-14
-423
-286
-33
-220
-177
63
141
-38
3
291
134
19
169
-22
-165
99
140
-93
47
-14
-300
-307
-200
-157
-514
-277
18
-401
-297
-48
-341
-415
-92
-151
-236
468
1377
2267
3231
3017
1542
239
42
304
-39
-140
141
-33
-122
-116
-305
-289
-120
-204
-357
-253
-197
-284
-119
-140
-436
-177
53
-123
-162
-16
-47
-275
-145
57
-160
-167
113
-58
-252
69
182
-112
120
219
-131
83
471
361
221
452
387
179
388
527
430
484
573
392
288
462
312
53
172
172
97
37
67
14
-307
-176
-38
-254
-177
-116
-336
-206
109
-174
-527
-201
-19
-278
-251
-113
-291
-328
-77
-159
-350
-46
-8
-478
-306
55
-124
-208
-99
-165
-311
-161
2
-250
-260
-25
-193
-187
31
-140
-365
-151
53
-227
-235
-38
-254
-264
5
-223
-411
-175
-120
-176
-187
-102
-169
-197
-21
-271
-366
-10
-109
-335
-74
-8
-315
-241
-12
-201
-390
-179
-16
-297
-233
34
-220
-210
-2
-231
-314
-39
-64
-231
-184
-81
-147
-334
-80
-36
-382
-45
118
-155
84
141
-121
16
307
200
64
238
230
-72
30
337
64
-79
148
-110
-355
-46
-109
-348
-107
-60
-409
-342
-49
-265
-322
-110
-154
-201
153
1058
1964
2970
3622
2707
1057
332
331
150
103
69
-192
-121
52
-189
-266
-2
-20
-302
-273
-89
-198
-196
53
-66
-278
-58
16
-247
-269
-28
10
-51
53
-28
-177
107
134
-162
41
238
-6
15
308
177
-57
319
491
159
311
537
343
394
639
532
279
536
733
335
416
643
312
198
374
131
-191
72
188
-162
-24
154
-144
-182
-81
-222
-297
-52
-27
-301
-144
-27
-264
-213
-59
-154
-254
-147
-176
-356
-143
80
-130
-211
-32
-179
-330
-75
-15
-293
-152
117
-120
-156
93
-142
-410
-95
28
-253
-286
-23
-69
-241
-129
-250
-233
0
-22
-154
-197
-55
-216
-281
-1
-147
-283
-120
-201
-311
-157
-54
-178
-253
-20
25
-353
-265
24
-260
-274
16
-240
-313
20
-89
-342
-143
-127
-355
-102
76
-96
-97
97
20
-155
52
97
-63
164
338
127
66
139
85
31
116
21
-205
-95
-1
-178
-315
-153
-157
-334
-164
-154
-348
-261
-165
-297
-255
-55
191
1075
2419
3272
2978
1727
528
-43
-2
357
130
-251
67
120
-190
-132
-51
-195
-267
-159
-116
-270
-198
3
-121
-177
-9
-104
-153
78
-56
-290
-47
80
-107
17
246
68
-95
134
99
-106
229
323
-16
95
426
312
234
469
365
195
264
400
526
669
623
330
398
567
369
169
204
266
80
51
148
-164
-125
170
-38
-245
-76
-41
-307
-263
11
-222
-457
-109
62
-162
-163
-43
-261
-215
47
-210
-252
-14
-128
-251
-86
67
-170
-162
75
-163
-289
1
-27
-272
-257
-110
-43
-27
21
-118
-217
-27
-66
-337
-158
98
-153
-248
2
-253
-412
-43
-182
-268
11
-77
-234
-144
-46
-275
-351
-66
-89
-252
-144
-108
-319
-165
46
-240
-319
-121
-188
-287
-67
-118
-421
-251
19
-76
-228
-55
23
-126
-62
32
24
76
173
102
69
225
-1
-232
50
140
5
57
71
-307
-502
-115
-103
-384
-221
-110
-337
-289
-159
-302
-223
-134
-327
-280
591
1744
2458
2961
2712
1202
-82
-78
94
-81
36
33
-298
-233
-152
-333
-218
22
-137
-327
-156
-92
-335
-293
-52
-189
-232
-70
-148
-205
-59
-56
-277
-160
-96
-337
-146
77
-34
-23
136
147
21
120
241
65
5
251
260
130
395
462
294
367
176
142
534
569
366
347
433
391
101
5
178
-48
-196
-15
-135
-221
-115
-99
-298
-419
-227
-197
-269
-232
-231
-327
-194
-108
-419
-354
-147
-375
-384
-117
-171
-400
-277
-17
-344
-398
-12
-236
-396
-26
-20
-376
-192
-63
-277
-168
-136
-272
-199
-71
-168
-390
-228
-177
-286
-127
-108
-218
-370
-236
-139
-331
-183
-145
-311
-203
-89
-252
-322
-148
-287
-343
-44
-72
-335
-274
-39
-256
-415
-84
-125
-392
-156
14
-187
-233
-179
-192
-244
-173
-187
-272
-128
-96
-322
-237
-25
-129
-110
-71
-91
-67
52
155
27
94
227
72
38
182
51
-169
-36
109
-51
-81
56
-220
-402
-173
-266
-490
-323
-61
-263
-396
-151
-244
-408
-213
-127
325
1507
2650
3171
2904
1898
527
-19
189
60
-69
62
-12
-245
-235
-156
-215
-141
-126
-288
-273
-45
-76
-337
-246
20
-142
-261
-44
-133
-335
-168
-1
-107
-132
-61
-93
-101
-8
23
-110
-10
195
98
186
305
23
29
374
392
236
480
611
320
407
644
426
362
610
436
296
533
466
179
-23
15
72
-10
107
-14
-237
-86
-48
-243
-256
-118
-279
-322
-55
-188
-295
-11
-88
-404
-315
-114
-278
-289
-43
-118
-264
-92
-52
-362
-368
-147
-213
-140
109
-26
-275
-131
12
-232
-266
12
-221
-373
93
25
-309
-80
-79
-392
-266
-27
-177
-281
-57
-8
-193
-134
-77
-366
-324
-37
-180
-205
13
-134
-343
-177
29
-318
-506
-87
-106
-207
11
-91
-293
-145
-59
-324
-296
-37
-205
-259
-45
-68
-230
-139
-141
-402
-208
20
-153
-193
76
60
-92
156
86
-202
122
435
155
25
198
157
-3
64
135
-184
-192
58
-262
-441
-28
-4
-337
-189
-78
-336
-278
-67
-312
-354
-39
-28
321
1539
2830
3368
3111
2099
634
47
357
186
-139
-51
62
-100
-209
-21
-163
-358
-226
-240
-253
-39
-10
-256
-210
43
-107
-333
-137
-92
-251
-74
-10
-217
-78
55
-117
-108
5
20
-27
44
169
62
78
384
305
71
358
440
190
377
526
366
445
659
487
339
637
596
317
378
279
113
168
179
39
-77
40
-53
-244
-100
-66
-327
-354
45
-14
-299
-106
-75
-309
-217
-146
-343
-214
-133
-335
-302
-44
-68
-291
-233
-110
-249
-238
-113
-269
-264
-116
-162
-281
-133
38
-193
-288
-37
-124
-350
-188
-68
-270
-247
0
-157
-233
-100
-238
-308
-129
-98
-262
-222
-102
-261
-214
20
-234
-436
-127
-18
-241
-148
-102
-398
-202
97
-201
-425
-110
-21
-253
-28
22
-298
-157
-56
-416
-365
73
61
-222
-94
56
-122
-70
196
132
-16
227
345
37
-38
170
53
23
259
90
-152
-40
-52
-250
-200
-151
-342
-313
-149
-265
-345
-48
-88
-394
-94
7
-28
898
2047
2734
2941
2360
963
-127
-35
220
5
-31
-1
-214
-197
-63
-142
-251
-64
-21
-356
-232
26
-395
-362
162
9
-180
7
38
-185
-194
-43
-151
-190
91
102
-95
113
183
-123
-1
229
48
-20
243
272
-14
218
523
339
318
499
389
241
486
528
336
452
467
284
289
330
186
30
27
58
-169
-156
100
-114
-354
-163
-218
-259
65
-55
-291
-123
-76
-289
-200
-50
-275
-368
-195
-168
-260
-158
-37
-224
-229
16
-74
-314
-154
-88
-324
-24
92
-303
-97
165
-135
-268
-28
-41
-290
-151
-55
-309
-255
4
-112
-376
-210
-4
-212
-162
49
-152
-266
-103
-108
-304
-197
-128
-339
-223
2
-163
-252
-22
-64
-340
-231
-91
-266
-197
-65
-177
-163
-68
-182
-239
-93
-174
-311
-221
-54
-120
-177
159
103
-151
99
161
-51
103
199
-6
-110
152
254
-26
-33
-91
-259
-74
-24
-419
-363
-11
-267
-491
-158
-61
-297
-291
-207
-259
-162
349
1115
2053
3012
2985
1833
666
-47
-192
107
270
25
-214
-158
-183
-218
-51
-120
-322
-188
-8
-138
-298
-225
-61
-235
-250
-15
-281
-360
167
50
-487
-43
216
-149
-104
70
-5
-163
14
103
-84
129
231
-102
192
469
17
109
577
428
247
547
571
286
516
624
272
282
601
428
138
301
256
-17
-44
165
-10
-231
15
-140
-384
-79
-19
-315
-253
-24
-165
-342
-128
-158
-371
-173
-103
-264
-192
-86
-204
-251
-122
-179
-333
-120
-83
-285
-69
25
-243
-315
-110
-72
-173
-12
-59
-293
-13
44
-351
-315
15
-23
-279
-179
-54
-241
-167
65
-247
-366
37
-165
-415
-167
-50
-197
-264
-120
-230
-258
4
-104
-380
-125
-21
-300
-212
-60
-289
-315
44
-65
-317
-128
-65
-228
-144
-69
-239
-277
-107
-144
-347
-135
35
-251
-189
105
-102
-170
93
-22
-141
5
101
43
69
327
199
20
98
-28
-25
159
78
-135
-42
-9
-251
-245
-123
-226
-363
-227
-220
-412
-292
-161
-254
-291
-123
29
536
1725
2798
3030
2781
1962
454
-60
397
190
-189
41
74
-281
-198
-10
-211
-288
-54
-156
-441
-102
23
-409
-301
68
-115
-146
-15
-211
-210
-82
-34
-90
-150
8
-44
-128
75
98
-123
-49
155
-40
3
261
186
268
548
400
148
472
621
319
458
613
358
343
582
549
376
425
365
124
189
172
-123
-24
-10
-318
-140
97
9
-227
-384
-99
-92
-285
-86
-149
-355
-170
-190
-422
-239
-93
-265
-258
-84
-180
-387
-208
-74
-400
-263
99
-195
-305
-93
-204
-302
-66
-74
-323
-192
-78
-278
-335
-42
-30
-303
-129
-100
-405
-196
-19
-298
-189
-2
-181
-244
-140
-186
-317
-199
-60
-246
-502
-241
-21
-206
-89
-69
-299
-240
-125
-318
-329
-41
-61
-272
-192
-58
-284
-278
-97
-235
-204
39
-78
-296
-100
1
-256
-369
-109
74
-31
2
53
-13
154
203
-37
163
393
85
14
285
164
-161
55
212
-96
-47
73
-193
-308
-69
-115
-410
-313
-228
-342
-150
12
-213
-281
-56
-46
400
1808
2976
3250
2865
1696
309
-66
151
35
-5
169
49
-314
-249
0
-169
-182
-25
-162
-369
-182
39
-231
-170
85
-144
-247
-149
-120
-141
-66
2
-132
-65
69
-121
-167
106
121
-89
-4
177
144
185
365
242
115
431
407
139
352
517
368
481
658
484
351
556
558
223
321
412
184
102
45
-40
-51
126
79
-270
-179
2
-227
-192
-99
-293
-235
18
-80
-240
-72
-90
-334
-281
-62
-224
-313
-43
-75
-355
-313
-132
-212
-152
11
-95
-202
-124
-112
-147
-43
-11
-240
-236
64
-96
-304
-98
-136
-270
-175
-128
-220
-152
7
-158
-342
-242
-140
-180
-24
-106
-335
-77
-12
-233
-255
-45
-73
-390
-186
-14
-258
-201
-80
-293
-307
10
-45
-227
-112
-58
-268
-224
51
-98
-201
-9
-155
-351
-122
-75
-170
-9
139
50
-77
197
231
27
198
236
76
134
242
51
-14
112
-49
-259
-83
-48
-405
-333
-112
-207
-263
-168
-168
-348
-190
-38
-280
-171
519
1317
2151
2979
2854
1515
295
30
-60
-23
249
8
-235
-83
-185
-302
-142
-71
-235
-243
-8
-145
-292
-137
-116
-338
-236
103
-109
-233
-25
-151
-170
-17
-177
-152
93
101
-47
-100
69
13
-47
222
232
69
218
341
61
27
400
331
216
545
430
205
478
537
290
314
447
184
-25
95
47
-43
82
35
-190
-136
6
-247
-427
-117
-85
-406
-276
-36
-299
-342
-22
-170
-452
-156
-17
-387
-281
-146
-381
-292
-63
-205
-324
-87
-164
-389
-76
-11
-328
-139
-28
-251
-267
-80
-47
-284
-260
-42
-192
-176
-8
-345
-443
-128
-97
-319
-143
51
-343
-354
28
-125
-297
-115
-201
-394
-222
-112
-369
-233
14
-251
-309
-190
-210
-170
-193
-142
-213
-321
-77
-111
-361
-197
-54
-332
-290
-64
-262
-324
-110
-163
-274
-71
-141
-360
-150
-40
-193
-89
85
-109
-112
125
-51
-46
302
258
-42
37
262
108
-14
119
39
-223
-197
-45
-223
-414
-228
-269
-438
-62
14
-286
-141
-154
-470
-329
40
220
911
2263
3153
3012
2132
854
-63
39
204
-85
-18
162
45
-203
-206
-98
-418
-378
-41
-192
-200
-32
-174
-299
-150
-45
-210
-301
-61
-7
-202
-34
31
-242
-66
20
-246
-141
47
26
-91
152
282
-28
123
324
63
109
447
381
274
457
482
301
392
514
489
546
449
249
146
330
428
160
72
41
-181
-177
71
-18
-214
-31
-56
-444
-258
96
-293
-414
-32
-130
-321
-115
-119
-368
-349
-249
-298
-139
32
-263
-287
26
-92
-273
-147
-27
-251
-420
-43
-12
-308
-80
17
-219
-150
53
-233
-467
-165
-173
-361
-69
-14
-208
-79
-17
-208
-264
-14
-143
-345
-88
-175
-300
-147
-105
-224
-238
-46
-183
-298
-48
-185
-347
-78
31
-256
-341
-10
-74
-244
-142
-41
-213
-280
-31
-245
-278
6
-99
-235
-94
-21
-315
-328
-57
-131
-113
210
104
-168
100
255
-66
41
332
105
14
217
219
42
128
181
-98
-149
-118
-154
-111
-101
-173
-261
-211
-180
-353
-293
-35
-132
-251
-103
-56
123
1211
2411
3012
3189
2494
1020
150
225
206
100
90
44
-141
-159
10
-159
-296
-39
34
-230
-191
-25
-228
-267
-24
-119
-207
-9
-52
-288
-151
77
-90
-86
100
-86
-148
185
177
-62
62
170
47
144
348
182
9
205
359
334
370
559
470
375
624
560
310
381
538
370
440
603
220
65
238
79
-116
52
23
-236
-57
20
-247
-187
-33
-138
-206
-60
-119
-387
-186
-10
-239
-239
-185
-269
-128
62
-128
-269
-92
-97
-250
-89
39
-230
-248
-25
-137
-324
-83
87
-206
-175
22
-177
-234
-27
-132
-263
-87
-53
-217
-168
-8
-134
-219
-87
-58
-222
-254
-150
-255
-137
119
-146
-259
-7
-158
-311
-119
-45
-224
-184
9
-256
-391
31
21
-275
-107
-3
-298
-255
24
-163
-260
19
13
-261
-223
-84
-265
-182
175
-55
-264
103
-19
-241
114
197
40
155
380
218
30
273
304
-28
36
219
-117
-188
-50
-250
-242
-56
-95
-249
-198
-154
-306
-237
-3
-155
-409
-145
92
601
1861
3007
3188
2543
1350
-35
-242
245
211
-127
-78
106
-177
-204
39
-130
-231
27
-15
-326
-231
-18
-300
-228
192
-70
-274
56
8
-228
-45
58
-98
-45
-33
-223
-28
196
21
-6
186
256
157
61
221
183
96
443
470
207
365
447
271
470
544
339
363
446
395
229
281
266
-58
48
254
-32
-117
56
-204
-338
-48
-67
-225
-154
-57
-176
-328
-204
-157
-266
-143
-83
-333
-271
67
-175
-380
-47
-73
-282
-109
-53
-232
-173
-119
-307
-189
67
-139
-465
-148
239
-114
-252
22
-131
-265
-68
-106
-283
-122
4
-286
-362
11
-190
-448
-6
-96
-420
-118
44
-174
-265
-87
-133
-301
-104
-106
-382
-255
-58
-235
-210
-57
-271
-423
-137
-52
-354
-236
20
-176
-254
-125
-208
-358
-201
-70
-193
-184
-157
-204
-148
-59
-156
-163
33
62
-16
104
200
12
50
232
-11
-71
236
170
-96
-50
44
-254
-335
-131
-313
-383
-281
-357
-330
-241
-62
-218
-386
0
-18
-8
992
2106
2704
2861
2214
787
-66
69
68
6
-81
-197
-256
-362
-136
-91
-146
-6
-201
-300
-141
-155
-290
-257
-65
-237
-296
-17
-79
-273
-221
-164
-321
-79
168
-206
-203
114
22
-4
223
112
-157
87
315
84
119
313
250
203
325
513
455
368
454
342
327
612
531
259
387
375
54
129
327
9
-290
-40
16
-244
-134
-118
-307
-115
6
-289
-335
-76
-199
-379
-149
-89
-250
-192
-85
-263
-318
-122
-248
-294
-24
6
-358
-341
29
-135
-236
-47
-131
-249
-109
-15
-205
-163
-8
-257
-257
28
-94
-271
-125
-70
-285
-237
-90
-234
-314
-62
-19
-271
-103
-79
-427
-297
21
-138
-255
-39
-144
-359
-165
-132
-371
-265
-170
-292
-221
20
-55
-339
-262
-153
-285
-237
-49
-174
-222
14
-192
-422
-137
-103
-310
-254
-66
-222
-288
27
-194
-385
50
106
-189
-23
253
94
52
315
227
-69
31
101
-12
135
196
-86
-209
-25
-203
-383
-167
-109
-418
-489
-138
-173
-276
-115
-204
-375
-266
-80
351
1431
2668
3141
2787
1981
724
10
255
296
-70
-152
-80
-175
-176
-24
-128
-416
-171
56
-294
-233
58
-240
-355
27
-31
-261
-103
-99
-311
-150
102
-132
-181
104
-103
-372
30
314
27
7
289
56
-200
250
370
77
358
484
117
323
704
471
416
622
533
430
493
548
377
251
356
258
156
264
167
-90
12
44
-339
-346
105
-61
-304
38
-72
-326
-125
-43
-274
-236
-51
-248
-259
-60
-290
-384
-45
-12
-311
-263
6
-159
-335
-22
-27
-301
-78
-21
-285
-140
29
-193
-275
-21
-70
-378
-227
-37
-184
-137
10
-168
-291
-43
-38
-307
-256
-94
-152
-116
-7
-180
-299
-51
-140
-476
-135
89
-164
-177
-141
-248
-149
63
-106
-248
-48
-7
-218
-188
5
-142
-321
-53
-89
-439
2
133
-291
-212
-59
-147
-177
30
-68
-414
-101
228
-85
-83
152
-23
-47
315
234
-93
163
392
70
74
284
65
-16
209
99
-288
-135
-10
-380
-260
71
-206
-333
-165
-314
-280
-5
11
-220
-189
166
755
1868
2967
3331
2658
1403
471
113
193
305
96
-39
75
23
-373
-413
50
-31
-200
-30
-112
-226
-52
-51
-279
-106
-35
-262
-188
-15
-151
-231
123
76
-191
155
89
-355
69
342
-41
-29
283
273
62
280
403
71
268
601
405
266
427
529
386
549
758
462
410
633
415
158
315
313
-123
-143
180
-48
-63
249
-27
-224
39
-14
-243
-119
-27
-252
-356
-168
-183
-258
-94
-192
-329
-34
45
-262
-244
5
-132
-287
-112
-116
-312
-169
-92
-256
-68
49
-166
-171
34
-65
-259
-154
1
-223
-305
-47
-131
-248
-67
53
-199
-250
19
-158
-291
-149
-239
-179
82
-32
-405
-350
-61
-115
-176
-100
-217
-209
-5
-106
-355
-252
-67
-172
-204
0
-92
-250
-116
-168
-228
-58
-65
-295
-228
70
-117
-278
-93
-141
-276
-208
-91
-134
15
281
129
-36
153
145
30
253
247
-16
56
276
179
-5
42
-32
-242
-93
48
-271
-308
-48
-230
-476
-237
-50
-270
-169
-18
-366
-241
494
1162
2059
3139
3215
1808
507
103
-175
1
315
0
-190
23
-75
-285
-119
-31
-329
-278
77
-129
-212
-98
-258
-131
101
71
-154
-175
49
-123
-214
50
65
-123
-28
137
-74
-72
129
69
73
247
253
99
155
266
159
215
430
362
261
437
497
296
375
522
268
201
399
330
152
174
166
-58
-41
80
-235
-234
38
-116
-263
-117
-158
-413
-141
18
-280
-249
-158
-350
-381
-198
-196
-243
-66
-1
-240
-340
-43
-41
-328
-124
-56
-245
-211
-149
-121
-189
-139
-138
-233
-128
-190
-241
-97
-162
-299
-251
-34
-90
-324
-137
-120
-332
-186
-245
-381
-216
-227
-252
-273
-109
44
-273
-253
-50
-262
-262
-92
-217
-333
-173
-165
-520
-299
102
-235
-289
54
-99
-497
-402
-17
-135
-183
-2
-257
-311
-60
-261
-410
-97
-32
-275
-298
-75
-72
-30
179
6
-138
65
69
-89
138
336
16
-56
206
5
-138
198
105
-254
-133
-97
-319
-277
-238
-344
-289
-72
-149
-463
-254
-3
-169
-143
323
1099
2029
3106
3233
1942
665
154
22
2
85
54
-95
-195
-108
-163
-226
-39
-135
-258
-8
-113
-434
-167
22
-221
-191
-72
-270
-153
104
-215
-415
-3
83
-198
-63
44
-103
-15
125
23
14
222
182
49
230
365
261
218
396
326
159
485
626
320
362
558
437
269
357
481
284
199
217
4
55
132
-100
-133
-16
-120
-330
-127
-30
-407
-361
-86
-153
-192
-77
-198
-365
-152
-145
-355
-184
8
-202
-294
-105
-163
-254
-196
-209
-368
-303
62
-17
-222
-5
-51
-276
-89
15
-291
-238
-51
-445
-301
92
-214
-274
-22
-26
-280
-259
-14
-204
-363
-355
-416
-106
41
-137
-198
-226
-121
-205
-299
-83
-152
-369
-210
-89
-307
-314
-140
-295
-277
44
-98
-331
-147
-159
-378
-243
-71
-232
-301
-206
-148
-161
-135
-57
-233
-234
-6
-138
-245
45
47
-137
62
169
-28
61
273
157
58
157
141
0
3
-9
-217
-174
-105
-403
-379
-167
-241
-391
-233
-88
-320
-291
-87
-295
-333
62
631
1590
2842
3411
2690
1480
496
73
149
225
101
-118
-69
-14
-314
-352
-126
-225
-391
-126
-38
-354
-173
17
-216
-132
9
-160
-293
-125
-5
-228
-161
1
-279
-124
222
-90
-186
165
108
-52
130
226
59
77
323
260
87
376
507
204
394
564
425
468
557
444
274
499
530
261
232
259
63
1
116
-87
-234
4
-16
-231
-51
-43
-320
-268
-87
-193
-312
-109
-181
-400
-221
-71
-182
-265
-119
-220
-315
-104
-228
-256
-47
-47
-245
-303
-1
-74
-369
-164
-100
-230
-65
-24
-203
-157
-27
-191
-357
-209
-96
-196
-50
29
-212
-252
-71
-103
-312
-219
-88
-281
-289
-73
-128
-252
-198
-169
-211
-141
-187
-299
-112
-11
-251
-280
-85
-137
-284
-112
-49
-232
-158
-94
-266
-270
-67
-225
-336
-75
-46
-243
-181
4
-177
-201
125
-14
-267
22
217
44
22
142
89
84
106
58
125
226
185
10
-6
26
-288
-428
-54
-113
-346
-127
-123
-451
-279
-17
-339
-294
-19
-150
-151
413
1269
2301
3303
3197
1897
508
21
156
103
150
49
-268
-77
-6
-267
-199
33
-94
-351
-93
-49
-338
-141
0
-217
-304
-104
-5
-44
-25
-129
-194
-34
96
-70
-152
102
71
-69
169
90
-110
176
293
92
96
306
354
89
298
639
328
301
515
358
385
604
471
301
514
328
-127
165
380
92
33
122
-59
-190
-56
13
-157
-151
-8
-247
-335
-68
-96
-295
-100
-62
-317
-116
-58
-289
-151
57
-253
-345
68
38
-163
-46
-39
-233
-103
87
-88
-197
-22
-5
-200
-228
-101
-140
-133
71
-135
-373
-18
25
-296
-190
7
-129
-183
35
-94
-316
-91
-62
-281
-146
-92
-352
-311
-77
-238
-435
-96
110
-245
-291
-74
-157
-117
-21
-185
-237
-39
-121
-318
-184
-212
-321
-156
-58
-267
-290
-152
-234
-389
-223
178
-20
-147
191
72
-107
188
245
-19
39
54
-160
-25
81
-109
-118
-6
-176
-361
-197
-197
-418
-320
-164
-317
-400
-149
-130
-428
-318
-105
-124
568
1936
2856
2849
2206
922
-330
-286
80
-19
-96
-99
-235
-297
-49
-122
-351
-198
-72
-280
-379
-89
-128
-315
-177
-257
-345
-205
-178
-255
-228
-117
-147
-241
19
117
-173
-85
24
-161
-136
213
122
-180
203
312
-9
64
281
345
278
434
481
259
447
554
225
263
500
298
253
394
87
-104
62
-28
-320
-179
-37
-259
-174
-6
-272
-469
-284
-186
-380
-287
-131
-362
-308
-77
-243
-401
-270
-255
-422
-353
-56
-111
-283
-108
-217
-416
-111
-33
-198
-115
-19
-238
-280
-13
-293
-336
87
-71
-389
-201
-26
-290
-346
-158
-264
-260
46
-74
-436
-271
-171
-400
-225
-40
-129
-203
-135
-87
-384
-430
-58
-229
-336
-20
-123
-330
-197
-121
-553
-513
67
-45
-222
-19
-131
-281
-143
-163
-302
-259
-165
-210
-242
-61
-78
-239
-40
20
-228
-280
-91
69
51
88
61
40
248
288
-29
-74
118
44
92
190
3
-184
-168
-153
-388
-419
-136
-210
-376
-153
-310
-569
-225
-128
-281
-145
315
964
1969
3139
3243
2282
1166
200
-109
223
251
-81
-221
-51
-76
-363
-190
13
-302
-434
-169
-164
-203
-37
-130
-272
-113
-74
-266
-171
-20
-271
-295
29
-102
-209
137
37
-314
-148
77
14
-14
266
276
50
278
352
155
297
482
285
256
499
366
325
645
690
461
487
619
347
205
361
120
-62
198
179
-191
-149
97
-234
-367
-67
-198
-360
-139
1
-269
-376
-100
-186
-339
-148
-130
-324
-222
-147
-303
-249
-106
-156
-276
-65
-109
-488
-175
46
-285
-204
127
-73
-283
-59
-147
-289
-59
-25
-263
-232
-15
-292
-357
101
-219
-420
97
69
-301
-183
-79
-341
-361
-102
-12
-193
-139
-37
-273
-276
-69
-212
-271
-56
-130
-289
-49
48
-216
-81
39
-231
-267
-68
-1
-91
15
82
-138
-102
48
-156
-288
27
67
-260
-78
127
-46
17
264
202
135
353
321
105
147
206
110
140
229
106
50
169
-87
-376
-34
120
-263
-272
-38
-163
-269
-114
-98
-241
-254
-132
-149
229
1250
2278
3196
3445
2471
872
185
305
142
110
194
-27
-131
-105
-136
-181
-160
-88
-350
-317
85
-18
-158
-20
-78
-195
-76
4
-221
-179
169
13
-237
34
82
-120
93
158
-155
-125
97
-24
-87
181
133
-30
230
382
255
240
472
446
318
403
376
411
523
519
350
296
358
226
140
146
29
-231
-54
182
-287
-271
141
-161
-360
-101
-205
-337
-62
-6
-315
-333
-150
-317
-304
19
-142
-414
-122
-123
-485
-280
35
-194
-348
-98
-18
-222
-214
-53
-125
-172
-54
-128
-244
-27
-71
-219
-25
-65
-289
-138
56
-169
-283
-41
15
-256
-139
117
-165
-302
-49
-106
-235
-75
-63
-226
-163
-109
-270
-188
84
-55
-249
-26
-92
-255
1
-23
-370
-212
72
-184
-280
-48
-54
-225
-155
-13
-155
-226
-138
-116
-195
-138
-7
-85
-22
5
-120
-41
102
12
85
318
229
85
145
258
22
-17
263
91
-94
69
18
-224
-284
-290
-335
-186
2
-148
-258
-163
-131
-179
-198
-16
-172
116
1617
2730
3112
2973
1685
221
-146
-17
32
123
272
69
-175
26
33
-234
-114
-7
-191
-94
-83
-222
-88
97
55
-104
-180
-91
-68
-166
39
90
-117
63
176
-66
60
278
58
68
287
81
23
344
320
187
414
532
194
137
582
624
437
565
558
393
506
519
346
407
408
238
155
242
248
39
32
103
-63
-104
-86
-178
-164
-68
-126
-303
-194
25
-90
-250
-178
-158
-234
-107
-167
-313
-85
22
-247
-286
-38
-229
-344
36
138
-163
-139
42
-159
-278
-210
-108
-38
22
-141
-411
-97
129
-223
-266
3
-131
-327
-43
31
-295
-92
80
-204
-370
-224
-106
-284
-85
-20
-404
-239
60
-180
-368
-122
17
-249
-187
-22
-253
-136
26
-266
-355
-168
-110
-212
-155
-39
-199
-239
-177
-233
-145
59
-112
-335
-60
50
-165
-128
28
-59
-6
196
65
-107
191
346
-42
32
303
40
0
164
-66
-278
-140
-248
-462
-214
-92
-339
-381
-191
-271
-409
-199
-148
-407
-250
141
683
1908
3095
3095
2087
988
135
-166
78
93
-86
-76
-73
-239
-402
-240
-103
-299
-264
-47
-225
-348
-97
-103
-316
-145
-84
-347
-225
-73
-398
-297
198
-25
-310
19
59
-167
-82
179
-10
-207
199
77
-98
296
316
88
240
407
209
309
512
412
441
570
521
351
429
468
189
233
424
251
-53
-115
57
-59
-154
-87
-266
-300
-59
-170
-333
-216
-318
-366
-207
-120
-269
-338
-83
-169
-377
-166
-159
-399
-314
-233
-450
-454
-202
-124
-209
-149
-36
-210
-181
-31
-307
-335
-2
-147
-362
-143
-124
-379
-259
-78
-409
-437
10
29
-295
-181
-74
-357
-182
85
-213
-384
-135
-193
-350
-127
-219
-436
-177
-6
-306
-472
-153
-201
-358
-15
-85
-512
-272
115
-173
-311
-93
-225
-327
-75
-214
-456
-178
41
-176
-310
-130
-125
-221
-155
-142
-293
-186
1
-276
-238
178
33
-146
153
239
-3
68
243
-5
-40
221
91
-60
216
231
-177
-200
-31
-214
-334
-204
-335
-449
-105
-65
-405
-279
-66
-286
-290
-60
92
749
1949
3093
3363
2690
1488
255
-8
282
185
-79
-25
37
-291
-281
4
-198
-294
-45
-168
-401
-109
-33
-360
-171
58
-178
-234
14
-44
-353
-176
54
-154
-142
136
-110
-246
147
50
-76
195
107
-70
207
326
107
211
428
300
251
486
505
231
398
687
472
498
716
504
274
409
380
155
212
196
-27
-75
-1
-44
-186
-86
-141
-404
-209
-9
-336
-371
105
-29
-388
-184
-31
-341
-321
-40
-228
-376
-196
-156
-265
-102
-113
-367
-185
-95
-271
-241
-123
-43
-156
-40
20
-267
-141
-72
-252
-300
-165
-122
-380
-164
94
-172
-178
4
-227
-368
-125
-208
-258
44
4
-248
-187
-45
-242
-399
-105
-113
-487
-159
129
-302
-266
-4
-200
-284
-85
-185
-345
-72
47
-170
-201
-11
-215
-385
-95
-133
-247
-58
-15
-327
-270
56
-224
-229
44
22
62
159
149
87
194
256
184
148
186
117
-25
132
258
-55
-247
-72
-190
-294
-39
-169
-426
-312
-120
-145
-115
-66
-326
-233
26
139
823
2012
3012
3082
2408
1318
152
-82
256
100
-118
96
36
-264
-163
45
-349
-461
74
-13
-198
20
-68
-214
-12
35
-205
-147
49
-65
-160
-67
-97
-195
-47
199
72
-87
78
100
-93
10
272
198
171
382
321
216
409
424
270
435
523
331
499
679
490
423
429
368
386
432
331
82
94
184
3
-189
-30
3
-263
-86
41
-192
-115
-17
-220
-192
-99
-308
-360
-99
-88
-316
-186
6
-255
-305
-4
-137
-381
-22
-18
-514
-159
147
-224
-260
-48
-98
-182
-26
-79
-308
-143
79
-133
-245
-86
-60
-246
-215
35
-203
-257
24
-164
-215
0
-105
-341
-164
-49
-288
-177
-21
-218
-302
-70
-134
-321
-99
42
-262
-190
33
-245
-200
-12
-129
-275
-288
-118
-182
-259
-2
-42
-218
-75
-142
-373
-55
-17
-399
-144
-71
-416
-268
176
146
-72
175
240
-215
-8
391
88
70
233
138
-70
-27
62
-48
0
-156
-289
-195
-225
-224
-274
-150
-131
-422
-276
-40
-267
-440
-166
44
436
1653
2750
2936
2533
1483
158
-140
191
3
-93
14
-171
-238
-80
-70
-309
-267
-6
-176
-311
-60
-185
-352
-103
-38
-174
-256
-82
-175
-350
23
6
-320
-110
100
-247
-199
158
-3
-90
39
89
-34
22
316
284
143
171
140
248
561
534
214
341
616
448
401
509
216
129
424
290
130
195
74
-116
-81
40
-209
-392
-125
-63
-317
-189
-79
-391
-386
-175
-278
-376
-147
-60
-285
-284
-98
-273
-488
-193
-143
-353
-123
-70
-312
-292
-222
-213
-135
-73
-139
-205
-203
-173
-249
-229
-92
-252
-294
-58
-224
-349
43
-73
-367
-180
-54
-340
-276
74
-268
-395
-172
-245
-328
-221
-32
-269
-427
-125
-191
-287
1
-18
-258
-195
-60
-265
-359
-183
-251
-269
-51
-42
-264
-226
-40
-183
-319
-139
-319
-651
-195
193
-167
-222
2
-228
-261
-42
-364
-509
-47
61
-209
-201
-122
-216
-225
-107
-25
-216
-184
164
111
51
269
212
96
262
160
-149
99
282
-103
-66
74
-171
-120
-46
-256
-304
-194
-166
-292
-299
-11
-163
-387
-70
-61
-335
-49
916
1924
2857
3389
2761
1424
548
223
132
287
184
-112
-59
73
-142
-213
-58
-158
-278
-133
-32
-191
-129
-27
-145
-143
-109
-124
-186
-79
-24
-281
-286
51
56
-23
149
22
-90
84
111
-18
-1
238
254
69
314
421
155
331
530
348
440
562
297
460
855
622
437
603
395
160
434
534
124
-8
266
159
-226
-66
51
-376
-208
179
-148
-315
-55
-96
-338
-326
-130
-258
-257
77
-133
-291
-42
-158
-403
-277
-72
-176
-201
-9
-162
-298
-89
-203
-339
-39
-46
-318
-134
-14
-235
-180
-1
-152
-332
-127
-14
-278
-224
70
-132
-369
-190
-109
-218
-58
48
-369
-341
-13
-269
-285
-15
-66
-216
-159
-67
-240
-328
-178
-233
-173
78
-86
-307
-64
20
-389
-286
50
-181
-245
-81
-150
-241
-113
-40
-294
-259
-19
-224
-314
31
-52
-271
30
47
-181
-29
137
-5
4
222
192
60
222
296
14
81
149
26
111
24
-41
-51
-41
-3
-282
-317
-89
-288
-359
-180
-328
-410
-42
59
-263
-193
96
620
1753
3089
3415
2357
1196
488
97
166
292
24
-120
30
-70
-329
-207
-98
-331
-248
80
-93
-337
-103
-52
-214
-105
-50
-210
-140
35
-147
-264
-26
-26
-176
39
143
-187
-84
292
105
-50
215
231
-11
193
333
106
294
534
332
236
535
597
343
499
593
420
473
580
430
261
437
303
-57
127
220
-161
-167
93
-192
-303
30
-153
-389
-24
18
-384
-221
41
-198
-346
-138
-196
-307
-60
-137
-311
-235
-99
-159
-357
-204
-63
-276
-196
-18
-182
-83
4
-290
-284
10
3
-217
-117
-54
-297
-227
-137
-382
-341
94
134
-231
-144
-29
-234
-179
-78
-306
-359
-54
-144
-394
-123
13
-222
-221
28
-155
-466
-173
-54
-302
-109
4
-342
-225
20
-189
-229
-105
-365
-436
30
58
-244
-150
-17
-203
-314
-39
-13
-227
-169
51
5
-96
104
35
-85
133
272
159
176
206
-46
2
278
27
-355
-275
-122
-351
-250
10
-258
-211
-73
-277
-299
-206
-276
-308
-60
97
370
1568
2833
2913
2246
1270
172
-309
-30
203
-14
-171
-183
-213
-123
-28
-133
-283
-128
-8
-288
-194
15
-190
-299
-175
-34
-189
-216
-50
-182
-128
142
-122
-403
-6
140
-72
64
112
-60
-3
42
21
154
269
240
136
312
431
231
257
481
368
191
355
457
369
286
394
371
316
383
103
-97
33
-5
-155
-115
-7
-220
-290
-53
-288
-364
-97
-264
-414
-143
-108
-349
-316
-186
-231
-253
-69
-210
-433
-179
-256
-398
-177
-118
-256
-280
-27
-90
-300
-118
-15
-240
-356
-103
-93
-291
-89
-76
-223
-75
-203
-455
-291
-50
-171
-243
-59
-110
-305
-164
-37
-325
-361
5
-158
-407
-117
-124
-270
-155
-109
-353
-315
12
-182
-356
-159
-136
-297
-223
-99
-280
-153
-35
-310
-257
-160
-225
-308
-219
-39
-292
-288
61
-139
-267
168
218
-34
92
200
59
140
282
12
-122
158
128
-188
9
12
-441
-183
125
-387
-485
-17
-167
-455
-287
-209
-366
-350
-140
-190
-221
283
975
1913
3001
3097
2050
806
82
0
65
31
-8
-141
-115
-6
-264
-292
-51
-251
-373
-120
-90
-334
-206
-18
-369
-196
131
-183
-277
-84
-214
-359
-26
105
-138
-11
152
-140
-161
162
72
-87
25
128
67
171
399
226
197
437
370
274
466
548
388
413
691
555
367
586
458
138
145
184
-30
-117
97
61
-79
55
-115
-420
-70
9
-325
-150
49
-185
-337
-134
-288
-509
-160
-63
-332
-349
-275
-253
-134
28
-146
-361
-208
-97
-213
-160
0
-116
-271
-165
-84
-308
-360
-168
-192
-159
68
-148
-303
-65
-149
-209
-64
-36
-188
-219
-49
-213
-252
-103
-315
-349
-104
-109
-228
-209
-133
-101
-193
-323
-319
-120
80
-69
-284
-76
-38
-301
-223
-61
-234
-327
-142
-121
-241
-168
36
-86
-397
-152
36
-262
-151
-113
-271
-52
156
45
-104
130
116
-45
212
287
119
68
142
37
-66
280
276
-193
-180
-3
-157
-306
-99
-146
-342
-110
-149
-303
-94
-141
-523
-368
32
-92
301
1556
2640
3204
3100
2046
513
63
438
235
-63
144
52
-266
-108
-63
-392
-373
-143
-235
-255
-72
-96
-300
-121
8
-279
-195
-19
-165
-191
-31
27
-171
-191
-22
-79
-55
11
-92
-17
180
101
4
178
205
70
163
359
210
145
550
521
198
404
685
525
497
665
516
336
466
360
-5
241
289
-102
-144
49
-5
-311
-111
-87
-303
-90
-152
-238
-161
-156
-138
-236
-148
-101
-331
-227
-151
-333
-216
-117
-323
-391
-145
-176
-378
-201
-34
-225
-251
8
-102
-199
-133
-345
-245
28
-66
-303
-280
-98
-233
-183
-11
-230
-304
-44
-12
-256
-183
-25
-274
-342
19
-18
-347
-213
-29
-251
-320
-121
-335
-309
33
-142
-238
-180
-330
-319
-54
18
-234
-339
-31
-18
-320
-89
22
-290
-219
-113
-338
-278
16
-103
-253
37
35
-246
26
197
-90
-29
328
223
76
255
193
38
112
218
-14
-104
104
-124
-363
-116
-106
-434
-397
-75
-182
-340
-97
-181
-365
-87
58
-11
596
1816
2628
3120
2823
1298
173
55
105
-79
-40
193
26
-175
-12
-106
-398
-168
19
-180
-158
6
-153
-189
22
-79
-243
-58
20
-268
-187
169
-10
-256
43
146
-97
70
250
29
9
187
77
6
329
425
71
246
464
190
352
575
420
434
576
481
299
457
615
371
294
414
278
134
177
147
-105
-32
133
-175
-179
27
-194
-220
-86
-232
-204
-147
-198
-191
-136
-94
-208
-232
-139
-123
-245
-160
-44
-380
-296
156
-64
-274
-64
-79
-188
-79
-42
-227
-137
109
-122
-298
41
-45
-355
-91
15
-232
-140
47
-112
-161
9
-90
-318
-298
-61
-75
-189
-36
-182
-280
42
13
-237
-154
12
-188
-169
54
-236
-207
9
-168
-187
-21
-57
-191
-127
-198
-312
-108
36
-93
-239
-5
120
-154
-66
111
-89
-45
154
110
44
40
133
161
124
151
115
105
197
124
-94
-22
31
-320
-342
-34
-243
-387
-72
-109
-350
-232
-64
-419
-482
47
277
1028
2301
2912
2778
1968
726
-126
-59
261
48
-196
-21
-90
-345
-119
-8
-299
-256
-52
-226
-388
35
98
-391
-176
50
-239
-153
-1
-223
-230
29
24
-180
-190
21
-28
-173
57
-74
-60
301
148
20
214
300
130
219
351
213
239
374
379
308
468
692
508
393
469
293
263
427
224
-75
86
157
-151
-201
-19
-237
-439
-124
-47
-332
-153
32
-290
-296
-70
-241
-501
-245
-129
-388
-275
-182
-304
-263
-59
-233
-407
-34
-100
-462
-138
31
-379
-220
85
-277
-420
-92
-51
-276
-189
-138
-303
-205
-69
-256
-343
-62
-223
-475
-121
-91
-410
-220
-172
-442
-234
-56
-213
-393
-231
-144
-287
-258
-243
-198
-161
-92
-272
-415
-127
-111
-310
-245
-123
-208
-402
-212
-98
-376
-162
-19
-344
-280
-24
-213
-308
-93
-185
-297
-147
-90
-298
-196
65
-221
-377
-18
118
-33
-10
199
174
111
124
5
89
229
133
-40
-16
-71
-384
-278
-82
-388
-314
-99
-223
-300
-207
-129
-334
-476
-206
-72
-276
23
776
1648
2855
3453
2455
1062
342
-46
89
240
-17
-166
-211
-114
-180
-242
-84
-252
-404
-86
-61
-292
-110
-86
-306
-268
-132
-170
-295
-89
-65
-266
-54
-21
-222
-59
68
-96
-125
62
125
20
56
107
60
183
384
276
238
426
377
294
415
583
489
467
660
441
253
471
430
262
393
396
116
101
185
-195
-287
95
-64
-280
-49
-20
-244
-284
-271
-320
-273
-87
-89
-240
-116
-94
-339
-386
-283
-166
-18
-38
-190
-316
-224
-93
-286
-316
56
-19
-263
-95
-81
-321
-240
-61
-309
-238
102
-70
-197
-27
-119
-233
-86
-101
-246
-131
-35
-201
-225
-164
-259
-401
-214
55
-209
-269
43
-104
-258
-44
-19
-269
-227
-92
-270
-140
-93
-298
-107
-64
-235
-235
-121
-51
-136
-133
-30
-155
-195
52
-29
-237
-117
-134
-168
-116
-252
-327
-241
-4
62
-160
-47
111
-185
-95
316
129
-61
83
128
172
264
266
3
2
272
63
3
234
-118
-360
29
29
-305
-197
-65
-312
-316
-82
-293
-440
-50
-66
-331
-35
524
1271
2366
3369
3196
1911
880
397
161
285
248
-126
-239
-94
-122
-229
5
-13
-417
-266
-9
-283
-281
26
-135
-296
-3
10
-284
-128
-19
-167
-47
-21
-124
-132
73
153
-204
-168
217
141
113
270
108
106
219
281
229
255
548
445
368
577
565
363
461
664
423
412
605
346
274
442
229
-76
84
251
-46
-195
-124
-127
-91
-59
-244
-306
20
-16
-293
-197
-70
-228
-266
-27
-129
-336
-108
-132
-427
-236
1
-202
-318
-117
-123
-302
-180
-18
-216
-257
21
-122
-301
-100
-228
-402
-107
42
-219
-157
4
-327
-345
-7
-71
-305
-167
-43
-231
-202
-78
-166
-275
-137
-80
-292
-159
-27
-216
-204
-161
-291
-196
14
-66
-250
-82
-75
-346
-141
-74
-380
-276
31
-95
-277
-56
-56
-210
-35
61
-177
-317
-77
-34
-277
-151
17
-147
-25
110
-137
-32
196
22
-35
199
275
118
163
285
59
45
253
-67
-184
43
-75
-266
-303
-205
-248
-292
-70
-131
-326
-197
-36
-242
-245
-5
58
996
2461
3146
2898
1933
666
-277
-82
442
210
-46
52
-66
-297
-122
-42
-389
-269
188
-77
-281
67
-97
-354
-201
-167
-133
-9
-38
-217
-163
150
26
-225
-118
-59
-65
103
283
69
-29
151
43
-9
220
334
218
220
398
375
263
475
442
214
583
697
324
346
560
318
210
461
286
-32
-69
-67
-130
72
189
-183
-296
-1
-155
-369
-133
-63
-260
-189
-58
-341
-338
-45
-220
-407
-138
-81
-316
-178
-49
-284
-326
-28
-90
-438
-191
87
-165
-122
31
-158
-275
-135
-90
-243
-133
-22
-232
-206
-107
-201
-194
-255
-185
-127
-184
-101
-235
-205
-40
-377
-319
46
-163
-265
-46
-60
-319
-246
-86
-291
-300
-41
-130
-337
-111
-165
-457
-127
54
-232
-239
-24
-121
-356
-206
1
-227
-262
-29
-282
-318
124
-6
-395
-64
126
-189
-70
188
88
-5
279
218
-101
180
177
-162
59
263
-55
-160
-4
-264
-509
-229
-64
-233
-183
-114
-313
-412
-179
-334
-468
28
86
284
1440
2643
3012
2543
1586
348
-214
-49
129
53
10
82
-288
-310
-29
-207
-285
-125
-118
-223
-136
-68
-250
-266
-145
-202
-218
-30
50
-225
-205
39
-121
-139
76
8
-133
72
84
-108
142
244
31
-88
87
343
189
330
504
245
304
499
443
418
617
553
300
489
642
351
335
417
121
59
221
64
-238
-13
165
-232
-222
-42
-255
-232
63
-119
-414
-207
-120
-269
-167
-142
-337
-258
-15
-102
-287
-116
-87
-382
-227
2
-303
-353
-28
-102
-274
-67
-22
-248
-156
-20
-198
-188
-49
-229
-298
4
-95
-404
-107
116
-203
-308
-66
-152
-275
-51
-108
-356
-144
-25
-245
-190
-100
-258
-362
-172
25
-164
-177
-126
-416
-204
90
-126
-282
-118
-68
-336
-210
-3
-253
-276
-77
-156
-308
-94
-11
-242
-221
-67
-217
-474
-114
78
-223
-69
94
-128
-130
-16
-161
-46
301
193
-64
159
291
35
137
224
-71
-49
345
175
-173
-74
-90
-305
-347
-130
-230
-337
-135
-244
-340
-67
-80
-406
-250
6
76
888
2250
3129
3114
2436
1247
151
129
383
-37
-133
74
-194
-340
-9
20
-232
-110
-26
-233
-199
-18
-204
-226
-48
-146
-307
-158
17
-151
-213
21
-16
-213
22
87
-186
-122
-11
-12
154
268
142
55
229
327
141
217
455
225
242
634
540
317
542
722
475
429
588
413
375
605
434
155
192
149
-87
12
190
-106
-196
14
-38
-284
-247
-44
-278
-314
-32
-76
-99
11
-155
-338
-46
-33
-381
-182
6
-267
-268
0
-117
-237
-42
-201
-375
-120
-28
-238
-137
137
-91
-280
-110
-128
-259
-169
-25
-189
-281
-74
-129
-232
-103
-134
-268
-160
-156
-245
-166
-102
-173
-350
-133
-5
-264
-146
0
-206
-319
-286
-278
-217
-10
-63
-285
-172
-64
-200
-194
-52
-171
-298
-113
-56
-368
-222
122
-218
-290
37
-227
-382
20
20
-220
-89
166
25
-144
172
145
-36
240
312
37
76
183
-69
-19
245
91
-79
53
-24
-289
-189
4
-267
-416
-128
-129
-248
-79
-194
-467
-139
123
-70
489
1828
2986
3269
2753
1477
144
46
391
164
-54
111
-121
-397
-115
-94
-391
-179
87
-207
-202
53
-154
-267
-209
-303
-205
-2
-1
-187
-161
82
-20
-144
37
-55
-237
-15
82
-31
73
218
116
58
212
216
143
248
270
219
388
576
453
349
515
502
307
498
592
117
246
629
355
119
154
173
-108
-224
4
-163
-198
-41
-210
-279
-124
-62
-283
-322
-129
-149
-296
-118
-130
-388
-155
-101
-315
-284
-184
-165
-102
-94
-247
-269
-97
-61
-235
-136
-63
-229
-234
-89
-141
-288
-86
-70
-310
-135
3
-222
-213
-28
-144
-358
-191
-52
-267
-261
-133
-287
-273
58
-175
-531
-231
-109
-168
-94
-118
-196
-250
-144
-151
-297
-137
-94
-275
-110
-96
-386
-302
-40
-180
-347
-124
-49
-291
-283
25
-117
-312
-71
-187
-258
104
83
-75
89
191
-9
4
285
152
-101
26
63
-19
128
175
-116
-242
-181
-379
-333
-37
-130
-361
-207
-38
-353
-435
-23
-208
-402
-88
89
950
2144
2833
2863
1831
632
-42
-294
44
254
-88
-203
-9
-191
-344
-32
-138
-299
-17
-130
-380
-107
18
-326
-236
43
-170
-270
-4
-45
-278
-172
54
-9
-148
56
-4
-96
89
1
-60
112
223
110
202
373
18
34
428
321
222
479
573
368
390
649
443
230
576
548
171
224
381
87
-140
116
120
-196
-140
-132
-293
-56
59
-190
-238
-56
-136
-342
-190
-178
-454
-345
-72
-241
-304
-5
-186
-387
-165
-178
-382
-147
93
-200
-264
-13
-129
-362
-151
-38
-307
-270
-71
-248
-243
-34
-202
-252
-53
-146
-302
-158
-34
-204
-198
-79
-371
-383
-72
-191
-396
-198
-7
-285
-336
-2
-82
-287
-307
-238
-239
-195
14
-307
-406
-71
-206
-235
-39
-161
-332
-265
-134
-127
-204
-184
-178
-269
-169
-53
-281
-290
-48
-295
-345
8
-207
-341
45
71
-125
1
183
27
-39
169
108
27
205
178
-22
56
92
-95
-59
-29
-195
-212
-198
-275
-270
-125
-114
-358
-334
-150
-300
-318
-76
-89
-128
547
1663
2592
3070
2830
1571
277
264
223
-213
78
213
-180
-221
13
-58
-285
-177
-198
-421
-170
57
-208
-202
-35
-262
-280
-127
-101
-118
-117
-13
-78
-122
63
-7
-242
-22
23
-167
106
230
-78
41
396
186
52
275
318
201
372
553
397
408
590
473
242
563
735
386
427
536
209
186
305
-70
-133
112
-19
-212
-89
7
-284
-189
103
-218
-380
-132
-60
-286
-155
-14
-401
-317
33
-132
-306
-125
-147
-357
-195
13
-104
-133
-19
-249
-273
59
-78
-323
-138
37
-187
-201
35
-148
-295
-73
33
-207
-263
-78
-206
-228
-15
-199
-291
-98
-72
-148
-124
-89
-290
-209
1
-208
-265
-77
-102
-340
-286
-81
-254
-266
-9
-134
-310
-131
-130
-312
-117
-117
-393
-243
-335
-328
31
-2
-172
-208
-160
-114
-128
-153
-115
-279
-323
80
-43
-335
-21
203
7
-61
250
93
-21
278
169
-67
66
222
-110
-306
35
-170
-409
16
-167
-458
-181
-199
-412
-209
-74
-415
-545
-227
-90
-100
474
1582
2669
3363
3101
1667
375
238
267
75
73
-38
-213
-181
-41
-43
-242
-194
-190
-335
-60
-22
-277
-161
-61
-227
-316
-81
-8
-263
-196
-44
-156
-164
32
-102
-161
114
22
-44
170
139
-69
64
304
-30
-56
517
342
3
450
639
258
373
674
454
377
709
455
93
527
518
103
236
256
20
-93
93
121
-345
-214
109
-122
-204
-97
-258
-398
-110
-95
-304
-140
-104
-366
-278
0
-144
-243
-196
-270
-271
-48
-63
-351
-226
-89
-272
-254
-13
-99
-330
-113
-75
-333
-81
82
-182
-200
67
-46
-368
-278
-159
-352
-187
119
-148
-253
-80
-139
-345
-69
120
-301
-218
92
-164
-407
-148
-142
-392
-141
-1
-164
-73
-28
-301
-246
-23
-148
-199
14
-23
-448
-204
135
-233
-282
-27
-33
-238
-159
-13
-189
-115
89
-125
-189
158
136
-69
74
130
48
246
407
121
6
249
110
-36
171
168
-125
-142
14
-216
-372
-228
-300
-345
30
73
-295
-133
-39
-336
-205
199
680
1598
2759
3145
2453
1184
145
-128
-27
202
201
-98
-75
116
-208
-270
110
-162
-342
-11
-99
-367
-140
1
-146
-11
92
-109
-169
-66
-117
-122
-1
34
-96
6
102
-138
-90
129
70
-15
170
309
134
181
368
203
159
309
462
437
402
528
305
347
582
394
270
405
319
105
277
319
69
125
115
-212
-216
0
-112
-244
-80
-123
-261
-157
-87
-297
-421
-37
-94
-385
-44
16
-273
-198
-98
-299
-256
-39
-111
-257
-188
-82
-217
-338
-86
22
-299
-104
74
-145
-54
-59
-183
-106
-134
-345
-164
103
-79
-282
-190
-138
-286
-153
18
-209
-263
-27
-95
-256
-107
-64
-263
-177
-61
-340
-256
-10
-160
-256
-132
0
-172
-231
-107
-231
-208
0
-109
-312
-127
-65
-363
-227
29
-235
-401
-213
-222
-249
111
107
-143
-21
69
-42
-163
17
193
7
135
337
-30
-75
244
72
-149
36
-43
-519
-446
-160
-250
-142
-25
-285
-329
-107
-308
-474
-165
-111
-244
65
1008
1943
2716
3109
2017
506
13
45
-5
11
100
-184
-299
-31
-86
-229
-164
-112
-228
-202
-200
-288
-200
-171
-202
-211
-6
38
-231
-77
52
-234
-204
-102
-105
-56
47
114
-95
-22
246
12
-155
163
169
104
371
335
181
326
442
250
181
467
591
460
478
570
378
315
383
158
133
364
199
-117
57
-12
-333
-86
-11
-487
-387
87
-104
-296
-99
-77
-391
-350
-58
-212
-285
-92
-217
-410
-170
-70
-373
-331
-126
-264
-217
25
-138
-330
-81
-48
-349
-142
93
-254
-277
-6
-75
-186
-185
-161
-203
-247
-105
-208
-287
5
-132
-340
-112
-92
-290
-197
-48
-173
-224
-87
-191
-313
-184
-247
-372
-249
-63
-146
-311
-157
-224
-312
42
-112
-525
-224
48
-275
-350
-66
-163
-313
-130
-163
-341
-164
-91
-433
-300
110
-191
-330
-12
-149
-325
-163
-85
-162
-256
-61
55
-67
68
123
66
212
242
-46
16
263
55
-28
102
39
-247
-141
-20
-439
-381
-105
-253
-299
-143
-155
-288
-265
-265
-385
-261
2
286
1175
2520
3264
2903
1913
736
-53
-75
291
233
-113
13
8
-280
-207
-47
-465
-608
-24
21
-175
-29
-81
-244
-78
35
-166
-142
-251
-421
-36
203
20
-115
-49
41
-44
-262
-191
29
145
366
290
34
214
339
170
286
246
171
378
591
600
350
490
723
456
284
421
373
371
560
405
108
174
197
-10
-223
-201
-32
-44
-66
-144
-359
-180
37
-308
-297
-48
-295
-331
-67
-119
-297
-179
-107
-288
-207
-9
-337
-503
6
60
-391
-269
13
-324
-360
22
-85
-279
-143
-66
-283
-213
15
-211
-363
-230
-231
-182
57
-71
-338
-155
-54
-329
-379
-163
-214
-265
-165
-232
-293
-153
-100
-282
-227
-95
-257
-262
-68
-203
-337
-124
-148
-353
-171
13
-227
-397
-187
-270
-404
-63
48
-148
-169
17
-151
-336
-50
-84
-355
-268
-47
-56
-162
44
74
6
196
91
-46
207
336
89
0
119
13
-191
-51
172
54
-7
-54
-315
-289
-136
-294
-366
-229
-346
-509
-194
-13
-274
-179
147
568
1542
2848
3462
2825
1672
513
-57
87
121
-15
-14
66
-63
-261
-155
-115
-321
-149
20
-238
-301
-91
-75
-284
-117
129
-121
-227
-10
-130
-329
-148
-80
-163
81
183
-24
-3
190
119
-76
132
196
28
208
296
98
211
488
206
166
701
619
278
473
643
471
488
641
312
107
384
249
-20
113
126
-172
-100
112
-171
-359
-69
0
-201
-121
-120
-335
-260
16
-104
-217
-74
-181
-395
-181
-6
-261
-319
-189
-199
-275
-147
-21
-143
-90
-20
-172
-171
-20
-156
-421
-194
28
-143
-65
58
-217
-215
93
-88
-345
-186
-146
-267
-84
-23
-292
-169
17
-211
-270
-82
-168
-348
-152
-55
-270
-165
-20
-202
-234
12
-135
-473
-177
70
-157
-112
16
-272
-297
-61
-156
-222
-77
4
-212
-275
-36
-119
-147
107
8
-135
109
157
-29
131
380
120
-127
155
187
13
151
136
-75
-20
57
-197
-308
-117
-204
-450
-284
-103
-252
-234
-185
-264
-174
-6
-61
126
1278
2413
2890
2889
1928
358
-260
63
104
7
-24
-101
-221
-250
-125
-237
-173
77
-157
-393
-120
-3
-285
-248
31
-116
-214
91
5
-185
70
21
-491
-378
176
110
-35
209
123
-118
90
145
-52
102
249
56
129
425
333
191
361
466
251
241
468
388
342
486
462
214
254
408
98
33
144
-114
-169
62
-107
-402
-87
81
-273
-362
-137
-266
-374
-94
-161
-308
-171
-197
-354
-226
-68
-152
-287
-186
-122
-259
-150
-149
-348
-179
30
-276
-301
60
-88
-306
-75
-125
-317
-145
-27
-141
-267
-80
-108
-391
-142
-99
-527
-352
-30
-208
-200
37
-140
-298
-130
-218
-393
-174
-6
-355
-393
-105
-261
-305
-175
-239
-282
-151
-38
-198
-355
-133
-56
-330
-296
-180
-238
-151
-68
-246
-334
-101
-87
-506
-270
159
-108
-18
165
-204
-224
251
218
21
228
180
-61
-63
66
19
-130
44
-100
-386
-156
-177
-445
-328
-113
-258
-328
-186
-369
-414
-102
-219
-387
280
1239
2037
2817
2948
1849
465
99
83
-102
27
60
-223
-194
-40
-185
-338
-191
-45
-261
-274
-77
-263
-455
-77
4
-329
-55
12
-332
-61
26
-327
-203
11
-23
-96
-1
27
-190
-21
180
-92
-37
259
164
95
293
389
125
178
415
177
315
555
351
370
576
515
245
328
498
211
106
285
210
-144
-187
-44
-216
-169
-95
-245
-227
-111
-231
-363
-252
-84
-144
-202
-105
-243
-318
-174
-195
-310
-153
-186
-396
-177
-104
-329
-197
-2
-249
-359
-64
-79
-333
-103
100
-243
-282
63
-106
-408
-132
-155
-367
-119
-74
-251
-201
-1
-170
-471
-236
-112
-312
-192
-80
-248
-262
-113
-232
-305
-64
-102
-292
-206
-384
-469
-64
60
-167
-335
-81
-1
-314
-256
-167
-375
-286
96
-48
-354
-135
-46
-293
-235
-179
-295
-148
-39
-194
-270
-78
-41
-184
-102
25
10
-41
64
132
74
181
83
-153
70
264
16
11
244
-4
-318
-142
-85
-374
-220
-19
-411
-413
-10
-194
-407
-106
-191
-521
-212
232
657
1753
2968
3193
2594
1539
437
69
254
239
-72
-141
35
-92
-274
-81
-92
-322
-261
-105
-225
-271
-119
-162
-230
-138
-94
-321
-170
68
-184
-223
-79
-107
-228
-55
96
-117
-103
20
-64
51
167
5
38
268
265
92
262
481
265
309
611
451
350
593
594
323
341
478
294
329
447
230
98
217
87
-199
-50
-57
-356
-231
40
-63
-260
-99
-85
-330
-235
-26
-413
-513
36
-118
-311
-30
-79
-288
-178
-84
-495
-491
75
-113
-345
-7
-95
-252
-5
14
-193
-305
-256
-143
-204
-84
1
-190
-141
-99
-311
-299
-132
-343
-372
0
-35
-288
-49
66
-439
-450
-29
-141
-293
-125
-140
-418
-293
20
-223
-297
-65
-219
-275
-127
-355
-436
-41
47
-218
-211
-16
-199
-310
-81
-177
-364
-103
-124
-463
-134
73
-162
-175
-127
31
9
-163
14
91
24
225
230
55
224
309
-3
63
281
-10
-142
103
-66
-407
-60
-86
-504
-214
-63
-337
-246
-105
-241
-261
-72
13
-203
61
1015
1957
2980
3441
2483
1037
305
140
42
171
234
-141
-250
-1
-243
-325
-26
-40
-135
-7
26
-236
-126
25
-253
-233
-42
-128
-251
-65
93
-198
-222
135
-102
-281
109
84
-103
69
224
80
53
303
178
5
262
349
211
332
490
324
363
590
397
367
587
437
344
383
383
371
244
260
167
-146
50
163
-182
-25
46
-266
-136
47
-199
-247
-2
-179
-387
-167
-82
-244
-185
14
-134
-314
-112
-50
-256
-180
-8
-80
-143
-40
-95
-208
-38
-72
-311
-191
33
-138
-171
73
-155
-336
-27
109
-95
-95
-16
-210
-191
-80
-141
-175
-179
-111
-140
-96
20
-242
-332
-33
-161
-259
0
-55
-236
-70
13
-191
-145
-41
-193
-201
31
-119
-349
-160
-5
-133
-89
63
-189
-317
-108
26
29
58
105
51
37
163
110
25
262
193
-58
150
203
-42
40
179
4
-153
-71
-121
-392
-381
-58
-56
-241
-104
-202
-363
-85
-96
-298
-74
331
919
2067
3114
2793
1615
739
106
-188
116
284
-95
-189
65
-189
-357
8
-66
-356
-200
-48
-128
-130
-8
-119
-238
-7
3
-253
-96
168
-175
-228
176
47
-202
-75
70
-42
154
240
-42
98
256
126
88
320
321
149
310
343
260
374
615
527
279
518
417
225
499
467
266
284
332
60
-49
168
49
-209
-168
-41
-170
-179
-44
-291
-377
38
-110
-414
-119
-202
-368
-154
-14
-196
-376
-171
-93
-272
-143
-40
-280
-200
-30
-219
-262
-79
-128
-206
-186
-139
-183
-189
91
-100
-325
-49
-67
-216
-117
-8
-205
-362
-174
-218
-285
23
-25
-344
-238
-134
-239
-207
-95
-187
-334
-140
-75
-304
-230
-135
-234
-203
-135
-291
-242
-62
-182
-204
-140
-271
-389
-293
-151
-135
-109
-98
-254
-298
-79
-44
-251
-207
-24
-226
-284
151
108
-156
115
225
-168
-42
355
63
-142
173
263
47
94
111
-167
-136
-41
-218
-322
-148
-202
-444
-214
-146
-455
-278
-133
-435
-223
119
181
723
1893
2984
3072
2355
1265
64
-144
343
226
-246
-206
30
-249
-267
17
-157
-270
4
-125
-423
-105
27
-320
-200
-2
-366
-299
-27
-156
-165
79
94
-191
-151
40
-181
-254
92
100
-15
116
105
-33
48
255
216
127
178
345
409
451
551
405
323
526
556
382
541
504
231
411
315
-58
19
192
32
-151
-97
-183
-267
-138
-20
-141
-228
-69
-222
-374
-158
-157
-294
-139
-108
-328
-292
-146
-277
-309
-142
-285
-451
-122
12
-273
-199
-78
-222
-199
-86
-211
-286
-67
2
-231
-241
-108
-242
-294
-74
-99
-237
-20
-117
-379
-165
-19
-233
-345
-139
-127
-286
-173
-155
-328
-268
-69
-212
-339
-35
-138
-405
-100
-35
-334
-273
-83
-365
-436
-36
-80
-308
-168
-63
-259
-273
-174
-229
-243
-173
-145
-246
-152
-89
-310
-184
10
-192
-243
-16
52
7
139
281
95
38
176
86
-45
-13
134
19
-51
29
-211
-303
-201
-376
-327
-92
-311
-410
-95
-103
-390
-317
-111
-266
-256
503
1527
2372
3208
3220
1841
475
194
252
184
172
-182
-333
16
-3
-283
-280
-198
-239
-208
-30
-125
-284
-99
-142
-308
-247
-134
-162
-183
-47
-159
-225
-72
-68
-78
2
74
-30
-126
85
171
-36
112
252
-89
82
528
280
83
317
404
343
595
694
434
411
566
543
475
600
393
73
308
277
-85
99
203
-123
-165
-82
-249
-229
74
6
-299
-170
11
-227
-363
-72
-120
-365
-219
-161
-212
-125
-82
-212
-226
-86
-334
-435
-2
-48
-291
-103
-37
-220
-261
-8
-80
-305
-148
-68
-152
-110
-45
-178
-168
-155
-370
-248
6
-67
-396
-328
-47
-163
-183
-83
-180
-333
-122
-7
-347
-208
34
-263
-297
-79
-153
-279
-165
-128
-278
-233
-116
-206
-159
11
-141
-293
-164
-131
-246
-131
41
-170
-226
-207
-380
-220
27
120
-28
-111
117
87
38
328
299
64
194
138
-110
86
276
16
-207
-92
-94
-203
-241
-249
-211
-145
-55
-250
-410
-209
-101
-250
-232
39
114
757
2155
2936
2947
2360
1000
39
96
267
144
-8
19
-38
-198
-78
-104
-433
-272
37
-139
-185
43
-73
-141
-77
-221
-165
-23
-29
-109
-88
44
-59
-125
33
71
-19
92
125
-151
47
300
-35
43
422
305
198
409
448
302
321
362
348
425
519
480
360
575
720
389
417
475
19
-43
257
156
-101
-74
6
-108
-131
-36
-161
-265
-145
-109
-237
-101
-32
-381
-216
27
-221
-288
-61
-71
-288
-94
-48
-395
-219
-75
-284
-259
-112
-22
-127
-82
-15
-129
-59
-25
-246
-217
-49
-196
-194
-26
-56
-179
-160
-8
-176
-269
56
-137
-484
-198
-68
-245
-194
-134
-172
-165
-86
-42
-189
-93
-32
-335
-185
27
-234
-216
26
-215
-326
-90
-96
-180
-261
-227
-279
-112
103
-94
-147
-37
-40
-160
-129
8
-95
-89
208
144
-36
257
319
-95
-16
212
-45
38
385
95
-192
-5
-139
-375
-190
-31
-253
-276
-154
-283
-272
-154
-91
-218
-212
36
88
772
2175
2938
2803
2092
926
-43
-70
334
44
-255
136
74
-201
-12
-128
-358
-142
-59
-261
-205
-5
-122
-280
-41
-2
-259
-163
52
-135
-208
15
-101
-175
54
105
-160
-178
193
133
-45
222
120
-159
176
387
258
345
425
293
266
488
418
229
549
647
371
453
521
341
341
419
154
23
113
-48
-126
-38
25
-78
-289
-150
-33
-332
-291
-53
-198
-253
-211
-274
-280
-179
-143
-339
-307
-189
-272
-199
-112
-248
-288
-114
-205
-313
-132
-95
-326
-301
-59
-224
-252
80
-51
-284
-97
-141
-393
-229
-9
-219
-309
-13
-117
-372
-115
-43
-323
-199
-47
-324
-309
-43
-157
-349
-209
-144
-310
-192
-62
-295
-307
-12
-131
-407
-173
-12
-252
-219
-33
-313
-327
-30
-172
-292
-145
-97
-273
-221
-109
-270
-219
-13
-136
-327
-153
-97
-248
-32
74
-227
-117
230
128
3
279
313
-106
-123
120
98
78
120
-46
-232
-50
-10
-290
-259
-152
-418
-397
-133
-293
-290
-112
-291
-331
-107
43
191
936
2401
3298
2948
2050
861
-17
51
307
60
-174
-60
-149
-334
-191
-76
-206
-164
-50
-260
-392
-124
-101
-434
-278
-14
-226
-192
-22
-248
-300
-66
-120
-190
0
0
-240
-122
105
-73
-116
157
81
-35
197
268
70
197
504
152
188
661
447
271
561
627
427
465
615
324
84
435
293
-101
221
304
-81
-1
78
-214
-171
-109
-310
-386
-219
-3
-216
-201
43
-198
-325
-117
-152
-418
-222
-121
-407
-253
-60
-235
-253
52
-41
-387
-206
-135
-311
-144
-170
-337
-177
27
-68
-290
-126
-75
-361
-199
9
-236
-252
-80
-221
-357
-172
-86
-261
-178
-51
-367
-355
-14
-95
-311
-166
-22
-257
-231
-119
-400
-338
55
-70
-404
-229
-27
-232
-272
-134
-206
-236
9
-57
-311
-178
-118
-310
-242
-109
-286
-227
-16
-230
-359
-81
-14
-195
-183
-42
-178
-134
289
202
-28
118
274
127
-19
172
87
50
219
65
-11
95
-39
-246
-282
-182
-175
-283
-92
-107
-320
-102
-60
-298
-172
-99
-337
-234
526
1434
2451
3429
3238
1824
427
181
341
143
144
43
-178
-18
-5
-251
-144
-3
-218
-286
-167
-232
-196
-3
-24
-194
-118
84
-56
-198
35
-67
-252
-22
-8
-103
-61
40
56
-34
168
101
-114
284
381
98
231
370
189
193
489
466
236
404
540
436
521
643
471
412
493
316
208
290
234
-165
-156
213
-6
-147
98
-39
-332
-226
-61
-177
-187
-69
-202
-261
-42
-87
-354
-170
-37
-366
-275
-33
-277
-239
8
-145
-278
-112
-151
-299
-158
-62
-160
-167
-58
-165
-268
-77
-73
-290
-194
-34
-187
-248
-88
-111
-220
-97
-125
-289
-133
12
-193
-337
-39
-39
-285
-64
-114
-390
-175
-39
-243
-322
-37
-28
-346
-230
-51
-124
-230
-60
-39
-269
-119
-113
-284
-164
-124
-269
-239
-45
-140
-229
7
-26
-327
-215
-11
-91
34
150
-17
-121
82
184
-7
192
314
-133
-45
357
164
42
133
-105
-234
-34
-82
-444
-444
-71
-161
-357
-120
-191
-329
-122
-203
-242
53
637
1460
2407
3192
2727
1288
258
-103
-106
64
183
-75
-263
-23
-208
-408
-72
-89
-347
-53
142
-266
-232
1
-172
-175
-70
-177
-296
-91
19
-226
-228
67
47
-185
-79
91
-122
-105
184
66
18
250
192
34
310
383
43
111
505
495
248
459
426
197
539
480
166
381
533
280
132
233
38
-129
128
104
-294
-164
61
-179
-253
-138
-230
-360
-205
-122
-305
-267
-143
-272
-327
-134
-98
-287
-183
-89
-330
-249
-14
-165
-263
-60
-123
-354
-111
24
-253
-151
3
-341
-391
-28
-5
-224
-117
-104
-194
-132
-197
-263
-279
-33
-50
-370
-217
-168
-296
-137
-183
-312
-154
-128
-260
-334
-143
11
-245
-264
5
-249
-416
-16
-173
-393
-90
-78
-304
-310
-73
-251
-407
26
-35
-292
-133
-98
-285
-234
-1
-199
-336
-138
-141
-138
76
19
-288
-80
205
-14
91
381
189
-50
96
161
-44
-51
42
-98
-166
-147
-407
-389
-141
-214
-379
-344
-79
-112
-426
-222
-138
-402
-126
382
1064
2218
3096
2880
1819
709
1
-83
190
142
-168
-165
-32
-219
-185
-30
-225
-281
-159
-120
-294
-227
-5
-318
-395
-4
-42
-261
-130
-171
-404
-211
33
-28
-25
155
-2
-287
-88
84
-66
69
311
144
32
280
314
42
68
260
321
506
700
426
309
704
594
300
504
498
195
274
459
120
-118
81
-18
-145
71
105
-224
-292
0
-206
-375
-53
-161
-271
19
-68
-377
-191
-31
-372
-326
12
-218
-516
-237
62
-138
-163
35
-113
-195
-97
-167
-308
-180
66
-97
-160
84
-155
-367
-82
-61
-220
-9
23
-312
-165
62
-145
-133
-117
-203
-113
-23
-26
-211
-133
22
-182
-210
-96
-238
-290
4
1
-231
-104
-43
-270
-314
-5
20
-233
-81
-33
-316
-224
-11
-123
-142
-40
-224
-259
-43
-126
-225
-2
-89
-326
-94
80
19
-72
-29
101
-34
23
329
208
165
401
214
-54
126
141
-2
107
189
-69
-287
-82
-112
-380
-157
-130
-458
-210
6
-185
-265
-132
-183
-311
163
1051
2044
3135
3507
2482
959
334
213
-20
195
236
-225
-142
78
-175
-253
-117
-310
-416
-13
106
-228
-162
45
-175
-223
-13
-110
-441
-272
82
-86
-87
121
-61
-188
94
141
-66
62
182
-21
54
265
83
106
274
199
283
468
522
350
289
615
600
394
555
576
462
539
559
322
280
350
43
-42
165
-44
-185
-6
-92
-252
-46
-1
-269
-215
52
-14
-179
-111
-88
-214
-293
-202
-239
-249
-72
-105
-278
-151
-21
-273
-260
-25
-201
-313
47
84
-225
-37
37
-238
-130
10
-181
-238
-150
-244
-338
-108
12
-220
-123
77
-98
-186
-16
22
-241
-302
-104
-229
-268
-105
-179
-175
93
-26
-282
-85
-153
-466
-255
103
-128
-338
-66
-28
-226
-51
32
-251
-263
-189
-222
-275
-46
92
-184
-59
62
-168
-142
100
-31
-127
248
155
5
374
350
58
168
273
38
-12
42
-219
-196
87
-34
-294
-191
-48
-259
-245
-65
-126
-296
-251
-54
-156
-126
300
1027
2101
3179
3122
1895
826
188
-241
-95
422
238
-99
52
7
-181
-107
-46
-217
-298
-163
-100
-144
89
35
-300
-41
94
-229
-132
136
-202
-282
159
121
-34
116
75
-74
109
230
54
98
261
52
0
333
392
222
357
569
324
299
621
430
243
544
570
220
452
735
288
140
382
280
45
90
79
-116
-154
-27
-34
-99
57
30
-307
-174
125
-152
-158
-8
-230
-238
-149
-108
-127
-80
-5
-259
-242
89
-40
-172
68
-139
-358
-113
-63
-130
-16
125
-86
-261
13
37
-188
-99
5
-209
-220
4
-147
-313
-73
-77
-287
-164
-65
-263
-202
14
-200
-235
10
-169
-434
-168
26
-181
-143
-90
-272
-115
40
-251
-293
-99
-194
-298
-161
32
-80
-225
-152
-145
-355
-345
3
-174
-387
51
20
-144
187
21
-205
20
199
110
38
195
48
-41
260
143
-170
-75
18
-165
-172
-68
-242
-282
-30
-48
-364
-274
-133
-313
-252
-68
-183
-359
95
1206
2130
2879
3098
1898
495
128
-101
-67
283
-32
-227
-54
-83
-211
-209
-135
-217
-205
-132
-267
-230
-107
-109
-134
-97
-23
-174
-313
-90
-16
-173
18
7
-231
-71
164
62
-165
56
244
39
113
300
-45
-89
441
352
183
405
403
266
400
567
364
356
614
487
335
479
363
146
230
180
-175
-56
232
-144
-311
-35
-49
-186
-58
-54
-261
-268
-204
-199
-240
-191
-186
-413
-348
-40
-211
-278
-10
-208
-386
-129
-43
-232
-139
30
-224
-268
-70
-110
-204
-148
-13
-181
-242
-53
-159
-262
-36
-47
-289
-67
9
-357
-159
4
-333
-261
-129
-215
-174
-22
-30
-338
-300
-61
-299
-356
-41
-155
-333
-56
-78
-440
-288
-5
-232
-276
33
-151
-349
-45
-192
-450
-183
-64
-194
-327
-153
-101
-268
-129
-106
-197
-188
-96
-184
-273
-192
-317
-246
35
36
-261
-265
34
-8
-164
-68
107
36
32
157
132
225
180
-122
-31
160
58
9
103
40
-256
-198
-6
-457
-631
-160
-120
-314
-234
-193
-250
-219
-140
-195
-183
650
1610
2512
3422
2955
1475
467
316
260
74
87
84
54
107
12
-239
-142
44
-250
-142
77
-87
-152
-93
63
-222
-182
97
-171
-16
271
-36
-171
118
-68
-295
176
378
107
87
265
119
34
354
353
229
412
442
293
375
626
577
363
534
761
491
405
739
654
465
556
578
324
339
466
102
79
173
-109
-99
139
-53
-232
24
22
-390
-168
208
-191
-242
60
-37
-186
22
74
-226
-180
-22
-188
-316
79
74
-259
-17
46
-237
-207
50
-116
-119
146
-91
-261
-11
-51
-214
-61
12
-143
-155
-22
-156
-367
-171
100
-198
-304
7
-237
-238
1
-278
-289
1
-59
-304
-259
-100
-212
-274
-63
-179
-504
-247
12
-317
-295
-77
-380
-260
91
-145
-368
-159
-65
-290
-207
-175
-374
-314
-157
-213
-346
-193
-110
-357
-321
-109
-359
-450
7
56
-142
77
33
-154
99
224
-45
-175
6
-82
-164
204
216
-77
-45
-39
-330
-539
-306
-214
-410
-201
-186
-472
-372
-206
-282
-492
-387
-174
-271
338
1535
2465
3135
2935
1629
306
-4
37
-26
148
6
-404
-265
-156
-474
-427
-134
-130
-363
-257
-138
-378
-208
-140
-424
-336
-140
-170
-306
-141
-71
-519
-361
49
-178
-227
79
6
-174
92
136
-60
93
229
1
53
437
162
-108
362
535
357
503
607
395
371
648
557
141
377
506
99
274
317
-115
-61
82
-101
-270
-241
-192
-338
-249
-40
-237
-382
-146
-265
-453
-171
-242
-503
-268
-184
-365
-312
-175
-304
-358
-177
-333
-424
-155
-211
-394
-250
-75
-159
-354
-186
-55
-342
-282
-77
-380
-368
-13
-159
-346
-82
-92
-365
-225
-128
-353
-441
-303
-140
-185
-175
-140
-417
-479
-271
-287
-293
-198
-316
-377
-172
-166
-472
-424
-209
-399
-390
-208
-325
-326
-86
-143
-515
-390
-84
-273
-368
-165
-192
-333
-208
-99
-333
-319
-73
-474
-521
52
-42
-283
-22
118
10
71
161
121
54
91
139
-44
9
158
-197
-192
50
-158
-219
-111
-380
-505
-224
-206
-397
-303
-80
-257
-423
-287
-289
-265
266
1123
1966
2953
3232
1987
576
44
-50
15
54
-14
-120
-17
141
-119
-346
-117
-75
-375
-95
66
-320
-155
63
-148
-31
97
-130
-173
38
10
-164
-12
62
-191
-88
247
159
59
145
151
59
169
298
139
187
418
406
277
514
532
203
492
739
382
410
860
741
423
547
528
282
262
167
-32
76
298
183
-117
-128
-21
-143
-150
85
-15
-177
-28
-29
-233
-96
-56
-392
-169
32
-179
-161
11
-99
-365
-138
59
-193
-190
7
-41
-125
30
-58
-403
-165
103
-152
-93
169
-94
-147
54
-225
-353
-47
-27
-290
-124
116
-146
-253
-41
-158
-303
-117
-99
-272
-115
32
-197
-223
21
-64
-384
-245
-99
-212
-30
44
-239
-253
46
-69
-291
-103
-117
-375
-190
56
-193
-278
45
30
-274
-140
-46
-366
-122
123
-175
-131
102
-69
-158
105
25
20
217
259
214
166
321
168
-133
152
314
-68
-90
149
-110
-339
-87
-147
-440
-238
-63
-260
-217
-75
-307
-406
-119
-30
-50
788
1978
2647
3028
2661
1169
-40
55
266
30
50
111
-173
-196
17
-138
-208
-8
-130
-292
-108
41
-139
-251
-14
-24
-171
-33
-84
-137
28
0
-177
-126
48
-7
-21
57
50
-71
-43
163
92
140
360
168
58
309
396
397
437
469
506
577
656
511
462
552
485
456
468
288
264
341
284
116
-61
69
-36
-216
87
122
-310
-252
-5
-224
-404
-160
-53
-271
-98
28
-287
-292
-62
-222
-417
-134
55
-261
-217
7
-367
-346
35
-169
-331
-119
-127
-344
-178
80
-180
-237
46
-123
-217
-33
-119
-246
-144
-69
-205
-255
-56
-107
-259
-88
-114
-312
-199
-45
-301
-297
52
-229
-439
-32
-13
-302
-317
-193
-132
-220
-90
-43
-279
-128
-79
-319
-145
-137
-390
-231
-102
-214
-174
-14
-91
-295
-270
-175
-228
-226
-116
-217
-224
-116
-239
-323
-246
57
-12
-153
238
82
-112
182
136
56
164
79
-27
92
179
-9
-74
123
21
-273
-198
-92
-292
-316
-114
-253
-380
-123
-90
-417
-295
-29
-309
-269
418
1196
2126
3204
3283
2159
918
89
111
219
6
18
-89
15
1
-310
-133
16
-276
-366
-76
-80
-201
-47
-136
-372
-113
119
-168
-260
-176
-206
-140
49
40
-229
-37
247
-48
-38
183
-50
-95
164
192
6
168
468
252
264
523
342
354
575
554
506
594
647
452
513
678
425
250
389
104
-135
304
308
-159
-118
116
-138
-275
21
-96
-400
-191
-70
-284
-272
-65
-129
-263
-66
-55
-442
-406
-43
-228
-450
-134
-84
-302
-117
-93
-382
-247
-130
-286
-297
-102
-64
-264
-114
1
-336
-212
88
-200
-312
-201
-238
-277
-84
3
-262
-171
-64
-270
-169
20
-394
-564
-27
-4
-187
-65
-22
-215
-339
-122
-315
-473
-65
-81
-310
-83
30
-240
-237
-81
-226
-359
-168
-63
-345
-178
35
-345
-360
-44
-148
-270
-49
-156
-374
-130
-44
-249
-159
-79
-278
-282
-34
18
-172
-78
33
-51
72
163
97
103
311
249
-48
82
118
-112
6
177
-35
-344
-162
24
-309
-248
-89
-300
-232
-101
-348
-340
-26
-144
-287
-61
500
1338
2413
3259
2904
1742
717
194
67
300
329
-201
-133
109
-181
-268
-80
-241
-378
-73
-56
-240
-169
-9
-94
-296
-162
-89
-221
13
147
-179
-154
104
-62
-184
-70
-17
-184
-125
151
46
116
338
101
37
373
360
82
229
534
267
262
632
403
385
714
584
369
504
524
240
228
361
96
-14
234
145
-112
-44
-8
-197
-334
-187
-81
-282
-73
33
-298
-200
-22
-219
-307
-177
-261
-371
-229
-98
-186
-168
-56
-267
-373
-178
-221
-260
-39
-90
-278
-92
57
-187
-257
-109
-234
-335
-148
-113
-236
-179
-134
-210
-150
-110
-280
-247
-141
-164
-207
-139
-22
-223
-224
-112
-366
-360
-112
-182
-274
-123
-83
-222
-231
-108
-207
-263
-188
-305
-290
-136
-100
-204
-247
-70
-148
-317
-176
-179
-410
-390
-67
-134
-207
74
-111
-355
-95
-7
-233
-52
108
-197
-158
143
68
-162
85
365
103
50
161
44
-12
43
-16
-238
-204
-184
-314
-205
-153
-289
-457
-266
-126
-418
-213
6
-335
-254
3
191
1228
2536
2835
2471
1618
310
-256
-95
65
37
21
82
-164
-344
-123
-23
-254
-251
-93
-249
-251
-5
-159
-358
-126
-10
-235
-389
-202
-106
-143
54
-7
-162
-42
-23
-122
-83
28
-32
6
199
105
-95
37
167
95
234
531
370
228
458
343
278
575
523
351
512
535
371
327
362
263
28
29
50
-128
-169
-58
-46
-101
-74
-218
-240
-2
-107
-369
-244
-77
-297
-440
-103
-75
-363
-94
-159
-428
-80
-70
-359
-245
3
-93
-312
-148
8
-208
-232
-75
-238
-266
13
-61
-283
-142
-75
-263
-223
-55
-182
-295
-72
-108
-377
-139
8
-342
-305
37
-113
-228
-147
-274
-329
-156
-51
-251
-219
-59
-245
-302
-88
-181
-456
-152
62
-268
-223
-1
-198
-344
-135
-112
-314
-234
-141
-311
-240
-51
-274
-380
-12
-57
-302
-122
-124
-340
-257
-54
-154
-328
-171
-150
-397
-180
121
-24
-11
168
-25
-116
137
249
31
28
199
-3
48
150
-155
-123
136
-20
-285
-201
-174
-317
-179
-110
-330
-382
-201
-138
-356
-333
-168
-312
128
1066
1859
2751
3202
2434
925
185
172
-35
-35
70
-131
-153
24
-167
-282
-91
-351
-495
-192
53
-88
-307
-46
-81
-360
-153
-28
-318
-274
51
-158
-320
58
56
-178
-2
100
-257
-343
110
63
-46
296
203
-35
166
305
164
231
490
468
331
546
576
184
336
595
288
373
529
321
273
241
134
-12
-52
-6
-128
-122
19
-170
-287
-83
-173
-402
-191
-115
-382
-272
-101
-283
-300
-95
-181
-409
-331
-173
-252
-240
-135
-240
-302
-186
-162
-335
-188
-29
-220
-175
-107
-221
-246
-88
-101
-245
-175
-194
-286
-254
-35
-103
-297
-47
-48
-329
-198
-102
-376
-419
-92
-37
-197
-48
-133
-420
-259
-69
-274
-248
-44
-214
-283
-89
-116
-349
-303
-97
-303
-248
-21
-246
-383
-83
4
-350
-187
-108
-344
-87
34
-229
-265
-24
-54
-386
-228
-10
-215
-150
-16
-309
-325
70
14
-95
55
-8
-148
91
350
126
58
322
213
-22
79
75
-13
145
235
-74
-342
-137
-102
-277
-214
-342
-371
-149
-110
-158
-235
-189
-95
-207
-204
386
1218
2285
3417
3219
1916
872
281
4
207
308
-85
-193
-15
-145
-236
-48
-91
-254
-81
-38
-221
-87
-27
-277
-253
-24
-114
-179
-72
-74
-189
-285
9
102
-131
1
146
-68
-55
171
63
-68
169
229
36
269
306
143
377
488
179
264
686
533
435
624
541
403
561
614
290
273
344
77
18
117
7
-140
-103
-52
-140
-173
-23
-124
-252
-1
-193
-397
-137
-151
-310
-220
-54
-292
-335
-15
-184
-389
-59
-9
-379
-243
17
-162
-230
-81
-173
-235
-127
-155
-159
-136
-151
-194
-184
-13
-82
-308
-98
13
-296
-308
17
-83
-321
-88
-81
-337
-129
101
-197
-341
-62
-140
-275
-54
-123
-333
-211
-91
-328
-311
82
-52
-296
-56
-31
-273
-188
-92
-170
-118
-23
-136
-278
-32
51
-291
-207
31
-198
-179
26
-111
-191
-138
-148
-152
-9
162
-48
-176
117
171
60
254
338
88
87
245
120
57
203
30
-173
20
31
-207
-128
-80
-355
-321
-65
-165
-245
-133
-192
-350
-136
25
-32
860
2245
2881
2844
2364
1040
-106
-107
116
109
82
133
14
-218
-145
-38
-192
-224
-41
-256
-344
-8
-16
-169
-100
-55
-182
-64
88
-214
-210
139
-13
-161
44
11
-267
-23
218
-110
-93
305
208
-68
272
357
52
306
404
116
304
578
485
380
359
374
347
411
536
248
138
424
188
22
264
204
-62
-128
23
-100
-213
27
-121
-345
-82
-123
-359
-197
-21
-345
-432
-54
-162
-328
-40
8
-347
-250
26
-176
-264
-66
-127
-294
-93
-72
-384
-219
54
-191
-256
-102
-223
-288
-106
76
-99
-170
-38
-261
-311
-91
-82
-236
-135
-77
-399
-239
70
-324
-592
-94
-36
-386
-9
95
-339
-232
-94
-377
-300
-8
-118
-403
-204
-51
-356
-244
23
-346
-553
-41
-67
-357
-78
-20
-338
-281
-13
-221
-320
-71
-225
-297
-21
-64
-196
-134
-29
-26
-11
181
157
-41
164
253
-47
48
185
19
-56
92
-132
-444
-14
-107
-547
-247
-98
-355
-251
-95
-399
-460
-135
-14
-311
-219
600
1294
2182
3156
2679
1204
430
158
-55
40
97
-211
-315
-33
-105
-312
-105
-71
-346
-174
-35
-342
-344
-135
-162
-203
-66
-81
-264
-180
-48
-250
-221
149
-2
-262
-51
42
-122
-76
153
96
-88
90
184
25
280
398
46
191
407
188
309
593
539
367
468
546
341
334
394
230
112
229
205
-11
71
58
-246
-152
22
-354
-471
1
-60
-331
-91
-73
-314
-234
-170
-397
-392
-62
-137
-368
-132
-91
-321
-260
-6
-133
-430
-221
-106
-408
-180
84
-136
-104
8
-217
-307
-75
-195
-392
-163
-7
-120
-196
-155
-258
-271
-7
-139
-361
-150
-100
-382
-308
-79
-206
-245
-104
-168
-304
-116
-42
-194
-354
-410
-258
-254
-12
35
-349
-105
24
-316
-229
-96
-303
-359
-74
-144
-419
-110
5
-247
-165
-42
-217
-352
-159
-112
-317
-195
33
-57
-50
199
79
-91
153
169
11
159
257
19
-61
25
-51
-35
75
-112
-456
-125
61
-355
-292
-61
-245
-395
-218
-326
-415
-114
-34
-238
-24
894
1811
2717
3292
2457
1079
468
263
135
193
89
-61
-188
-220
-96
-287
-213
-24
-256
-244
-101
-274
-376
-158
-177
-252
30
-47
-341
-148
124
-10
-203
-124
-57
-125
-7
81
-135
-109
128
-9
-77
236
194
9
194
363
281
255
490
409
340
498
397
290
482
769
450
266
499
320
109
224
171
-90
-4
81
-157
-162
-31
-279
-234
35
-160
-283
-174
-210
-295
-247
-163
-243
-367
-213
-184
-297
-175
-145
-280
-231
-105
-315
-358
-104
-57
-136
-86
-85
-274
-279
-79
-124
-355
-129
-71
-439
-290
9
-97
-203
-113
-246
-254
-18
-126
-273
-153
-97
-375
-385
-15
-82
-294
-187
-187
-288
-177
-20
-269
-433
4
-207
-510
47
58
-273
-104
-92
-325
-216
-47
-226
-271
-134
-270
-319
-23
20
-207
-103
-103
-309
-220
-91
-122
-134
100
115
-120
7
147
33
59
276
208
21
204
243
2
-2
90
-24
-133
-42
-79
-315
-202
-61
-372
-365
-61
-214
-328
11
-89
-401
-84
96
354
1518
2717
3199
2831
1687
321
-126
309
316
-136
13
296
-149
-334
4
0
-290
-155
-12
-270
-260
-61
-181
-200
91
-20
-297
-163
-12
-74
-96
47
-73
-163
171
93
-124
33
110
-46
-32
245
163
117
387
301
130
355
491
222
242
543
423
329
515
493
366
511
633
367
264
419
192
-69
126
107
-229
-63
97
-238
-135
201
-106
-340
-49
-138
-369
-197
-116
-246
-250
30
-73
-363
-81
-39
-302
-116
-136
-381
-220
89
38
-294
-126
26
-327
-266
-16
-192
-135
101
-99
-299
-43
43
-205
-148
-106
-305
-165
44
-194
-362
-28
21
-363
-221
29
-234
-245
42
-55
-227
-251
-309
-273
-169
-94
-231
-260
-53
-167
-361
-79
47
-259
-196
48
-193
-297
-11
-130
-348
-207
-35
-215
-323
3
-83
-244
29
74
-78
99
191
-137
95
304
-45
77
261
0
-79
94
76
-200
-319
-103
-165
-279
-96
-187
-348
-204
-217
-449
-362
-173
-278
-291
34
484
1341
2520
3055
2531
1345
326
-122
-50
249
43
-286
-92
-53
-258
-132
-30
-222
-255
-163
-267
-295
-36
-21
-341
-242
14
-147
-218
-57
-118
-203
-21
-18
-275
-132
164
-7
-73
216
117
-217
143
399
20
66
370
174
121
484
379
236
506
420
255
481
447
284
415
550
360
148
324
286
-71
-83
51
-59
-135
-22
-36
-282
-179
-108
-361
-273
-135
-254
-257
-56
-219
-390
-91
-70
-387
-296
-32
-226
-290
-18
-158
-366
-98
-65
-285
-224
-104
-103
-256
-126
-67
-297
-62
63
-193
-251
-165
-229
-281
-94
-60
-236
-222
-145
-239
-179
-45
-282
-312
-141
-267
-306
-121
-77
-200
-260
-215
-232
-254
-75
-133
-418
-285
-78
-262
-233
-19
-271
-446
-118
-45
-335
-100
43
-352
-257
-15
-195
-253
-99
-245
-281
-50
-111
-268
-69
126
-312
-270
409
196
-94
284
262
-49
98
189
-10
-12
190
58
-188
-11
-116
-370
-287
-258
-295
-251
-137
-316
-453
-113
34
-271
-320
-106
-10
722
2069
2926
3031
2539
1265
40
-8
323
-61
-332
88
-6
-366
-126
-13
-233
-213
-69
-260
-309
-55
-140
-301
-160
-140
-328
-197
-29
-208
-243
-40
-67
-194
34
110
-151
-171
-21
-63
-11
153
101
109
286
309
-75
42
578
419
207
441
518
289
479
756
399
436
674
378
331
468
307
59
30
121
-132
-368
-1
74
-207
-2
-114
-388
-63
-52
-359
-201
-166
-385
-299
-80
-131
-279
-135
-63
-277
-267
-48
-238
-344
-301
-356
-132
9
18
-126
-152
-13
-164
-207
-114
-184
-295
-135
-61
-276
-239
5
-158
-375
-33
-32
-318
-72
13
-349
-348
-87
-221
-300
36
-14
-390
-157
-32
-361
-265
-86
-208
-195
-80
-156
-262
-159
-76
-224
-125
24
-214
-211
111
-164
-410
10
6
-356
-151
51
-254
-261
40
-23
-279
-258
-46
-101
-157
167
215
34
95
98
96
258
321
111
63
225
-6
-111
266
138
-166
-15
-117
-340
-145
-93
-304
-280
-143
-137
-306
-266
-30
-172
-287
-126
-34
637
2097
3116
3257
2777
1534
291
106
398
149
-80
62
-131
-367
-165
-12
-270
-250
8
-198
-271
1
-25
-228
-129
-7
-201
-278
-77
-45
-101
-15
-102
-249
-13
33
-200
43
216
39
12
145
139
-28
72
316
234
249
521
393
235
510
553
280
469
632
376
555
762
463
282
419
385
131
200
237
-80
-58
49
-155
-178
-72
-51
-151
-169
-146
-262
-188
-22
-164
-334
-70
15
-331
-163
65
-305
-272
26
-157
-310
-32
-63
-376
-80
-8
-396
-134
175
-82
-184
12
-71
-337
-168
8
-189
-184
8
-129
-319
-44
-18
-406
-225
74
-179
-236
-2
-129
-265
-19
-74
-429
-206
39
-238
-210
70
-254
-438
58
36
-321
-164
-68
-257
-200
-10
-52
-263
-104
28
-301
-220
-39
-208
-199
15
-72
-258
-49
-62
-310
-133
29
-223
-172
191
105
-37
110
67
60
388
373
37
103
308
98
-75
90
-6
-205
-107
-173
-353
-206
-29
-222
-398
-186
-120
-304
-194
-196
-364
-127
186
831
2084
3152
3196
2046
767
169
-45
70
229
-17
-160
5
15
-326
-400
-38
-63
-208
-59
-155
-276
-89
-59
-272
-157
85
-201
-251
74
-49
-184
36
66
-201
-84
255
-28
-230
162
126
-96
241
267
-14
276
376
149
245
426
419
323
485
432
211
489
598
332
347
557
372
38
241
352
-133
-131
183
-140
-189
97
-171
-267
16
-37
-343
-175
92
-227
-254
14
-207
-389
-110
-177
-422
-105
117
-286
-456
-5
-50
-382
-149
-25
-177
-106
38
-83
-166
-9
-103
-360
-211
-30
-235
-218
-113
-398
-276
20
-114
-134
23
-63
-282
-179
-54
-193
-275
-170
-136
-283
-217
-120
-324
-230
1
-261
-361
-95
-170
-228
4
-88
-343
-171
-43
-306
-238
-116
-335
-274
-124
-181
-285
-93
95
-227
-336
-100
-215
-333
-88
-75
-191
-40
-13
-166
-94
79
13
35
325
314
33
-15
202
50
-116
160
-53
-358
-64
-58
-402
-266
-77
-420
-452
-113
-319
-357
-54
-201
-398
-203
-20
178
1161
2491
2909
2564
1740
451
-194
5
212
56
-172
-77
-174
-369
-37
-13
-322
-223
-74
-228
-328
-126
-222
-317
-41
-25
-231
-148
-35
-278
-256
-17
-191
-246
0
71
-39
-8
169
54
-264
-124
98
57
351
387
89
249
463
244
192
536
389
73
295
506
416
473
612
352
188
376
227
-74
110
132
-246
-257
-109
-232
-239
-10
-90
-299
-156
-111
-315
-243
-191
-555
-439
29
-157
-323
-60
-132
-362
-190
-58
-262
-338
-169
-201
-409
-152
63
-273
-177
74
-162
-249
-71
-108
-334
-121
6
-233
-133
-134
-330
-202
33
-148
-295
-170
-286
-342
-143
10
-189
-246
-55
-162
-349
-261
-181
-233
-103
-54
-211
-256
-90
-172
-394
-79
36
-349
-266
-83
-213
-337
-154
-73
-309
-184
-25
-219
-246
-4
-91
-256
-94
-108
-307
-193
-75
-295
-293
-82
-119
-102
67
-30
-182
62
188
26
162
279
-101
-30
257
54
57
160
107
-161
-231
-170
-363
-348
-179
-213
-282
-169
-163
-230
-164
-87
-256
-270
73
297
946
2318
3236
3061
2173
969
183
82
210
70
-257
-113
34
-274
-187
86
-150
-259
-37
-119
-319
-200
-117
-294
-174
32
-319
-337
76
-65
-306
-62
67
-197
-196
3
-44
-45
108
125
4
135
266
30
113
295
100
146
450
482
293
476
625
306
457
607
346
545
639
433
362
422
393
89
46
200
18
-110
85
-44
-346
-120
19
-172
-150
-57
-313
-425
-137
-55
-157
-125
-77
-243
-265
-97
-145
-286
-161
-154
-356
-34
116
-270
-188
86
-121
-302
-72
-41
-314
-45
127
-304
-227
-26
-201
-157
-93
-158
-178
-24
-51
-363
-218
11
-187
-182
13
-81
-234
-114
-64
-298
-308
-92
-205
-228
-10
-283
-354
86
-16
-321
-106
46
-252
-269
26
-120
-231
-42
-101
-236
-181
-112
-201
-283
-68
-93
-330
-107
91
-217
-327
73
86
-90
149
-41
-283
213
329
-16
130
366
167
84
228
70
-109
197
340
-86
-67
120
-230
-365
-168
-181
-204
-62
-175
-402
-312
-95
-321
-439
85
124
202
1375
2648
3214
2989
2070
647
-79
214
279
11
-50
-47
-169
-92
-18
-251
-330
-146
-161
-254
-70
28
-309
-331
1
-141
-197
68
-31
-211
-65
36
-204
-132
-20
-273
-105
289
194
-119
80
306
58
39
314
199
89
439
355
113
349
419
386
463
532
495
398
578
476
171
386
361
38
162
291
-7
-155
73
-63
-357
-163
-57
-355
-208
130
-140
-281
17
-87
-368
-193
-124
-374
-263
40
-58
-220
-48
-79
-338
-80
67
-286
-195
60
-198
-256
36
-84
-356
-161
92
-81
-137
11
-122
-240
-89
-153
-365
-129
7
-229
-205
-15
-160
-305
-47
-42
-296
-218
-102
-226
-265
-126
-304
-426
42
54
-328
-147
-33
-338
-253
39
-170
-220
-7
-200
-317
-149
-80
-204
-225
-25
-195
-371
-129
-67
-226
-76
102
-82
-153
57
63
-77
244
372
-55
48
265
41
119
263
14
-189
-49
-78
-347
-174
-69
-445
-332
20
-290
-416
11
-197
-464
-67
14
-114
609
1831
2634
2883
2387
1136
30
-72
125
31
17
132
-79
-341
-120
-6
-252
-228
-110
-308
-228
29
-238
-327
101
25
-287
-170
-4
-185
-176
68
-101
-219
0
31
-219
-3
215
-70
8
268
106
-6
243
254
-49
229
555
166
207
573
396
205
493
552
279
387
449
229
254
386
169
18
213
135
-170
-53
67
-289
-227
47
-282
-405
-18
-72
-338
-91
-28
-357
-357
-54
-291
-445
-40
-52
-240
-133
-22
-213
-335
-102
-252
-350
11
-78
-294
-132
-44
-202
-282
-129
-133
-331
-181
81
-121
-195
-7
-236
-347
-95
-271
-465
-82
-73
-391
-74
89
-390
-341
94
-229
-485
-156
-121
-256
-140
-112
-405
-381
-32
-150
-312
-86
-146
-447
-223
29
-299
-317
-94
-263
-253
-44
-239
-490
-216
-121
-410
-153
186
-54
-197
53
101
-130
48
214
33
76
202
121
-67
65
182
-84
-54
-92
-253
-154
-25
-228
-478
-155
-121
-473
-267
-4
-322
-328
-103
-345
-304
281
1011
1986
2992
3014
1896
700
309
191
-121
70
0
-308
-42
68
-170
-337
-76
-42
-361
-176
-160
-355
-150
-108
-328
-160
78
-203
-304
0
-116
-309
-4
104
-157
-121
128
-80
-233
132
162
-107
47
264
88
173
305
116
209
449
482
357
419
474
243
315
629
416
245
507
490
202
186
294
-14
-95
141
-161
-327
61
103
-348
-474
-79
-86
-327
-147
-169
-297
-129
-176
-339
-169
-99
-253
-264
-114
-183
-340
-185
-220
-358
-125
-68
-388
-228
27
-242
-307
-107
-20
-196
-217
28
-135
-271
-62
-164
-293
-70
-190
-452
-183
41
-269
-354
-29
-161
-378
-114
-69
-266
-142
-77
-327
-294
9
-153
-317
-89
-75
-312
-294
-83
-256
-386
-86
-75
-341
-239
-36
-317
-238
53
-264
-228
12
-314
-371
97
-18
-340
-60
148
-6
-57
168
205
111
164
38
-101
23
266
156
-13
123
-92
-318
-188
-260
-458
-304
-106
-303
-251
-72
-316
-393
-174
-175
-414
-111
947
1868
2727
3395
2762
1197
288
209
76
33
196
27
-148
-46
-232
-365
-107
-80
-399
-282
1
-209
-323
-143
-88
-209
-139
-76
-168
-131
-46
-267
-227
160
-35
-245
41
49
-200
28
167
-27
37
197
182
71
280
406
177
350
527
218
178
464
433
365
676
730
433
483
513
181
179
427
49
-219
141
16
-273
5
109
-278
-370
-54
-144
-363
-158
-9
-225
-242
-50
-270
-333
-13
-46
-221
-141
-195
-337
-180
-48
-170
-153
-34
-194
-276
-40
-44
-269
-228
-88
-100
-115
-7
-115
-291
-159
-108
-246
-146
29
-199
-310
-42
26
-234
-271
-45
-66
-139
-53
-177
-310
-24
-60
-343
-96
-15
-291
-162
77
-182
-449
-176
-97
-253
33
60
-223
-111
13
-185
-235
-25
-85
-230
3
95
-128
-7
178
-12
2
268
65
-25
375
296
55
164
230
14
-32
221
2
-286
-93
-14
-218
-172
-7
-250
-296
-64
-183
-274
-94
-136
-261
46
786
1709
2786
3419
2621
1063
232
121
43
67
101
-91
-162
-14
-44
-149
-45
-138
-219
31
75
-152
-226
-63
-47
-197
-53
70
-243
-183
153
-41
-91
84
0
16
13
-92
-35
259
393
153
104
301
249
155
389
438
224
356
506
294
354
701
550
364
628
624
353
466
623
241
113
384
157
-89
74
43
-223
-194
-9
-176
-222
-39
-238
-367
-80
4
-171
-148
-27
-107
-225
-106
-175
-377
-115
-69
-273
-111
10
-256
-304
64
22
-236
-77
22
-309
-195
149
-119
-256
21
-140
-419
-130
29
-103
-81
-103
-317
-216
46
-167
-330
-97
-76
-299
-180
-11
-245
-359
-122
-83
-281
-160
-34
-291
-298
-35
-103
-184
-96
-267
-284
-83
-139
-282
-181
2
-175
-251
4
-105
-284
-36
73
-75
-30
97
-24
18
402
228
21
136
-85
-80
158
202
-103
-174
42
-242
-380
-131
-191
-399
-276
-146
-363
-457
-95
6
-319
-208
245
735
1741
2956
2967
1878
861
77
-237
105
149
-115
-87
-37
-209
-251
-25
-170
-360
-175
-109
-215
-301
-187
-193
-357
-8
-4
-279
35
58
-206
-76
91
-87
-141
62
-106
-340
87
344
23
80
291
-27
-78
311
301
136
295
504
387
490
569
279
404
626
525
323
446
530
222
176
314
98
32
208
77
-78
-170
-105
-160
-215
-27
-166
-232
-136
-315
-347
-95
-77
-309
-290
-100
-171
-193
-61
-213
-303
-136
-101
-337
-218
38
-263
-331
-16
-92
-252
-7
-44
-302
-140
-8
-209
-211
8
-130
-295
-10
-19
-300
-161
-107
-336
-265
-17
-104
-217
-82
-196
-426
-332
-15
-33
-171
38
-67
-294
-84
-23
-270
-348
-261
-357
-238
125
-19
-235
-127
-22
-311
-650
-278
58
2
13
-92
-245
-91
-17
-193
-117
-29
-129
-201
118
228
-42
199
291
-18
-79
-12
-68
60
432
286
-79
27
-10
-306
-291
-132
-229
-336
-173
-185
-360
-202
-130
-311
-272
-138
-280
-20
1097
2151
2913
3290
2505
916
68
235
166
-130
-21
5
-137
-50
1
-231
-291
-57
-201
-551
-251
28
-173
-53
15
-241
-137
60
-154
-277
-66
-168
-286
-43
-15
-176
21
201
-49
-81
133
68
71
289
216
101
218
405
368
286
476
505
354
489
651
445
398
576
440
391
628
404
93
342
232
-139
60
236
-142
-296
58
-94
-329
-67
-182
-414
-180
-1
-196
-260
-29
-86
-342
-213
-128
-490
-293
102
-372
-420
36
-132
-383
-189
-26
-194
-133
82
-254
-497
-46
-38
-332
-42
52
-222
-197
-17
-130
-300
-115
-171
-347
-88
-19
-309
-262
19
-153
-209
-43
-206
-303
-150
-91
-267
-181
-22
-193
-232
-20
-81
-292
-187
-292
-397
-83
6
-189
-228
-63
-150
-297
-104
-80
-207
-115
-83
-243
-207
15
-109
-305
-29
50
-132
-50
-75
-77
21
252
308
62
165
289
30
-56
164
4
-132
93
-32
-273
-88
-128
-307
-324
-390
-300
-257
-130
-84
-327
-290
14
-116
156
1360
2387
3140
3287
2191
716
206
348
174
63
91
-203
-326
-130
-59
-170
-54
14
-289
-259
-26
-207
-310
-25
-75
-296
-99
6
-174
-161
28
-193
-197
225
-79
-279
27
-73
-55
231
257
18
50
329
183
24
280
355
47
291
725
376
296
712
634
407
454
569
396
230
445
335
206
370
172
-73
-23
-33
-249
-70
126
-164
-180
-79
-208
-268
-188
-168
-255
-172
-57
-174
-225
-82
-129
-320
-93
2
-395
-346
-75
-222
-298
-132
-169
-326
-118
-4
-294
-172
-85
-368
-109
141
-117
-296
-121
-12
-237
-190
-86
-226
-184
-85
-232
-353
-121
-83
-260
-178
-93
-232
-305
-11
-92
-380
-151
-73
-253
-208
-135
-309
-262
76
-208
-406
-111
-95
-105
-101
-85
-250
-362
-47
-49
-167
-34
-72
-41
108
151
53
-43
175
190
51
208
121
-80
125
245
-91
-311
-148
-159
-416
-217
-111
-368
-228
-55
-422
-415
71
-134
-316
-52
267
1124
2293
3110
2818
1630
504
-95
-104
127
153
-256
-283
30
-113
-195
-155
-336
-312
-72
-210
-469
-116
222
-152
-318
-16
-84
-268
-110
-74
-248
-112
51
-178
-185
72
10
-134
14
45
-32
142
151
42
144
295
193
151
410
351
147
438
642
352
276
377
311
391
557
461
159
201
298
-51
-79
109
-275
-396
-71
19
-182
-297
-74
-157
-320
-323
-361
-267
-108
-108
-301
-273
-117
-289
-353
-179
-300
-420
-186
-61
-371
-304
17
-231
-314
-94
-180
-277
-79
-35
-320
-285
-58
-170
-192
-46
-241
-375
-252
-250
-278
-197
-58
-179
-314
-235
-161
-197
-161
-69
-203
-175
-35
-240
-480
-203
-94
-295
-179
-163
-292
-187
-138
-254
-289
-232
-167
-264
-181
-78
-326
-258
30
-191
-292
-10
-163
-236
106
-38
-117
131
135
54
70
200
57
-135
96
154
-155
-144
-13
-226
-271
-213
-433
-393
-167
-332
-440
-196
-55
-264
-347
-86
-160
-125
956
2132
2754
2959
2115
566
-129
130
157
-137
-123
-52
-251
-148
55
-243
-433
-110
-127
-386
-206
-165
-321
-216
-56
-139
-156
-58
-245
-306
3
-11
-213
20
69
-125
-143
65
18
-247
82
264
87
148
268
177
57
265
404
311
346
496
416
394
548
401
292
549
588
302
389
429
63
45
80
-114
-44
116
-62
-317
-114
-39
-303
-228
-107
-208
-297
-165
-82
-357
-278
-64
-353
-287
15
-298
-471
-100
-45
-356
-285
-140
-335
-225
-78
-241
-282
-38
-23
-261
-119
-78
-238
-179
-91
-206
-322
-140
-178
-328
-16
-118
-529
-133
132
-278
-351
-97
-94
-309
-223
-174
-361
-220
-67
-292
-367
-72
-115
-372
-211
-125
-325
-210
23
-238
-412
-74
-150
-411
-213
-55
-343
-480
17
-12
-323
-80
-158
-368
-63
-102
-390
-174
37
-157
-256
36
132
26
161
268
14
16
289
103
-141
139
117
-210
-37
41
-241
-289
-99
-181
-400
-250
-224
-435
-148
-208
-591
-131
111
-198
71
1043
1931
2806
3339
2555
958
44
227
188
-69
95
-9
-304
-194
-89
-193
-201
-82
-289
-416
-91
-74
-325
-179
-78
-301
-231
-105
-262
-242
6
-196
-363
21
107
-124
-62
47
-93
-67
205
79
-114
172
218
18
213
497
302
188
409
318
305
588
572
320
440
687
506
325
440
318
46
234
266
-52
22
103
-212
-208
14
-166
-295
-183
-122
-220
-335
-98
-58
-238
-28
-131
-453
-227
-189
-620
-350
101
-157
-287
-73
-151
-345
-158
-82
-325
-261
-51
-211
-267
-15
-117
-337
-158
-80
-244
-247
-178
-238
-277
-121
-121
-293
-152
-90
-281
-239
-240
-363
-178
-30
-204
-326
-130
-78
-255
-117
-59
-303
-319
-367
-327
-62
-38
-109
-307
-235
30
-219
-323
-59
-149
-398
-173
2
-283
-312
-112
-199
-289
-86
-39
-215
-70
73
-174
-129
48
-158
-46
328
234
27
227
293
9
8
228
104
-89
14
-111
-383
-242
-99
-321
-377
-176
-263
-362
-194
-163
-310
-237
-35
-113
369
1553
2538
3215
3079
1874
496
156
383
127
-84
92
47
-229
-81
-23
-269
-175
-133
-317
-285
-138
-197
-285
-64
71
-155
-122
-15
-186
-146
68
-98
-376
-118
86
-129
-45
157
-52
-88
61
-118
-46
330
208
21
341
460
154
281
607
443
298
437
411
331
522
649
379
286
460
230
92
261
103
-138
38
108
-233
-210
65
-245
-483
-78
-47
-376
-166
-22
-297
-165
3
-189
-237
-155
-231
-273
-122
-93
-249
-411
-138
-34
-274
-92
-47
-345
-336
-61
-82
-147
37
-122
-216
-7
-173
-331
-74
79
-253
-296
-7
-100
-236
-258
-213
-193
-195
-71
-200
-210
-12
-204
-361
-91
-78
-298
-145
-43
-225
-162
-58
-282
-414
-76
5
-424
-200
105
-208
-197
-3
-208
-243
-2
-196
-356
-13
-44
-277
-134
69
-88
-200
154
166
-110
107
294
49
83
325
141
-116
126
215
18
20
-150
-267
-71
-32
-298
-374
-148
-125
-300
-142
-59
-340
-242
28
-147
-7
1150
2243
2752
2968
2027
316
-140
227
71
-127
89
3
-306
-46
-44
-304
-159
-26
-244
-289
-26
-164
-261
-33
-120
-322
-146
-68
-203
-55
100
-107
-253
22
149
-108
-101
91
30
36
158
69
-4
71
154
173
287
498
298
131
386
435
349
513
444
186
372
526
333
305
432
280
57
110
119
-88
-148
31
-83
-209
41
-38
-365
-185
-90
-339
-155
-9
-310
-250
-21
-160
-278
-161
-6
-215
-287
53
-107
-350
-29
-80
-381
-109
5
-246
-144
37
-103
-174
-56
-125
-211
-132
-166
-237
-121
40
-130
-247
-67
-155
-274
-121
-72
-254
-232
-86
-210
-344
-133
-70
-326
-165
-55
-340
-185
106
-136
-332
-147
-61
-330
-275
32
-198
-235
3
-139
-349
-325
-190
-241
-111
20
-281
-273
-1
-107
-199
45
28
-256
-3
281
-83
-135
320
173
-103
82
91
-32
137
259
-31
-55
48
-180
-305
-157
-121
-417
-280
-76
-318
-242
-118
-318
-307
-134
-220
-165
563
1589
2474
3019
2716
1413
165
-6
40
-98
24
84
-156
-154
41
-157
-317
-155
-194
-382
-219
-260
-404
-100
66
-88
-143
9
-109
-311
-56
65
-199
-164
58
-131
-204
29
7
-84
6
141
12
3
248
154
-7
332
425
126
377
581
355
354
499
330
275
592
593
282
276
255
100
154
219
92
-15
85
-100
-282
-25
7
-266
-203
-28
-216
-251
-165
-295
-335
-337
-176
-132
-367
-137
-47
-314
-220
-141
-203
-174
-106
-170
-307
-199
-152
-250
-133
-188
-260
-52
-30
-159
-127
-81
-182
-320
-111
-1
-290
-184
-118
-438
-303
52
-108
-281
-91
-90
-292
-277
-107
-211
-255
-30
-183
-279
-107
-230
-409
-264
-64
-154
-195
-4
-157
-454
-274
-222
-274
-96
-99
-262
-239
-42
-193
-220
-3
-285
-519
-274
21
-173
-388
28
-9
-247
32
-19
-195
77
274
41
13
269
144
-86
43
69
14
147
145
-124
-195
-71
-296
-513
-212
-92
-403
-271
-72
-321
-224
-159
-409
-378
-239
203
1061
2202
3117
3044
2248
1047
142
13
145
203
3
5
1
-306
-246
-136
-264
-293
-78
-74
-307
-113
-41
-311
-229
-36
-196
-271
-26
-56
-227
-35
51
-184
-197
44
-25
-122
122
97
-180
-22
255
69
133
419
214
139
416
338
209
446
490
301
465
751
487
229
373
415
377
392
410
139
-7
242
62
-185
-37
-25
-163
-195
-177
-270
-173
-25
-303
-264
-71
-245
-240
-86
-150
-390
-195
31
-195
-305
-205
-81
-196
-165
24
-222
-261
39
-140
-372
60
86
-392
-103
74
-292
-159
64
-257
-265
67
-98
-151
3
-109
-288
-291
12
-26
-256
-75
-80
-268
-83
-89
-437
-248
40
-93
-181
-56
-14
-203
-179
-31
-227
-238
29
-208
-433
-47
38
-322
-235
-7
-233
-246
32
-104
-196
31
6
-261
-223
-42
-56
-99
-37
88
11
140
174
-21
221
352
58
55
232
115
14
61
25
-177
-95
-79
-423
-272
23
-182
-314
-145
-168
-369
-227
-78
-181
-148
223
834
1750
2990
3394
2537
1154
112
34
279
290
12
-169
-5
-74
-195
-134
-128
-120
-108
-80
-54
-294
-295
-50
-266
-180
83
-214
-190
129
-32
-180
-72
-50
-174
-28
147
-112
-41
200
4
-13
207
91
-75
257
446
173
262
466
237
143
446
553
356
428
580
352
327
498
269
81
227
240
62
53
21
-173
-104
144
-87
-299
-51
-94
-366
-223
9
-271
-386
-138
-161
-237
-47
-52
-251
-145
-117
-214
-235
-253
-205
-150
-43
-70
-234
-128
-99
-336
-226
51
-100
-277
-67
-24
-257
-141
-60
-331
-70
