-235
166
-185
-407
-18
-16
-300
-106
101
-215
-229
84
-134
-390
-1
119
-362
-150
279
-90
-170
206
-41
-225
176
88
-303
-7
237
-159
-187
258
41
-395
91
259
-260
-37
177
-201
-214
152
-6
-324
128
173
-330
-68
168
-303
-250
319
-78
-435
91
84
-268
-57
173
-200
-309
112
-22
-255
127
57
-373
-123
117
-170
-91
231
63
-67
183
234
18
139
487
225
60
505
195
-190
226
47
-419
-93
8
-408
-333
59
-214
-538
-75
55
-356
-237
-70
-573
-289
1134
2246
3523
4846
4281
2560
1701
1212
484
349
495
-141
-543
-58
-77
-583
-297
-46
-596
-562
-82
-410
-710
-207
-161
-565
-336
-159
-506
-420
-98
-387
-602
-183
-176
-561
-230
29
-422
-405
33
-168
-398
-34
64
-285
-111
176
-140
-119
299
120
-161
225
336
-128
95
515
101
0
459
245
-46
318
355
-91
31
256
-211
-217
123
-171
-375
-20
71
-387
-246
123
-352
-404
105
-190
-483
-48
-79
-504
-176
107
-269
-247
104
-158
-406
-103
-112
-390
-131
194
-197
-356
15
-175
-395
106
58
-483
-145
178
-318
-331
182
-153
-471
-4
21
-349
-135
73
-356
-437
64
-95
-424
-32
10
-453
-234
138
-296
-417
-51
-213
-339
14
22
-403
-277
34
-264
-293
14
-189
-364
49
175
-277
-54
377
-24
-93
369
244
-23
238
208
-276
-68
255
-308
-423
23
-241
-557
-113
18
-467
-306
18
-430
-443
82
-468
-784
363
1444
2556
4226
4673
3244
2024
1492
651
275
483
35
-529
-295
-46
-518
-699
-221
-397
-695
-336
-359
-675
-360
-94
-643
-720
-81
-375
-764
-241
-141
-451
-401
-232
-424
-435
-63
-281
-515
-97
-61
-485
-269
7
-402
-424
161
54
-344
61
259
-175
19
433
7
-46
542
189
-128
370
272
-19
277
418
3
-137
264
-14
-381
76
62
-328
-168
-33
-329
-300
96
-175
-469
-54
-94
-496
-262
39
-296
-422
-17
-137
-388
-57
-58
-479
-264
35
-336
-277
105
-187
-410
-36
10
-441
-245
187
-244
-360
135
-76
-384
-51
-44
-477
-215
116
-393
-444
40
-224
-518
-42
-91
-477
-52
14
-491
-360
-9
-268
-486
-138
-48
-388
-351
-74
-355
-469
-44
-227
-518
-167
-77
-396
-277
-51
-421
-411
97
-128
-484
-36
85
-367
-75
249
-145
-153
316
20
-270
408
472
-226
-87
319
-134
-238
67
-274
-517
-85
-17
-549
-359
14
-458
-444
-26
-387
-558
-305
-210
162
1529
3375
4256
4127
3464
2212
1007
827
738
-42
-183
69
-438
-584
-94
-412
-828
-374
-280
-707
-501
-144
-450
-574
-197
-451
-877
-316
-154
-734
-479
-87
-467
-506
-134
-402
-652
-210
-118
-639
-416
72
-392
-398
116
-186
-407
-12
3
-289
-52
274
-181
-253
427
216
-125
341
341
-112
152
484
73
-24
368
158
-185
84
84
-382
-114
219
-329
-370
34
-237
-465
-48
99
-304
-207
94
-316
-460
24
-86
-479
-172
-74
-366
-181
49
-382
-610
28
-42
-475
-68
17
-406
-206
130
-242
-324
115
-163
-454
91
96
-392
-270
10
-359
-514
87
-46
-484
-88
25
-454
-208
78
-405
-331
59
-156
-343
-31
69
-457
-378
75
-267
-346
52
-173
-425
-10
-2
-384
-200
-91
-356
-246
106
-93
-376
1
87
-456
-324
74
-251
-271
194
-21
-341
58
110
-317
-13
415
146
109
372
119
-156
190
163
-315
-191
58
-322
-428
-34
-243
-447
-64
-106
-491
-292
-9
-495
-719
305
1148
1998
3991
4908
3622
2492
1898
742
427
759
201
-378
-157
-78
-550
-425
-101
-573
-594
-134
-439
-665
-270
-211
-604
-433
-70
-542
-637
-130
-320
-540
-184
-184
-555
-377
-10
-350
-547
-53
-84
-526
-181
91
-345
-154
199
-280
-337
246
130
-237
62
218
-79
85
416
89
-100
377
325
-55
311
374
-60
51
334
-134
-279
285
-86
-526
-39
49
-442
-316
40
-365
-482
28
-122
-465
-106
-9
-426
-269
41
-410
-513
22
-181
-474
-104
-40
-401
-178
88
-405
-328
58
-211
-327
20
72
-367
-262
104
-271
-279
191
-170
-530
-75
35
-353
-186
82
-285
-344
87
-157
-520
-146
43
-347
-301
26
-310
-410
87
-94
-529
-104
105
-422
-366
24
-297
-381
128
-152
-519
-45
-30
-486
-143
124
-446
-389
102
-110
-307
113
194
-266
-133
285
51
-96
246
218
0
232
277
-200
-144
324
-120
-471
70
-192
-650
-103
23
-510
-329
87
-393
-558
-9
-351
-725
379
1659
2674
4234
4781
3234
1859
1522
812
316
355
40
-422
-322
-35
-487
-664
-189
-345
-680
-396
-202
-563
-515
-199
-473
-546
-331
-415
-550
-221
-74
-535
-409
-35
-386
-473
-91
-238
-471
-78
51
-419
-313
134
-175
-335
198
27
-391
165
345
-197
-8
437
80
-21
443
275
46
403
425
47
178
435
61
-99
306
72
-292
87
19
-467
-233
183
-151
-563
-112
-34
-484
-155
-20
-434
-282
37
-338
-490
9
-105
-440
-49
12
-390
-190
122
-274
-326
91
-135
-314
61
91
-334
-106
140
-361
-369
92
-78
-414
-85
76
-308
-191
30
-334
-418
-80
-34
-324
-110
-36
-459
-261
-54
-348
-358
7
-138
-466
-68
22
-498
-266
90
-365
-406
45
-193
-491
-44
8
-526
-317
156
-197
-350
152
-95
-358
166
259
-105
13
342
85
-43
337
135
-327
23
119
-434
-342
-93
-461
-401
118
-158
-511
-87
-107
-573
-343
-75
-567
-358
1104
2291
3459
4701
4115
2334
1552
1195
484
146
185
-71
-430
-216
-82
-593
-452
-98
-543
-573
-147
-343
-685
-271
-175
-564
-353
-69
-342
-476
-66
-246
-706
-244
-4
-483
-370
57
-362
-498
45
-188
-395
78
-42
-441
-51
269
-151
-240
267
149
-166
229
380
-84
24
379
26
-12
495
366
-27
366
413
-297
-20
417
-242
-306
241
-90
-465
-1
114
-404
-314
58
-284
-446
60
-96
-574
-139
96
-462
-352
74
-294
-395
83
-121
-376
-153
-105
-256
-186
115
-172
-386
24
-33
-405
-83
82
-332
-212
120
-80
-282
-9
-36
-420
-79
102
-446
-331
76
-203
-368
-112
-162
-505
-221
104
-365
-308
48
-260
-399
-79
-128
-439
-135
-9
-431
-311
-17
-321
-427
28
-95
-505
-121
65
-339
-198
87
-300
-362
79
-12
-292
39
214
-257
-129
286
-5
-64
347
271
72
323
313
-40
17
285
-100
-434
24
-46
-467
-68
10
-496
-249
142
-321
-445
122
-220
-783
188
1425
2312
3930
4902
3872
2519
1881
1000
430
604
299
-243
-244
-77
-334
-493
-167
-360
-612
-273
-243
-540
-356
-97
-454
-549
-132
-299
-534
-260
-226
-486
-411
-52
-306
-554
-120
-128
-512
-158
94
-341
-233
183
-96
-288
89
51
-247
133
322
-181
13
476
30
-42
483
298
-3
428
555
-91
91
688
213
-16
382
137
-224
14
92
-256
-141
132
-178
-327
-24
-186
-413
104
98
-424
-219
126
-190
-349
36
-131
-427
-42
65
-318
-186
136
-270
-460
68
18
-358
-62
65
-320
-143
177
-232
-258
197
-27
-378
10
190
-267
-138
140
-162
-248
23
-78
-377
-47
161
-321
-231
202
-177
-416
35
33
-301
-4
133
-351
-247
134
-245
-351
86
-117
-402
-66
58
-247
-124
129
-244
-334
114
25
-365
82
205
-411
-168
246
-96
-226
256
183
-190
128
266
-55
172
632
204
18
491
269
-60
236
262
-301
-286
119
-204
-298
181
-73
-479
-17
128
-370
-199
37
-558
-230
1538
2892
3960
4904
4169
2381
1546
1246
537
245
407
54
-332
-84
-89
-485
-346
-70
-467
-680
-141
-149
-564
-259
-111
-576
-425
64
-260
-379
0
-292
-618
-159
72
-377
-293
122
-210
-357
153
59
-393
-31
180
-249
8
360
-132
-180
340
278
-108
210
551
39
86
587
233
169
596
367
113
427
412
-63
115
404
1
-176
252
50
-445
48
245
-248
-123
165
-214
-341
115
13
-328
2
122
-338
-218
189
-132
-286
106
15
-284
-39
174
-197
-129
239
-212
-318
172
-2
-325
-20
137
-246
-163
209
-162
-322
154
-58
-442
57
251
-286
-245
124
-119
-297
147
116
-303
2
141
-286
-78
218
-203
-284
201
50
-383
55
224
-264
-84
126
-258
-255
218
30
-369
33
204
-222
-51
314
-117
-121
322
137
-38
164
327
117
234
614
233
-31
393
321
-162
82
158
-395
-257
169
-175
-436
3
-46
-504
-218
75
-299
-318
-82
-140
611
2474
3977
4472
4107
2858
1474
1052
1045
346
-11
128
-189
-448
-132
-113
-607
-398
-34
-476
-582
-108
-226
-543
-302
-68
-423
-391
84
-293
-521
-98
-215
-442
-20
56
-517
-318
157
-304
-373
178
19
-233
99
141
-272
-32
422
80
-86
228
177
47
331
441
126
262
523
106
69
548
290
-22
352
371
-75
14
260
-50
-232
43
-31
-281
37
56
-446
-298
76
-238
-360
73
-45
-418
-141
7
-342
-217
100
-235
-306
141
-36
-424
-51
183
-293
-161
345
-37
-382
45
-39
-413
129
156
-450
-151
219
-223
-375
118
-49
-456
-25
121
-413
-304
113
-163
-258
100
-102
-508
-137
29
-408
-202
57
-286
-413
-108
-92
-432
-176
-32
-436
-280
-33
-314
-414
-58
-99
-387
-79
-73
-489
-152
164
-267
-280
254
116
-418
-92
256
-120
60
486
96
-104
283
68
-245
133
91
-459
-268
77
-251
-405
-75
-219
-596
-285
-54
-395
-326
-94
-545
-404
934
2169
3340
4621
4298
2617
1715
1257
475
220
421
-5
-498
-158
-180
-652
-345
-74
-584
-722
-284
-288
-620
-384
-193
-588
-439
-131
-484
-539
-89
-256
-596
-250
-132
-499
-243
158
-306
-517
38
-48
-478
-18
164
-273
-100
241
-56
-97
368
127
-191
288
376
-82
133
548
185
72
498
325
-54
296
477
9
70
319
12
-175
69
12
-354
-55
118
-412
-274
208
-247
-457
113
-79
-522
-37
127
-440
-276
110
-320
-446
13
-127
-467
-91
147
-309
-271
210
-140
-398
18
-136
-386
45
151
-235
-156
87
-234
-331
111
-37
-377
-28
33
-341
-110
143
-261
-373
89
-80
-428
-51
61
-368
-288
77
-217
-356
-1
-179
-467
-105
53
-297
-277
-3
-309
-416
104
-40
-493
-205
16
-441
-370
70
-243
-323
95
-73
-425
-92
50
-471
-211
332
-53
-212
245
168
-242
64
377
62
172
476
57
-53
317
55
-326
-50
-35
-461
-260
135
-276
-483
-28
-146
-447
-66
89
-608
-546
517
1123
2464
4439
4603
3432
2634
1771
534
473
841
-110
-583
-36
-265
-651
-327
-305
-636
-467
-182
-416
-589
-338
-356
-590
-477
-200
-521
-551
-26
-380
-647
-252
-322
-626
-304
-80
-527
-423
20
-367
-547
-8
-67
-344
9
17
-393
-160
230
-94
-282
280
309
-78
261
405
-28
15
388
148
-32
399
248
-139
273
374
-226
-161
211
-199
-357
127
-119
-580
-89
87
-456
-312
41
-332
-421
55
-217
-590
-48
30
-472
-270
33
-409
-499
60
-65
-555
-251
-27
-446
-258
132
-342
-418
3
-199
-453
-80
92
-351
-279
46
-321
-467
10
-49
-406
-180
7
-364
-374
108
-263
-676
-75
-73
-535
-40
64
-545
-359
69
-236
-367
-33
-191
-480
-141
-9
-507
-365
80
-328
-514
-60
-165
-540
-116
89
-484
-389
84
-337
-566
2
-99
-478
5
234
-258
-124
214
-154
-180
304
145
-118
300
260
-234
14
370
-83
-399
-34
-153
-554
-259
-86
-465
-368
-81
-367
-460
-100
-198
-709
-357
483
1131
2696
4547
4426
3175
2460
1374
457
730
553
-276
-284
-89
-499
-597
-225
-347
-706
-397
-222
-603
-415
-151
-571
-650
-183
-322
-665
-332
-267
-658
-385
9
-420
-583
-133
-250
-476
-84
-7
-444
-233
155
-217
-324
43
6
-277
42
348
-67
-16
324
-21
-47
432
255
11
337
409
55
179
515
114
-103
327
152
-233
83
125
-325
-169
109
-248
-338
49
-113
-435
-177
11
-303
-255
114
-249
-438
38
-12
-378
-136
99
-333
-313
100
-243
-400
115
16
-387
-2
133
-300
-130
140
-232
-300
131
17
-325
-5
201
-222
-218
156
-185
-362
227
68
-431
-3
196
-345
-239
253
-154
-420
47
19
-341
-77
123
-357
-230
182
-286
-412
95
17
-309
-1
139
-261
-87
124
-262
-168
307
112
-250
113
321
-96
57
478
192
114
567
329
-158
276
336
-268
-122
56
-301
-321
73
-111
-501
-100
56
-417
-282
124
-234
-529
-151
264
1100
3099
4538
4200
3363
2573
1292
503
799
411
-261
15
64
-451
-380
-46
-441
-593
-68
-304
-724
-173
-15
-541
-414
-64
-405
-514
-44
-195
-612
-147
35
-511
-354
9
-286
-301
113
-64
-323
32
95
-305
-177
237
-54
-159
312
132
-82
281
325
89
240
503
252
142
574
357
32
431
468
93
215
481
106
-102
267
59
-338
28
59
-375
-118
98
-310
-311
105
-72
-418
-101
12
-371
-169
161
-210
-366
97
26
-392
-5
169
-311
-179
218
-175
-391
142
33
-363
97
97
-479
-106
288
-198
-266
172
-94
-398
-35
117
-252
-241
76
-144
-320
-30
-127
-393
-6
131
-264
-225
108
-128
-356
60
-81
-513
22
175
-427
-137
212
-249
-291
117
-80
-361
25
54
-408
-178
294
-21
-263
231
121
-238
242
336
-37
133
367
15
-129
203
-67
-403
-122
-68
-462
-410
-40
-284
-420
-26
-200
-571
-211
-208
-671
-197
871
1876
3404
4764
4160
2615
1930
1188
298
361
406
-252
-417
-63
-335
-753
-377
-184
-674
-529
-113
-520
-638
-225
-341
-630
-345
-176
-572
-426
10
-452
-566
-109
-366
-591
-233
-138
-440
-279
-29
-480
-485
84
-124
-389
-31
49
-300
-138
244
-42
-137
271
122
-181
257
354
-43
221
419
26
42
425
60
-246
244
263
-321
-181
207
-333
-464
113
-140
-538
-105
-26
-473
-244
42
-372
-396
37
-182
-467
-153
-187
-612
-358
105
-262
-465
-56
-178
-396
-175
-159
-370
-221
29
-207
-356
-144
-234
-410
-96
-68
-413
-224
45
-297
-433
2
-152
-526
-75
30
-412
-297
22
-211
-463
-47
-121
-611
-173
-55
-531
-298
63
-286
-465
-64
-143
-458
-203
-35
-385
-303
67
-271
-537
-143
-163
-442
-121
-50
-483
-277
192
-208
-388
165
68
-251
65
81
-257
53
372
78
106
394
127
-239
9
149
-218
-298
-99
-250
-366
-11
-184
-585
-200
-47
-506
-298
61
-652
-716
624
1602
2697
4427
4583
3195
2317
1578
571
367
514
-3
-457
-214
-197
-637
-524
-188
-579
-678
-240
-485
-734
-334
-290
-694
-533
-201
-583
-591
-90
-417
-662
-174
-126
-623
-472
-63
-485
-537
6
-219
-539
-109
-70
-537
-252
215
-229
-305
243
16
-230
194
285
-118
37
427
71
-20
530
363
-39
375
411
-56
160
278
-233
-180
225
-161
-455
-24
-62
-564
-311
21
-367
-491
-67
-212
-548
-56
-103
-591
-244
-6
-374
-381
-57
-315
-498
-63
-113
-508
-237
48
-289
-396
-5
-105
-392
-6
63
-337
-110
132
-339
-372
250
-123
-516
72
71
-413
-197
133
-302
-418
70
-148
-447
-9
-53
-519
-205
130
-250
-273
86
-87
-409
-176
-115
-491
-179
151
-323
-365
77
-168
-456
-124
-63
-395
-135
87
-365
-280
134
39
-206
63
177
-311
-25
454
-18
-114
397
190
-93
297
238
-293
-96
111
-327
-279
63
-227
-474
-123
-160
-531
-259
-14
-373
-419
-147
-244
155
1805
3487
4310
4403
3445
1919
1015
885
482
-56
130
6
-583
-377
-143
-548
-529
-240
-426
-583
-231
-292
-679
-399
-162
-526
-542
-188
-353
-565
-298
-202
-522
-361
-18
-446
-514
13
-191
-526
-92
-63
-395
-9
116
-325
-229
208
-10
-201
177
185
-55
224
449
59
59
496
205
-72
507
532
-63
135
423
-65
-186
183
-32
-286
-14
-23
-353
-200
101
-287
-450
7
-229
-450
2
-27
-429
-355
-83
-251
-292
107
-160
-469
74
2
-553
-228
73
-325
-336
107
-11
-341
-48
36
-365
-166
194
-233
-343
146
-119
-389
71
51
-376
-218
88
-216
-398
97
-58
-418
45
-59
-570
-222
82
-337
-371
28
-145
-444
-56
0
-553
-280
176
-304
-352
127
-213
-482
-20
111
-257
-112
148
-213
-104
344
41
-237
195
378
37
167
384
-73
-170
237
-115
-447
-43
-81
-408
-282
-108
-404
-444
27
-208
-452
-70
-311
-597
412
1924
3071
4314
4655
3134
1742
1346
945
373
196
151
-345
-421
-55
-293
-512
-159
-251
-651
-411
-204
-498
-489
-142
-323
-544
-122
-145
-524
-336
-169
-407
-370
6
-272
-572
-101
-65
-454
-224
28
-277
-230
131
-109
-344
145
201
-156
157
265
-115
20
456
156
-57
386
279
-39
313
526
126
54
473
269
-253
135
192
-366
-69
177
-351
-342
60
-214
-490
-62
58
-308
-177
-49
-319
-270
61
-194
-447
-34
-27
-395
-191
-26
-366
-326
1
-266
-479
-24
30
-434
-201
84
-386
-352
113
-250
-513
0
-72
-480
-134
63
-389
-381
63
-230
-501
-68
-100
-466
-255
-64
-415
-389
-31
-309
-541
-156
-89
-529
-364
-102
-443
-336
-6
-304
-519
-75
-65
-573
-324
-36
-484
-430
-8
-314
-490
63
111
-388
-137
179
-237
-156
291
48
-128
246
128
-343
-15
190
-401
-440
-69
-354
-619
-209
-129
-587
-368
5
-394
-529
-121
-442
-848
-10
1029
1981
3740
4783
3752
2531
1881
739
173
557
110
-569
-226
-129
-733
-688
-271
-575
-759
-337
-465
-886
-508
-338
-763
-629
-343
-558
-602
-223
-386
-831
-363
-61
-619
-582
-140
-414
-573
-133
-204
-601
-296
-34
-435
-373
104
-178
-415
185
126
-462
64
376
-149
-41
352
12
-143
375
300
-80
222
360
-180
-141
317
22
-256
151
-2
-601
-279
87
-334
-332
71
-274
-494
-18
-107
-497
-178
-58
-403
-310
-14
-219
-408
-165
-242
-498
-185
29
-409
-354
86
-218
-454
-26
-90
-500
-168
121
-303
-327
-3
-203
-386
-158
-120
-431
-208
-7
-419
-303
108
-196
-432
-24
2
-485
-349
-36
-413
-384
72
-265
-506
-37
-125
-548
-224
58
-378
-356
107
-284
-545
-49
-155
-527
-202
73
-374
-401
106
-221
-448
68
31
-346
-77
173
-205
-167
335
129
-138
392
439
-108
188
410
-202
-219
181
-178
-504
-37
-58
-528
-220
18
-373
-358
-46
-312
-422
-136
-314
-161
1219
2767
3855
4546
4046
2569
1517
1178
739
229
195
-10
-349
-187
-125
-556
-582
-63
-275
-781
-395
-147
-560
-482
-71
-322
-605
-166
-214
-553
-238
-119
-463
-351
31
-259
-471
-79
-219
-537
3
37
-489
-108
210
-238
-245
309
184
-195
230
426
-45
75
549
332
119
457
430
61
398
589
66
152
534
182
-54
343
194
-271
31
208
-259
-253
217
-56
-386
78
-3
-384
6
199
-262
-279
153
-134
-318
189
-17
-429
20
180
-339
-225
239
-76
-308
92
48
-263
105
186
-293
-90
261
-102
-240
140
-39
-356
49
203
-245
-143
202
-159
-309
185
70
-370
-28
248
-159
-153
225
-146
-427
-18
-45
-310
-4
185
-226
-166
267
-147
-413
138
32
-360
47
194
-320
-238
219
-181
-360
231
146
-189
222
348
-176
-57
399
135
0
465
411
-2
216
325
-121
8
255
-251
-377
126
-31
-439
-68
33
-460
-290
126
-256
-349
-38
-328
-63
1444
3028
4029
4500
3746
2142
1245
1117
732
112
124
87
-399
-349
-65
-437
-586
-110
-253
-639
-282
-130
-561
-456
-99
-401
-428
-37
-356
-638
-166
-50
-448
-265
50
-313
-403
86
-90
-552
-47
162
-366
-174
116
-156
-147
266
173
-135
295
410
-131
125
542
145
70
458
424
133
356
540
123
197
479
42
-98
315
84
-334
46
144
-364
-164
234
-223
-363
149
-104
-490
-121
55
-315
-248
24
-344
-328
159
-44
-445
-68
55
-460
-173
298
-93
-279
105
-8
-376
-28
194
-186
-166
81
-151
-248
121
8
-390
-49
105
-337
-126
192
-193
-290
121
-57
-402
-32
112
-308
-221
83
-274
-470
6
-59
-461
-31
99
-457
-236
200
-243
-419
58
-20
-342
-96
50
-317
-210
186
-87
-177
249
92
-253
242
393
-87
230
558
88
-7
366
177
-209
82
242
-317
-310
199
-188
-502
48
-59
-407
4
39
-308
-290
-163
1
903
2612
3947
4354
3934
2850
1486
785
881
390
-177
139
-37
-541
-210
-35
-503
-494
-72
-421
-611
-59
-285
-625
-158
-109
-530
-361
-20
-365
-476
-110
-327
-463
-17
37
-348
-203
96
-342
-492
39
-27
-315
67
140
-228
-11
307
58
-28
328
200
-50
438
551
71
174
490
186
174
655
413
17
440
404
-165
107
394
-39
-186
238
83
-359
-10
124
-233
-142
88
-219
-322
154
-9
-336
68
131
-266
-126
131
-201
-219
140
-126
-296
171
233
-330
-141
309
-144
-274
178
-29
-354
114
193
-306
-9
335
-268
-345
221
-11
-254
68
46
-277
-100
221
-202
-278
263
-71
-412
162
174
-353
-120
130
-227
-263
86
-21
-252
20
70
-302
-167
232
-212
-350
226
-39
-364
86
138
-328
-69
230
-212
-214
262
147
-151
193
264
-154
74
490
146
168
682
162
-138
434
263
-197
66
158
-288
-212
227
-113
-408
56
53
-332
-146
129
-282
-532
-43
412
1286
3275
4651
4242
3510
2800
1453
713
950
507
-167
-7
-14
-483
-338
-64
-546
-532
-52
-344
-626
-243
-226
-585
-313
-62
-461
-455
41
-154
-583
-234
-202
-526
-179
-53
-351
-308
22
-84
-391
-39
83
-351
-138
271
-102
-154
308
85
-196
210
360
-60
142
459
114
185
462
212
120
541
464
50
276
406
-59
-92
270
-56
-286
140
73
-356
-62
200
-343
-372
133
-50
-359
-62
-4
-385
-138
127
-309
-350
96
-56
-320
16
30
-408
-190
60
-344
-310
147
-90
-358
62
140
-293
-157
106
-323
-271
223
-71
-407
77
105
-377
-111
103
-210
-167
159
-99
-462
-76
67
-305
-113
157
-351
-523
106
4
-399
-27
-39
-411
-97
117
-334
-336
83
-256
-455
109
-9
-456
-136
30
-313
-241
154
-28
-262
217
177
-261
97
315
-2
121
379
87
179
637
332
-128
169
360
-91
-144
102
-246
-355
69
-114
-434
-114
-2
-335
-265
86
-204
-585
-46
805
1667
3335
4766
4267
3069
2320
1187
441
710
361
-418
-246
3
-417
-475
-107
-379
-640
-280
-324
-733
-450
-112
-553
-592
-139
-363
-582
-188
-226
-599
-306
-38
-439
-437
40
-217
-469
30
-84
-521
-90
127
-282
-175
203
-98
-359
189
310
-128
157
424
-32
54
522
213
1
533
543
87
356
508
80
132
380
59
-179
170
131
-343
-182
62
-306
-312
143
-97
-409
-18
-16
-378
-89
66
-288
-274
-7
-118
-456
-140
72
-377
-123
216
-288
-308
113
-179
-410
-36
-27
-422
-188
189
-227
-327
115
-81
-344
35
-9
-488
-145
166
-447
-390
125
-222
-388
67
-37
-468
-147
31
-364
-264
47
-168
-408
-89
-56
-510
-215
140
-251
-226
81
-220
-339
44
-10
-312
-91
140
-319
-391
184
-29
-270
215
141
-288
84
431
17
14
561
203
-160
359
185
-164
165
168
-261
-281
35
-232
-421
27
-128
-516
-121
99
-370
-327
-11
-503
-163
1444
2708
3828
4659
3986
2331
1419
1187
540
100
216
-25
-448
-243
-40
-507
-482
-85
-405
-625
-185
-197
-628
-318
-93
-607
-488
-87
-375
-546
-156
-130
-593
-367
-43
-460
-383
57
-281
-424
19
-14
-385
-68
218
-328
-315
240
-42
-269
266
296
-189
72
428
66
91
466
248
19
437
445
-60
307
485
-132
-68
296
-23
-338
8
50
-346
-101
35
-450
-396
20
-217
-405
24
-91
-490
-193
-61
-444
-430
-4
-224
-451
56
-22
-481
-190
87
-306
-261
118
-213
-376
76
38
-382
-93
110
-346
-274
77
-182
-394
6
-49
-513
-109
131
-407
-395
46
-244
-423
103
-34
-570
-249
-15
-439
-296
111
-240
-480
-100
-159
-501
-177
55
-392
-425
39
-170
-465
-12
-30
-482
-174
73
-422
-292
198
-150
-277
73
17
-192
92
312
-50
-23
334
11
-177
295
85
-442
-135
2
-469
-354
29
-327
-516
-105
-224
-562
-130
-73
-781
-637
240
891
2106
4063
4644
3418
2590
1891
663
462
603
-86
-366
-11
-292
-685
-291
-235
-748
-559
-216
-570
-596
-199
-408
-753
-386
-249
-625
-477
-216
-484
-588
-184
-162
-610
-361
-95
-557
-436
5
-385
-526
29
-148
-572
-50
178
-368
-190
266
-47
-134
375
216
-167
226
373
34
164
450
166
36
461
338
-128
136
231
-223
-47
169
-418
-391
233
-80
-500
-110
16
-400
-351
-23
-322
-486
-105
-172
-498
-263
-96
-552
-403
6
-378
-485
1
-195
-554
-98
-71
-426
-238
42
-216
-336
22
-138
-453
-114
97
-276
-271
75
-227
-415
-8
-169
-405
3
74
-423
-398
21
-280
-452
-11
-183
-484
-47
-17
-453
-240
29
-402
-559
-70
-148
-605
-159
168
-431
-432
-86
-443
-401
5
-308
-526
-83
-33
-458
-254
84
-386
-472
57
-157
-592
-218
89
-340
-264
145
-240
-323
118
-90
-344
221
394
-111
125
513
-10
-192
358
114
-404
-7
42
-475
-344
-57
-365
-502
-214
-301
-475
-129
-99
-572
-537
-88
412
1551
3423
4512
4139
3391
2403
991
542
811
112
-397
-13
-257
-534
-228
-324
-637
-469
-215
-540
-648
-231
-424
-739
-331
-259
-724
-518
-196
-594
-661
-111
-256
-609
-253
-207
-594
-503
-88
-294
-415
43
-125
-412
12
63
-380
-107
255
-197
-308
249
186
-145
223
355
-74
112
524
175
29
516
313
-115
277
322
-195
-55
155
-288
-296
99
-148
-487
-113
17
-447
-265
83
-368
-474
5
-144
-433
-136
-118
-434
-203
16
-422
-500
-107
-186
-393
-58
33
-383
-223
110
-267
-416
43
-58
-442
-64
74
-422
-202
228
-169
-388
14
-156
-512
-52
105
-417
-298
97
-241
-381
11
-119
-441
-125
-71
-494
-257
110
-311
-427
34
-151
-451
-121
-51
-414
-229
86
-302
-384
106
-140
-442
-27
5
-371
-234
17
-316
-304
171
-35
-348
92
167
-263
114
456
-46
-14
495
231
-105
315
261
-264
11
162
-341
-280
73
-207
-437
-176
-124
-379
-206
114
-222
-526
-192
253
942
2732
4417
4477
3743
2737
1443
773
929
516
-185
30
27
-493
-340
-32
-452
-640
-143
-259
-668
-263
-38
-588
-529
-89
-398
-411
-5
-266
-589
-209
-107
-505
-241
86
-357
-417
59
-105
-310
23
-2
-353
-89
252
-86
-118
253
100
-80
390
465
-7
274
596
119
59
512
372
118
478
505
110
244
395
35
-42
292
1
-277
89
64
-325
-226
89
-163
-247
96
-143
-405
4
48
-389
-194
138
-239
-313
124
-46
-312
58
86
-387
-204
190
-187
-344
131
-5
-308
85
46
-351
-34
152
-303
-254
184
-133
-430
69
99
-380
-130
176
-265
-298
125
-136
-410
-3
35
-396
-173
92
-245
-195
138
-69
-372
20
179
-426
-252
144
-269
-353
-46
-220
-379
49
43
-354
-33
265
-163
-204
240
23
-265
243
424
-31
142
367
-135
-173
295
15
-452
-77
-1
-510
-268
47
-424
-501
-50
-226
-467
-16
-20
-694
-297
884
1783
3319
4731
4207
2788
2015
1202
484
545
360
-277
-361
-14
-326
-684
-232
-155
-656
-498
-101
-545
-676
-113
-322
-633
-225
-233
-565
-372
-166
-407
-483
-67
-213
-565
-109
-46
-562
-327
31
-311
-291
123
-118
-362
42
110
-186
60
311
-81
-129
388
239
-98
310
420
44
325
609
175
95
465
187
-149
308
370
-234
-84
257
-231
-332
85
-194
-494
-20
-12
-473
-190
71
-385
-410
63
-295
-574
-12
-94
-579
-229
49
-363
-357
60
-115
-452
-77
50
-560
-357
194
-209
-342
89
-186
-463
54
22
-415
-180
90
-240
-353
18
-190
-462
-53
-74
-487
-166
54
-473
-423
85
-383
-663
73
-1
-598
-188
28
-489
-390
36
-235
-549
-164
-124
-495
-207
-8
-435
-371
-54
-256
-365
-32
69
-307
-101
287
-100
-36
476
94
-185
290
257
-248
-99
58
-412
-380
12
-262
-529
-171
-205
-519
-306
-118
-369
-369
-188
-488
-206
1273
2780
3861
4532
3891
2359
1416
945
396
83
155
-70
-533
-305
-169
-729
-651
-173
-516
-813
-229
-213
-839
-461
-218
-734
-556
-129
-484
-647
-170
-328
-617
-263
-199
-500
-363
-144
-411
-490
-168
-200
-503
-195
105
-420
-374
235
-57
-315
186
150
-295
29
325
-88
-40
449
151
-157
306
300
-99
103
246
-218
-241
249
-51
-410
22
-124
-717
-345
105
-346
-364
62
-273
-522
-57
-148
-655
-280
-47
-506
-382
-6
-343
-553
-166
-130
-470
-292
-71
-375
-297
39
-296
-525
-143
-95
-410
-253
16
-395
-450
16
-282
-538
-121
-121
-438
-169
45
-385
-354
30
-288
-553
-53
16
-582
-308
50
-452
-518
-135
-322
-516
-50
-136
-683
-279
62
-416
-457
34
-185
-502
-11
-48
-567
-267
-38
-530
-393
23
-295
-457
-51
-48
-412
-172
26
-317
-226
242
48
-226
225
318
-111
73
205
-328
-232
164
-190
-501
-170
-172
-586
-329
-81
-528
-497
-60
-376
-525
-107
-386
-520
807
2337
3330
4323
4343
2830
1526
1268
796
136
142
134
-398
-581
-198
-430
-780
-345
-322
-730
-540
-350
-656
-607
-241
-531
-800
-308
-284
-680
-365
-128
-542
-537
-107
-424
-630
-54
-194
-606
-162
10
-427
-361
123
-133
-417
57
110
-263
15
284
-168
-48
464
178
-127
318
401
-8
211
457
147
86
443
157
-247
278
200
-459
-88
165
-363
-298
95
-191
-372
13
-105
-522
-255
38
-297
-316
43
-298
-542
10
-50
-533
-145
30
-437
-315
89
-261
-510
-27
45
-312
-90
36
-341
-187
135
-102
-350
42
161
-341
-199
61
-294
-197
170
-147
-328
62
0
-426
-87
208
-379
-320
146
-258
-333
97
-125
-425
-18
130
-424
-318
80
-253
-287
17
-168
-407
-91
84
-344
-228
194
-182
-311
210
55
-296
88
266
-48
74
444
226
-2
283
284
-73
81
289
-227
-373
128
-91
-433
-10
-70
-487
-190
-34
-421
-152
163
-470
-363
1020
2211
3385
4793
4486
2584
1629
1346
648
270
375
87
-437
-238
-38
-548
-487
-34
-311
-496
-188
-313
-574
-253
-117
-501
-453
-25
-293
-528
-181
-267
-540
-253
-48
-435
-367
9
-291
-341
107
1
-360
-136
108
-238
-210
188
-50
-216
229
205
-120
185
333
10
130
470
184
38
545
403
-12
325
415
-20
38
309
-34
-286
105
-37
-511
-68
193
-389
-326
224
-141
-499
-54
-120
-533
-94
125
-400
-294
158
-179
-350
39
-194
-454
45
202
-265
-246
160
-15
-257
120
49
-339
-6
109
-299
-172
153
-221
-375
160
54
-340
15
171
-338
-254
125
-200
-310
143
16
-405
-61
92
-409
-271
223
-133
-370
94
-23
-466
-190
7
-352
-233
220
-142
-428
114
45
-396
12
277
-246
-79
438
19
-89
491
378
-109
173
403
-70
-113
204
-158
-486
-59
-50
-515
-232
87
-301
-367
-47
-265
-384
-120
-341
-316
906
2392
3480
4458
4314
2659
1432
1153
673
155
231
204
-423
-413
-39
-465
-600
-114
-283
-708
-311
-168
-651
-460
-77
-399
-568
-184
-198
-552
-305
-93
-507
-432
9
-266
-492
-66
-42
-422
-180
71
-284
-151
217
-126
-242
228
155
-232
116
310
-124
85
406
106
70
409
303
-4
312
483
57
51
440
238
-10
268
109
-287
-54
135
-289
-306
116
-238
-447
78
-38
-520
-128
103
-409
-282
173
-183
-436
-31
-70
-364
-77
36
-418
-299
151
-200
-404
88
10
-360
1
188
-259
-198
130
-212
-321
152
-24
-467
-16
223
-352
-217
214
-171
-392
48
-40
-413
6
109
-397
-214
114
-239
-305
126
-53
-473
-131
150
-306
-312
103
-220
-381
44
37
-289
-120
71
-308
-254
181
-83
-297
204
186
-239
192
388
-87
162
437
1
-16
356
194
-221
-167
41
-281
-215
154
-304
-512
-53
-166
-550
-228
12
-388
-553
-78
498
1484
3296
4483
4212
3494
2448
992
628
856
94
-355
-1
-270
-618
-190
-20
-536
-590
-169
-441
-659
-171
-294
-758
-338
-113
-667
-557
-46
-388
-590
-90
-223
-630
-246
-42
-482
-345
30
-353
-455
12
-166
-488
-49
4
-434
-135
221
-18
-173
189
281
-148
230
445
-50
173
475
158
101
448
250
-31
242
219
-143
-98
152
-164
-301
126
-77
-449
-65
116
-431
-353
89
-311
-399
-10
-206
-485
-137
22
-464
-308
61
-319
-373
67
-74
-465
-175
63
-298
-257
92
-214
-362
47
-50
-425
-139
105
-282
-332
15
-169
-298
122
-99
-450
-58
-22
-317
-208
-28
-199
-322
100
75
-403
-35
174
-437
-327
120
-262
-375
84
-19
-419
-155
41
-420
-289
97
-246
-291
39
-168
-445
-126
-28
-371
-240
50
-191
-267
179
62
-253
59
133
-215
-30
364
58
16
444
37
-239
237
177
-311
-238
73
-255
-498
-102
-95
-445
-204
-128
-499
-267
95
-452
-716
302
1209
2236
4139
4866
3615
2424
1834
893
416
620
182
-318
-126
-94
-499
-533
-201
-375
-561
-257
-340
-568
-190
-59
-602
-503
-47
-421
-612
-148
-251
-607
-214
-98
-564
-408
-71
-487
-480
112
-90
-409
-5
137
-331
-249
135
-135
-188
259
160
-219
162
431
23
138
414
148
146
558
442
97
403
499
52
118
374
-114
-306
209
90
-299
25
107
-412
-223
167
-233
-322
122
-79
-426
-82
133
-221
-251
88
-164
-358
89
-131
-490
26
138
-306
-176
189
-150
-377
80
63
-291
-7
167
-240
-214
170
-116
-335
171
91
-389
-64
165
-275
-136
179
-309
-293
198
-72
-360
12
88
-275
-121
176
-135
-305
108
-60
-450
-22
93
-372
-224
156
-202
-356
108
25
-254
85
276
-128
-40
316
-63
-112
411
220
-104
410
490
-79
24
294
-120
-267
125
-70
-453
-126
-60
-415
-222
39
-267
-391
39
-65
-480
-312
66
674
2266
4127
4559
3730
2869
1702
623
820
655
-256
-162
129
-386
-588
-11
-209
-660
-194
-213
-618
-412
-143
-440
-503
-93
-328
-581
-134
-170
-624
-338
-90
-459
-426
19
-157
-499
-133
28
-359
-237
112
-260
-325
194
10
-311
158
308
-183
23
454
145
-6
375
315
35
381
503
118
180
443
167
44
481
193
-207
200
119
-276
-23
140
-225
-292
-35
-85
-256
-68
62
-273
-233
52
-226
-316
52
-47
-423
-136
93
-277
-162
119
-264
-292
169
-31
-372
-24
134
-313
-138
259
-198
-305
196
-17
-426
12
177
-279
-143
122
-191
-273
155
31
-380
-115
66
-277
-163
60
-176
-140
64
-99
-360
-39
59
-421
-235
181
-175
-343
113
-74
-466
1
75
-366
-50
251
-176
-193
398
283
-112
320
488
-4
117
411
-27
-169
272
34
-421
-87
115
-378
-363
-12
-338
-408
-48
-202
-437
-84
-228
-594
447
2001
3168
4242
4425
3123
1763
1274
830
261
211
250
-297
-518
-128
-293
-627
-274
-197
-656
-453
-60
-503
-690
-214
-355
-704
-381
-153
-396
-339
-151
-424
-439
-157
-345
-572
-190
-43
-365
-228
2
-264
-306
32
-63
-274
75
266
-162
-120
263
24
-18
361
212
1
334
382
12
265
570
79
2
465
242
-236
97
333
-206
-169
161
-215
-295
51
-172
-455
-155
-2
-313
-262
115
-216
-433
27
-117
-456
-70
60
-491
-291
183
-190
-368
32
-37
-456
9
197
-343
-108
178
-226
-288
148
-3
-302
70
67
-368
-238
101
-174
-282
130
-144
-464
-17
23
-393
-175
137
-185
-353
-65
-190
-369
-14
54
-382
-308
40
-304
-411
79
-61
-449
-76
45
-453
-227
146
-447
-512
112
-105
-315
65
94
-231
-96
191
-117
-188
305
192
-47
397
360
-146
10
255
-132
-291
-32
-231
-536
-131
3
-478
-220
122
-424
-599
-44
-98
-592
-306
385
1093
2622
4360
4451
3472
2797
1673
578
790
639
-335
-269
115
-449
-585
-76
-347
-667
-263
-233
-647
-490
-195
-512
-542
-174
-350
-627
-352
-158
-581
-470
-98
-480
-522
-89
-185
-520
-252
-135
-516
-297
10
-298
-337
28
-143
-362
75
76
-321
-25
326
-18
-149
338
255
-185
166
408
27
217
552
54
-133
362
153
-260
83
65
-319
-167
2
-308
-300
-13
-345
-507
-45
-40
-448
-303
-23
-337
-414
-44
-258
-487
-120
-59
-444
-353
16
-319
-482
-39
-178
-490
-113
-29
-485
-275
17
-353
-427
-17
-119
-445
-111
-3
-431
-270
43
-287
-322
23
-271
-549
-75
-41
-447
-217
8
-243
-368
-114
-72
-366
-147
15
-357
-247
-21
-316
-330
66
-60
-461
-88
49
-477
-268
73
-296
-403
-31
-133
-408
-37
116
-338
-185
205
-120
-201
206
-2
-300
119
225
-111
162
549
191
-50
322
134
-285
162
125
-540
-224
124
-344
-377
4
-213
-515
-88
87
-382
-241
-120
-345
568
2202
3552
4471
4372
3193
1803
1057
909
492
146
171
-127
-422
-176
-129
-495
-375
-156
-439
-522
-153
-353
-667
-230
-161
-504
-310
-38
-336
-489
-194
-192
-521
-215
40
-514
-277
191
-292
-397
142
-60
-504
53
187
-316
35
397
-99
-189
419
295
-118
322
400
-48
274
618
264
91
481
448
90
404
485
-3
126
313
-109
-140
128
-99
-282
85
93
-344
-129
174
-210
-289
147
-119
-426
7
3
-430
-177
154
-279
-439
-10
-98
-397
16
110
-365
-187
158
-199
-329
107
-116
-459
5
125
-336
-220
133
-232
-352
131
-71
-412
-30
72
-325
-189
61
-305
-307
137
-72
-401
-18
95
-416
-217
183
-283
-295
158
-123
-379
-63
28
-259
-152
44
-126
-236
-70
-44
-206
138
197
-234
-39
310
-19
-135
389
297
14
351
367
-26
33
382
30
-307
108
-67
-434
-17
31
-439
-234
120
-295
-457
-5
-107
-576
-244
457
1109
2736
4516
4546
3420
2467
1369
523
712
568
-220
-176
79
-358
-442
-113
-288
-570
-264
-233
-641
-404
-6
-404
-555
-43
-265
-610
-244
-175
-456
-305
-43
-359
-441
-11
-140
-439
-103
45
-385
-218
205
-142
-255
171
73
-201
227
306
-237
51
439
49
26
415
287
9
324
434
-5
170
528
86
5
454
47
-378
125
197
-362
-233
90
-322
-426
17
-64
-394
-132
43
-407
-312
102
-274
-434
89
-53
-467
-86
36
-423
-273
44
-311
-405
62
-59
-419
-49
16
-388
-112
198
-250
-403
70
-93
-446
-59
11
-430
-272
79
-274
-480
9
-180
-568
-33
24
-460
-230
11
-407
-462
-1
-134
-532
-167
-15
-496
-330
-28
-415
-388
79
-155
-471
-70
19
-354
-49
314
-160
-221
325
184
-65
378
553
44
89
418
47
-95
215
29
-327
-70
18
-388
-91
377
-87
-266
174
19
-218
-4
-98
-26
1123
2735
3896
4594
4308
2913
1604
1163
1021
380
226
282
-278
-317
124
-47
-435
-127
17
-441
-270
139
-328
-482
77
-112
-541
-147
69
-305
-123
205
-187
-236
133
-85
-315
51
187
-272
-92
376
-52
-117
417
121
-205
276
364
19
235
558
297
105
494
451
100
425
603
277
356
790
441
98
616
411
-57
325
369
-61
127
445
40
-217
150
47
-264
153
231
-206
10
253
-224
-203
284
37
-252
105
202
-229
-3
249
-336
-247
348
25
-340
108
218
-157
-45
188
-145
-238
237
55
-355
77
248
-212
-38
302
-102
-262
177
-8
-402
161
303
-336
-133
238
-205
-286
146
-87
-479
7
229
-265
-205
147
-105
-312
77
-28
-465
-30
172
-311
-110
214
-230
-277
301
140
-228
149
303
-84
70
497
141
40
563
317
-126
291
345
-229
-39
199
-270
-319
26
-117
-394
-129
37
-387
-323
113
-196
-595
-225
313
1140
3004
4487
4387
3641
2740
1378
659
942
498
-271
-143
-74
-555
-427
-36
-450
-707
-243
-266
-647
-335
-159
-508
-428
-194
-475
-566
-158
-240
-656
-257
-81
-578
-408
2
-290
-458
-128
-266
-478
-51
54
-390
-143
279
-72
-213
209
139
-219
164
323
-90
139
406
162
157
513
389
26
329
448
126
271
421
1
-134
272
114
-311
12
193
-242
-186
157
-123
-413
-59
-46
-443
-80
132
-369
-230
128
-295
-416
-2
-93
-318
-55
13
-278
-207
-37
-256
-257
108
-93
-330
36
80
-234
-224
39
-178
-353
123
40
-469
-114
130
-414
-335
98
-253
-345
18
-244
-405
28
68
-367
-217
179
-261
-538
50
-43
-398
-35
-5
-310
-233
36
-184
-404
-50
-109
-400
-31
104
-431
-304
184
-285
-393
138
-95
-453
-208
114
-88
-57
222
-25
-42
317
156
-77
337
422
-87
-16
272
-77
-172
97
-97
-448
-160
-17
-561
-383
79
-375
-486
-1
-142
-545
-427
44
713
2236
4008
4473
3759
2865
1785
672
651
722
-64
-264
56
-345
-607
-165
-408
-727
-234
-174
-627
-514
-172
-469
-634
-224
-315
-685
-289
-150
-627
-507
-178
-422
-553
-144
-233
-565
-161
-165
-560
-296
42
-264
-386
27
-53
-258
-8
61
-243
-121
251
-62
-175
322
142
-79
350
353
-34
166
463
73
-128
273
174
-269
69
139
-448
-231
205
-232
-497
-101
-210
-576
-150
104
-405
-363
13
-271
-422
-32
-146
-533
-172
-10
-469
-317
66
-302
-462
14
-55
-361
-75
-38
-439
-278
118
-210
-334
79
-186
-454
-15
27
-387
-221
61
-322
-362
-51
-289
-371
-19
-41
-426
-269
72
-261
-409
-119
-122
-304
-100
7
-314
-212
86
-223
-376
48
-112
-375
-2
65
-352
-231
140
-221
-312
77
-146
-331
44
122
-188
-73
241
-22
-118
339
262
-42
272
433
-8
28
449
-12
-304
210
-41
-514
-102
-8
-411
-258
25
-275
-479
-127
-130
-481
-320
-55
256
1645
3530
4368
4195
3390
1995
987
828
678
4
-243
144
-201
-588
-195
-272
-636
-381
-226
-543
-464
-89
-456
-721
-153
-260
-705
-227
-108
-556
-445
-136
-316
-479
-80
-92
-490
-172
-13
-457
-334
65
-169
-302
86
-46
-346
66
237
-131
27
323
-92
-99
381
260
-47
228
466
84
103
472
184
-140
337
363
-155
77
114
-278
-145
122
-201
-376
22
-81
-467
-204
47
-321
-280
62
-214
-335
96
-90
-536
-133
32
-411
-280
93
-234
-377
19
-65
-316
-34
44
-320
-143
81
-302
-293
81
-5
-283
-60
80
-384
-264
182
-321
-511
38
-94
-324
-13
26
-384
-317
144
-139
-470
-67
-44
-465
-171
68
-422
-340
67
-222
-417
-79
-165
-469
-204
6
-313
-345
33
-137
-297
129
33
-340
65
258
-135
-13
362
140
-49
303
145
-301
25
87
-485
-408
-64
-327
-464
-127
-144
-465
-223
-34
-493
-351
-5
-532
-332
1024
2286
3512
4509
4082
2475
1479
1101
448
228
402
-78
-491
-193
-168
-640
-592
-133
-461
-838
-325
-297
-723
-416
-216
-613
-549
-248
-569
-682
-179
-309
-667
-211
-73
-523
-395
-23
-346
-473
-53
-238
-533
-90
75
-294
-180
128
-99
-227
134
150
-215
-12
303
10
83
383
12
-133
366
270
-137
157
249
-119
-67
237
-95
-383
57
-44
-498
-164
7
-448
-336
65
-340
-488
-38
-262
-556
-192
-45
-424
-324
39
-311
-519
-110
-204
-489
-126
-36
-376
-224
12
-293
-398
-18
-142
-501
-135
29
-413
-281
44
-262
-329
-21
-300
-577
-129
1
-406
-294
33
-320
-526
-108
-183
-556
-259
5
-466
-542
-19
-276
-574
-67
-114
-613
-194
20
-670
-371
65
-387
-405
7
-129
-583
-262
21
-482
-464
48
-182
-359
73
4
-323
38
189
-263
-102
310
88
-77
269
144
-255
33
153
-381
-389
35
-339
-613
-188
-293
-557
-249
-226
-610
-399
-8
-597
-719
615
1736
2904
4571
4586
3001
2063
1423
520
226
347
-33
-602
-364
-158
-660
-639
-283
-541
-692
-312
-385
-700
-299
-268
-731
-545
-283
-511
-640
-308
-249
-672
-476
-128
-523
-492
-68
-343
-520
-185
-250
-445
-127
-9
-393
-304
154
-107
-311
110
1
-261
97
183
-225
-46
392
-70
-238
393
251
-196
218
367
-68
-55
227
-69
-387
2
-62
-454
-204
-83
-382
-324
-87
-291
-418
-83
-182
-514
-197
-65
-475
-335
95
-262
-520
-66
-124
-476
-204
-42
-442
-332
53
-316
-409
80
-65
-403
-62
17
-423
-246
125
-266
-426
-1
-105
-460
-119
54
-463
-352
66
-189
-414
-127
-18
-421
-203
35
-412
-235
60
-317
-441
-82
-210
-530
-134
47
-392
-327
-33
-344
-450
45
-114
-516
-70
37
-396
-336
-79
-251
-397
-38
-104
-482
-113
195
-176
-142
218
-43
-197
292
340
54
336
367
-136
-83
198
-183
-373
-57
-224
-473
-185
-72
-442
-473
-179
-394
-510
-65
-209
-716
-24
1319
2276
3791
4881
3686
2226
1759
926
264
515
332
-461
-415
0
-397
-609
-264
-384
-686
-364
-259
-727
-486
-87
-549
-714
-186
-360
-811
-409
-168
-658
-631
-66
-387
-676
-70
-154
-647
-271
-87
-537
-379
10
-276
-397
73
-43
-525
-58
238
-241
-178
260
73
-304
132
287
-147
227
443
-48
58
401
3
-220
267
103
-394
-72
41
-433
-392
11
-240
-514
-60
-73
-530
-263
-109
-419
-303
-29
-252
-408
4
-35
-448
-188
37
-385
-318
113
-286
-531
-9
24
-344
-105
125
-388
-388
157
-115
-358
22
-64
-419
-98
95
-393
-398
59
-179
-425
-6
-56
-416
-184
25
-303
-308
49
-216
-411
125
-42
-528
-39
70
-369
-151
92
-284
-392
30
-47
-432
-146
81
-309
-198
204
-42
-179
99
48
-131
186
311
-47
200
521
15
-72
391
179
-239
-17
122
-376
-417
11
-243
-437
12
-160
-580
-106
139
-377
-567
-93
530
1502
3423
4711
4112
3076
2149
970
590
822
154
-344
76
-87
-537
-294
-217
-537
-451
-91
-386
-641
-165
-296
-670
-291
-184
-597
-456
-17
-305
-581
-110
-161
-583
-258
-54
-483
-420
50
-247
-401
51
-126
-459
-57
188
-232
-191
278
-31
-272
312
299
-133
225
330
-156
48
459
66
-85
429
356
-172
146
490
-51
-108
185
-147
-374
14
31
-360
-120
25
-386
-247
47
-279
-380
-21
-49
-409
-163
32
-349
-224
102
-171
-343
46
-8
-427
-80
172
-305
-260
195
-188
-387
110
-46
-334
-39
173
-204
-273
215
-42
-436
43
139
-380
-120
175
-325
-223
269
-139
-324
106
-50
-340
-84
94
-256
-223
200
-121
-349
11
-30
-373
-143
114
-391
-321
278
-92
-346
157
97
-222
99
227
-158
-28
348
147
119
468
287
-122
83
287
-196
-289
119
-235
-517
-6
28
-489
-272
67
-376
-429
30
-178
-616
-315
202
964
2768
4333
4257
3436
2608
1274
420
689
489
-181
-99
1
-463
-433
-129
-504
-722
-238
-300
-689
-314
-135
-598
-438
-20
-462
-619
-36
-194
-760
-344
19
-441
-395
17
-170
-427
-120
-61
-462
-220
108
-255
-198
120
-228
-312
166
150
-179
149
357
-119
-17
364
101
-23
379
349
-33
288
467
-14
28
351
99
-89
144
17
-248
15
148
-250
-258
59
-198
-437
62
10
-530
-144
39
-445
-284
131
-166
-363
27
-83
-435
-66
146
-300
-285
120
-100
-351
50
19
-504
-160
237
-184
-287
60
-232
-369
118
-46
-424
-138
89
-275
-360
96
-54
-409
10
22
-465
-113
133
-366
-294
109
-188
-404
-61
-7
-339
-212
17
-418
-350
117
-222
-391
86
-55
-547
-191
63
-387
-291
248
-154
-497
234
291
-224
55
301
-68
140
628
193
-58
290
89
-222
75
177
-384
-418
25
-304
-541
-68
-27
-470
-242
76
-353
-435
-184
-202
507
2132
3671
4384
4122
3215
1799
748
804
626
33
86
-88
-557
-294
-107
-578
-530
-99
-521
-748
-197
-326
-758
-344
-101
-579
-609
-78
-325
-676
-139
-144
-636
-344
-83
-542
-490
-38
-322
-556
-70
-146
-533
-82
155
-275
-204
231
-36
-298
168
196
-218
120
328
-115
82
345
-17
26
472
332
-14
263
358
-93
0
367
11
-307
17
-2
-440
-133
181
-313
-344
93
-236
-434
54
-68
-414
-61
61
-396
-271
172
-164
-436
-12
-53
-392
-35
147
-378
-306
255
-143
-453
110
71
-308
-74
88
-266
-346
52
-71
-336
6
-15
-456
-188
15
-402
-214
115
-192
-337
-44
-43
-465
-313
0
-475
-411
148
-198
-476
31
32
-478
-240
49
-387
-485
-35
-222
-414
95
-4
-547
-168
178
-262
-216
181
-52
-310
84
141
-180
71
279
-14
81
449
131
-195
217
151
-431
-209
76
-297
-370
-64
-261
-406
37
-156
-591
-136
21
-596
-483
507
1358
2602
4408
4706
3186
2323
1750
583
414
593
-29
-322
7
-231
-678
-316
-72
-491
-476
-151
-465
-595
-219
-384
-646
-315
-107
-459
-454
14
-286
-629
-119
-93
-561
-288
-96
-461
-308
17
-187
-376
-85
-60
-448
-139
259
-126
-115
368
78
-194
325
233
-221
241
458
-21
140
575
241
-29
376
313
-134
100
311
-118
-181
185
-101
-433
-1
55
-375
-88
52
-331
-144
78
-246
-314
63
-25
-320
-42
49
-334
-224
94
-200
-437
41
39
-358
79
206
-286
-209
139
-69
-299
55
82
-250
-18
168
-241
-189
151
-181
-370
37
29
-250
-24
-10
-355
-170
136
-180
-350
-30
15
-298
-94
163
-260
-296
46
-163
-381
-33
-3
-393
-135
161
-248
-94
374
-50
-269
246
192
-275
114
485
87
117
479
177
-76
284
224
-297
-111
85
-352
-282
63
-226
-374
80
4
-445
-191
35
-426
-533
22
652
1863
3895
4817
3841
2875
2064
864
581
700
100
-281
-81
-122
-443
-302
-156
-480
-512
-169
-284
-557
-213
-178
-559
-245
-41
-497
-405
78
-257
-566
-75
-106
-567
-165
128
-439
-351
193
-142
-333
108
114
-212
-45
274
-80
-83
362
3
-165
419
357
-129
203
519
105
79
479
275
115
519
398
-56
164
413
8
-82
270
-52
-392
130
163
-434
-144
168
-273
-230
23
-247
-332
-12
7
-264
-43
76
-353
-317
66
-136
-319
50
54
-258
-77
100
-259
-183
253
-112
-395
70
-8
-302
88
190
-262
-227
123
-184
-423
59
-2
-451
-105
118
-314
-333
73
-121
-374
24
30
-390
-241
-140
-479
-215
129
-224
-428
-82
-61
-443
-178
141
-237
-199
231
-112
-332
198
207
-145
138
424
-7
-25
373
-18
-179
229
5
-427
-176
-17
-467
-413
47
-260
-521
-78
-173
-479
-201
-279
-618
-60
1315
2490
3633
4597
3840
2195
1531
1166
432
169
272
-165
-542
-174
-243
-681
-317
-101
-630
-620
-237
-473
-657
-346
-292
-611
-303
-40
-571
-510
-100
-411
-479
-111
-265
-545
-246
4
-344
-356
8
-224
-413
44
4
-397
-85
121
-199
-79
250
0
-121
341
282
-320
58
587
26
-22
503
176
-68
345
224
-221
71
216
-343
-310
184
-127
-423
-2
-147
-423
-41
26
-363
-294
55
-203
-433
-22
-38
-422
-136
80
-366
-364
23
-269
-458
-87
-105
-371
-111
54
-363
-259
174
-216
-421
58
-82
-459
-149
28
-372
-349
88
-179
-556
-72
24
-491
-266
-2
-366
-304
13
-286
-594
-162
-1
-393
-221
-138
-544
-388
91
-136
-382
28
-52
-583
-228
190
-426
-486
91
-155
-350
199
285
-298
-44
291
-300
-110
447
124
-9
351
117
-373
41
335
-218
-281
-6
-392
-535
-72
-195
-494
-96
-28
-526
-494
-45
-131
-484
-301
123
854
2504
4070
4274
3624
2780
1482
579
811
472
-399
-114
-35
-559
-453
-235
-500
-761
-383
-333
-716
-405
-263
-633
-509
-180
-465
-707
-214
-251
-787
-339
-106
-644
-384
-72
-445
-419
-43
-303
-569
-139
-22
-380
-231
158
-209
-416
61
51
-108
169
237
-86
1
352
11
-177
234
254
-2
167
380
20
-80
223
-83
-262
170
-45
-545
-151
51
-307
-141
84
-245
-370
-7
-142
-488
-80
13
-362
-56
173
-268
-370
53
37
-231
18
59
-367
-207
255
-121
-320
194
62
-229
165
261
-208
-179
236
25
-126
270
-4
-399
74
226
-211
-105
254
-130
-347
97
52
-255
-95
61
-221
-174
162
-168
-230
170
-103
-348
-21
143
-178
-224
100
-195
-348
131
-33
-369
103
264
-225
-136
295
133
-23
316
266
44
432
507
14
71
356
-162
-407
22
-183
-546
-103
82
-525
-348
177
-259
-536
-69
-75
-617
-403
404
1098
2633
4503
4429
3206
2528
1451
449
642
525
-300
-304
58
-418
-602
-118
-338
-789
-427
-332
-772
-505
-162
-651
-592
-28
-284
-630
-314
-191
-552
-407
-62
-420
-563
-268
-378
-589
-192
-2
-616
-434
101
-333
-525
36
-71
-528
-20
244
-224
-97
253
-51
-120
183
80
-23
288
292
-54
149
352
19
21
355
72
-238
91
77
-305
-52
182
-333
-575
-248
-209
-319
24
139
-287
-300
-4
-246
-412
40
-65
-502
-138
4
-364
-163
148
-226
-510
-61
113
-177
-43
11
-362
-186
211
-119
-315
75
-19
-326
23
109
-367
-259
62
-316
-366
189
22
-299
-86
-74
-301
-250
52
-189
-380
53
-132
-508
-38
119
-394
-250
175
-148
-315
24
-85
-325
-8
85
-268
-46
255
-60
54
484
281
36
392
455
-13
145
446
13
-246
50
-34
-381
-110
-86
-610
-304
75
-369
-468
-56
-83
-524
-416
147
696
2209
4114
4537
3675
2769
1768
666
603
519
-161
-147
59
-505
-768
-246
-343
-754
-366
-276
-820
-601
-252
-657
-716
-287
-491
-832
-475
-354
-817
-660
-205
-557
-756
-337
-435
-784
-376
-160
-560
-530
-247
-434
-524
-59
-110
-551
-240
-32
-385
-246
54
-201
-289
151
-16
-422
13
189
-130
-54
148
-124
-314
115
-69
-499
-118
-69
-498
-487
-161
-388
-580
-111
-212
-586
-178
-127
-673
-444
-161
-637
-666
-181
-339
-659
-287
-156
-629
-462
-82
-477
-569
-120
-261
-631
-411
-253
-620
-470
-62
-483
-709
-282
-398
-664
-267
-269
-715
-449
-137
-593
-669
-175
-385
-819
-420
-366
-805
-441
-139
-585
-751
-289
-390
-772
-418
-431
-928
-639
-241
-643
-817
-376
-504
-826
-346
-254
-807
-555
-39
-300
-430
19
33
-326
-134
69
-315
-359
-46
-450
-707
-188
-345
-777
-435
-389
-796
-467
-73
-558
-636
-168
-558
-812
389
1779
2985
4295
4355
2829
1551
1204
722
108
8
-74
-428
-276
-94
-591
-691
-257
-416
-746
-437
-341
-736
-523
-203
-669
-734
-208
-340
-698
-329
-134
-573
-465
-36
-359
-511
-67
-305
-646
-142
4
-453
-255
160
-176
-390
8
-92
-407
152
376
-176
-38
336
54
-59
367
315
-85
175
304
-163
-70
427
1
-347
128
-109
-526
-168
-88
-470
-383
-54
-451
-582
-89
-278
-510
-213
-256
-582
-401
-100
-463
-541
-94
-360
-680
-240
-129
-549
-405
-41
-349
-482
-70
-243
-563
-208
-80
-492
-295
-56
-570
-469
1
-283
-700
-317
-52
-616
-470
47
-383
-494
50
-315
-666
-152
-164
-511
-256
-84
-466
-490
-146
-318
-624
-243
-91
-509
-400
-49
-295
-398
-1
-146
-387
-9
153
-264
-201
90
-325
-430
-85
-351
-744
-402
-384
-805
-555
-317
-700
-838
-351
-480
-896
-386
-497
-1027
-68
1391
2412
3369
3800
2714
1052
571
364
-272
-379
-348
-807
-1003
-619
-751
-1242
-900
-740
-1116
-1017
-839
-1121
-1213
-780
-1012
-1454
-1066
-1003
-1355
-1154
-990
-1264
-1265
-1073
-1184
-1463
-1197
-969
-1360
-1200
-873
-1117
-1139
-843
-956
-1248
-845
-683
-1050
-867
-873
-1088
-777
-481
-753
-1020
-674
-583
-939
-801
-434
-815
-1063
-559
-769
-1327
-865
-652
-1200
-1062
-838
-1257
-1336
-961
-1101
-1396
-936
-844
-1447
-1175
-765
-1246
-1253
-764
-1076
-1464
-1000
-904
-1365
-1143
-796
-1109
-1191
-902
-1010
-1173
-931
-800
-1149
-1090
-701
-1043
-1136
-778
-1014
-1154
-654
-703
-1225
-975
-658
-1096
-1163
-666
-873
-1205
-825
-716
-1119
-948
-593
-961
-1085
-599
-722
-1051
-613
-427
-841
-679
-285
-638
-672
-221
-388
-597
-287
-227
-617
-541
-256
-717
-875
-491
-775
-991
-541
-570
-1060
-765
-451
-869
-854
-434
-683
-1070
-562
215
934
2356
3608
3174
2010
1338
546
-107
-13
-125
-636
-645
-448
-818
-1043
-650
-658
-871
-576
-644
-1031
-754
-519
-910
-884
-444
-709
-1026
-637
-540
-919
-664
-366
-781
-775
-351
-537
-835
-382
-284
-723
-468
-229
-620
-550
-115
-308
-495
-18
41
-453
-105
269
-190
-208
122
-4
-95
196
197
-151
-12
226
-122
-184
193
-125
-462
25
36
-456
-270
-76
-413
-399
3
-274
-634
-223
-190
-608
-408
0
-423
-602
-24
-235
-580
-93
-83
-611
-304
37
-437
-397
111
-214
-498
-46
20
-280
-117
78
-228
-342
31
-88
-353
-6
2
-344
-149
111
-156
-304
85
37
-324
-51
32
-363
-140
203
-275
-251
240
128
-27
230
274
-109
159
532
153
104
607
381
56
519
428
-169
102
444
-27
-84
344
45
-353
70
214
-196
12
286
-96
-239
-32
28
630
2146
3661
4436
4369
3503
2100
1136
1121
864
294
459
354
-216
129
468
-98
-157
336
31
-252
245
310
-106
40
381
40
-3
508
215
-83
373
423
-10
167
540
156
75
647
490
240
612
629
354
594
948
614
513
1099
963
649
1171
1188
757
1106
1406
963
1100
1547
1189
1058
1480
1384
1000
1269
1480
1007
960
1318
963
739
1192
1045
718
1089
1189
712
795
1175
843
613
1041
1051
588
892
1146
530
555
1175
894
496
885
933
644
788
1073
760
669
1069
767
527
911
972
574
633
1017
727
546
890
697
422
790
956
520
591
893
533
480
891
658
365
731
792
367
523
859
385
352
839
592
394
749
756
445
725
1027
692
758
1131
774
497
876
765
323
528
727
375
236
544
356
10
383
462
101
340
562
278
132
251
410
1017
2681
4079
4575
4692
3960
2471
1355
1298
1066
508
535
400
-89
112
386
-64
-116
255
81
-170
130
157
-190
107
339
-187
-91
339
-41
-160
277
252
-124
116
382
-50
-55
306
100
-2
394
322
-26
262
520
198
177
561
425
179
509
595
274
529
780
323
350
847
564
296
796
707
200
556
696
119
203
549
230
-4
353
345
-98
152
411
-18
-50
327
91
-40
366
190
-132
155
267
3
-4
175
73
-64
242
245
-182
80
378
-56
-49
361
64
-156
374
306
-303
124
430
-117
-43
382
196
-70
272
288
-161
63
324
-40
28
362
-15
-232
204
162
-206
68
165
-242
-129
336
22
-264
228
231
-173
18
254
-88
-24
384
136
-81
300
342
-87
128
579
292
239
578
323
-28
244
333
-51
67
111
-344
-226
189
-77
-398
21
85
-373
-157
95
-231
-352
154
779
1778
3576
4689
4228
3375
2516
1176
668
938
337
-209
80
-61
-431
-239
-222
-524
-430
-105
-329
-604
-198
-101
-587
-417
-116
-429
-376
7
-171
-518
-263
-95
-397
-226
0
-403
-405
59
-157
-373
9
-33
-292
-4
64
-150
85
272
61
-37
292
291
-112
205
458
-20
163
645
323
62
485
492
53
223
354
3
-31
298
26
-291
163
113
-301
-50
132
-151
-135
137
-129
-358
127
150
-368
-132
145
-266
-253
158
-89
-364
69
78
-290
-5
230
-94
-157
112
-71
-264
145
194
-257
-104
196
-192
-202
276
-11
-306
110
51
-375
-45
139
-302
-209
153
-115
-303
14
-80
-455
-56
228
-261
-230
95
-190
-314
58
-71
-423
-39
181
-298
-184
214
-224
-412
66
25
-312
-18
95
-124
63
246
33
-63
355
322
31
361
495
59
48
426
179
-198
113
11
-496
-230
-7
-286
-172
154
-151
-512
-126
39
-529
-559
91
769
2015
3788
4525
3865
3040
2008
746
638
712
-60
-98
191
-308
-528
-163
-267
-683
-432
-152
-447
-481
-194
-323
-539
-233
-152
-485
-307
-81
-468
-398
61
-234
-533
-123
-53
-421
-133
26
-404
-318
-12
-151
-230
114
139
-250
-62
256
-71
4
461
211
-39
277
279
-131
163
517
80
131
578
245
15
376
145
-263
132
279
-173
-120
141
-213
-356
12
-86
-344
-41
107
-300
-240
74
-267
-386
31
-33
-458
-148
130
-388
-245
195
-251
-504
-60
20
-262
-32
166
-281
-291
175
-86
-341
13
-17
-414
-184
183
-180
-298
107
-12
-395
-73
1
-444
-132
170
-226
-247
61
-126
-296
-35
-61
-334
-107
165
-321
-449
46
-116
-300
59
16
-364
-140
126
-279
-268
154
-113
-223
197
32
-200
200
360
25
62
373
189
-58
246
181
-286
68
223
-387
-339
81
-225
-451
-49
-113
-445
-142
-33
-387
-397
-222
-34
858
2618
3962
4195
3786
2660
1275
813
918
383
-128
26
-214
-557
-231
-174
-562
-439
-138
-439
-504
-86
-280
-656
-242
8
-456
-440
-43
-324
-446
-34
-90
-480
-300
13
-364
-326
74
-257
-390
15
-49
-283
-46
108
-238
-194
265
55
-154
248
251
-115
228
482
36
165
450
75
33
485
301
-38
392
333
-205
27
255
-112
-243
96
117
-243
-36
188
-285
-242
148
-178
-363
6
-52
-287
-16
66
-365
-212
115
-252
-265
196
51
-321
21
189
-322
-172
298
-76
-283
216
113
-328
10
142
-339
-237
250
-54
-362
91
76
-341
-62
133
-328
-231
177
-258
-405
123
100
-236
-115
31
-354
-161
259
-243
-398
178
-21
-569
-133
114
-309
-175
140
-223
-356
114
69
-274
70
251
-143
38
288
72
16
285
386
15
234
527
-82
-63
317
-289
-387
97
-162
-416
-51
53
-428
-295
2
-415
-452
-141
-363
-174
1206
2634
3635
4422
4061
2510
1321
1050
742
132
97
106
-500
-450
-40
-460
-641
-262
-388
-715
-329
-113
-570
-536
-199
-340
-479
-137
-183
-634
-306
-11
-422
-420
-97
-380
-541
-86
-149
-423
-123
-102
-487
-229
161
-160
-281
109
46
-309
71
304
-167
-35
325
59
35
436
186
-170
277
409
-6
94
358
62
-91
275
156
-224
49
65
-363
-196
163
-116
-347
19
-46
-431
-101
86
-348
-208
131
-266
-295
102
-88
-273
-11
33
-380
-225
284
-47
-316
67
-62
-302
96
66
-330
-119
207
-129
-372
83
137
-325
-27
174
-344
-241
99
-217
-311
117
-24
-402
-67
95
-331
-213
166
-201
-395
52
-14
-399
-65
60
-312
-106
205
-190
-408
181
98
-367
24
275
-262
-291
276
-6
-156
355
159
-173
246
368
-24
224
629
328
98
357
328
5
248
261
-283
-183
138
-136
-326
-44
-119
-417
-69
87
-327
-245
-69
-282
92
1406
2752
3824
4631
3964
2398
1576
1134
599
219
222
79
-383
-240
-121
-500
-307
-115
-494
-485
-188
-344
-544
-240
-148
-528
-384
-126
-395
-387
-52
-298
-571
-171
-40
-453
-355
27
-271
-311
119
-39
-314
-73
2
-265
-70
227
-101
-136
217
-21
-145
264
306
-54
86
424
68
-83
279
144
-4
386
352
-120
39
289
-120
-275
50
-26
-289
-14
97
-320
-249
61
-190
-354
-47
-54
-369
-109
137
-370
-354
173
-151
-389
115
30
-439
-52
250
-283
-175
231
-152
-304
52
-2
-274
-32
62
-384
-263
130
-246
-352
98
7
-373
-117
16
-377
-233
29
-224
-357
-50
-80
-421
-153
-10
-479
-320
88
-332
-453
32
-183
-541
-144
13
-397
-310
16
-348
-492
73
-6
-436
-89
7
-500
-326
80
-308
-288
168
-58
-298
-43
97
-221
-53
294
33
67
384
128
-201
167
219
-357
-246
107
-373
-519
-40
-287
-572
-173
-145
-549
-382
-4
-505
-739
306
1281
2445
4194
4638
3329
2234
1612
634
306
506
57
-536
-301
-85
-660
-556
-210
-796
-759
-171
-396
-748
-384
-273
-739
-537
-134
-507
-590
-191
-312
-611
-304
-156
-700
-535
-77
-493
-520
-11
-162
-526
-174
-9
-436
-243
74
-272
-307
39
8
-214
-18
91
-222
-82
266
-12
-287
233
230
-293
171
380
-204
-77
274
-159
-305
121
-165
-549
-100
-50
-531
-297
33
-384
-458
-88
-249
-448
-216
-200
-467
-261
47
-342
-523
-55
-152
-551
-220
-63
-458
-289
65
-247
-456
-68
-73
-419
-95
60
-402
-257
108
-287
-468
-42
-155
-458
-177
-82
-471
-422
66
-182
-518
-85
-35
-578
-266
100
-464
-336
121
-301
-466
-31
-202
-511
-165
-12
-416
-386
67
-215
-450
59
-36
-512
-171
91
-297
-238
243
-88
-263
256
75
-199
175
361
79
126
417
102
-87
247
25
-350
1
18
-477
-293
-60
-406
-395
-2
-170
-496
-138
-53
-655
-230
1186
2206
3527
4818
4032
2340
1722
1195
442
338
358
-168
-476
-189
-213
-538
-265
-112
-558
-407
-209
-610
-593
-184
-300
-653
-316
-156
-628
-475
-133
-474
-450
-45
-303
-509
-54
-53
-519
-239
154
-236
-376
29
-99
-347
-18
73
-207
-104
122
-116
-117
301
87
-234
213
373
20
93
279
44
8
287
133
-96
60
-8
-298
-78
80
-282
-299
19
-192
-475
-53
64
-478
-285
160
-281
-393
19
-201
-496
-112
29
-347
-233
7
-290
-345
31
-93
-413
-60
134
-399
-324
20
-359
-312
78
-236
-504
-40
29
-446
-317
40
-280
-457
-24
-191
-540
-202
-135
-392
-265
-84
-349
-367
-60
-228
-355
-97
-64
-467
-357
128
-290
-553
-21
-152
-552
-183
-5
-522
-368
120
-244
-330
138
-21
-389
-70
184
-175
-101
359
128
-33
301
72
-311
30
88
-440
-373
-49
-342
-475
-122
-294
-628
-290
-79
-448
-410
-175
-551
-324
1053
2361
3493
4531
3934
2246
1463
1155
428
110
326
-161
-568
-138
-106
-688
-543
-95
-539
-697
-176
-306
-667
-342
-272
-648
-402
-115
-472
-557
-164
-309
-603
-182
-120
-526
-341
-51
-353
-459
4
-95
-473
-124
42
-276
-134
128
-144
-217
199
106
-172
156
164
-305
7
425
-78
-133
395
175
-139
166
281
-226
-212
198
-104
-255
-27
-182
-420
-215
-104
-361
-233
51
-282
-459
28
-89
-475
-93
-8
-409
-249
49
-272
-376
3
-69
-289
-128
-65
-331
-155
193
-187
-273
134
-48
-331
-55
60
-292
-120
191
-226
-353
31
-119
-437
-37
80
-406
-174
145
-303
-279
133
-160
-436
22
132
-303
-184
139
-219
-434
83
-22
-382
-38
41
-374
-184
198
-253
-359
79
-134
-396
76
161
-228
-10
294
6
-216
236
230
-142
331
458
-36
298
524
-50
20
378
54
-305
-22
78
-403
-205
268
-179
-433
16
-87
-424
-117
-161
-483
476
1842
2947
4248
4579
3325
2001
1400
886
391
296
284
-202
-320
-23
-232
-578
-328
-165
-521
-436
-149
-455
-508
-69
-361
-634
-151
-57
-437
-337
-20
-366
-405
92
-81
-531
-208
102
-307
-188
169
-176
-306
52
9
-205
121
231
-238
-101
436
40
-120
402
77
-229
341
457
30
165
448
90
22
408
95
-151
247
200
-232
-44
233
-210
-340
60
-34
-305
-52
45
-411
-249
131
-234
-298
63
-27
-306
-135
29
-251
-185
142
-126
-347
94
117
-229
36
53
-280
-39
202
-119
-207
132
-29
-330
130
222
-388
-239
90
-192
-216
80
-117
-393
14
96
-364
-153
164
-221
-347
16
-104
-400
18
95
-451
-218
180
-281
-430
133
4
-402
-63
69
-388
-167
196
-367
-358
206
-72
-390
60
219
-230
-69
303
-64
-98
362
182
1
415
405
0
183
432
-57
-197
200
-157
-356
125
-61
-540
-215
113
-328
-379
91
-72
-501
-320
352
1136
2642
4353
4435
3509
2775
1684
694
753
658
-192
-211
151
-348
-561
-218
-274
-655
-338
-60
-555
-411
-18
-400
-525
-130
-271
-519
-143
-81
-583
-375
142
-282
-523
-36
-208
-482
98
116
-452
-192
167
-145
-272
145
96
-158
183
231
-75
119
421
16
-52
551
294
-81
372
464
-10
188
613
132
129
618
94
-230
206
138
-243
-38
151
-227
-225
71
-219
-360
108
133
-375
-206
192
-180
-329
44
-153
-379
51
-16
-430
-108
181
-185
-270
149
34
-371
-45
111
-275
-35
173
-264
-208
199
-59
-394
-3
147
-342
-151
227
-165
-251
132
-75
-400
-2
81
-391
-156
52
-336
-257
128
-47
-302
-47
-11
-356
-175
172
-214
-381
75
-23
-335
-10
33
-381
-227
60
-253
-374
56
-77
-397
-10
39
-365
-71
324
-67
-103
348
97
-63
395
325
45
266
386
108
-40
129
-33
-268
33
-37
-419
-131
45
-335
-282
79
-183
-379
131
-94
-474
611
2112
3256
4413
4654
3212
1848
1432
1001
411
259
197
-284
-347
23
-278
-623
-240
-103
-435
-365
-109
-426
-514
-87
-225
-500
-235
-186
-485
-283
24
-275
-323
-11
-195
-483
-96
129
-303
-250
68
-175
-252
150
92
-210
81
279
-54
33
387
121
12
472
360
63
446
422
-4
263
518
125
138
616
346
-130
224
320
-180
30
297
-173
-214
134
-144
-304
125
100
-283
-106
114
-250
-242
174
-33
-311
36
116
-247
-149
160
-122
-190
205
-5
-251
111
153
-322
-105
239
-145
-204
200
76
-246
83
172
-311
-151
246
-180
-286
208
86
-322
-41
179
-339
-189
202
-235
-261
193
-27
-400
-40
131
-282
-109
261
-203
-423
132
-6
-363
151
90
-355
-28
153
-257
-264
108
-211
-396
84
-4
-410
-81
192
-246
-253
143
-86
-224
233
150
-254
94
377
76
-16
429
289
-104
453
409
-232
-59
106
-221
-255
37
-125
-402
-49
-13
-433
-198
9
-338
-459
-187
405
1333
2969
4491
4336
3404
2568
1334
724
961
404
-244
68
25
-510
-340
-62
-462
-580
-226
-359
-619
-252
-91
-512
-468
-125
-386
-508
-75
-146
-438
-151
-96
-495
-320
60
-215
-378
-23
-121
-373
87
183
-273
-53
244
-123
-203
201
133
-84
181
309
14
160
482
142
108
462
247
9
345
392
-34
156
385
-76
-157
179
-121
-330
164
68
-403
-124
99
-302
-342
-3
-169
-328
41
11
-416
-198
126
-218
-351
134
-88
-549
-8
249
-332
-254
207
-224
-323
138
-171
-365
76
0
-365
-73
202
-235
-324
127
-71
-490
-121
136
-416
-292
213
-233
-368
20
-164
-487
-163
30
-360
-229
71
-348
-388
106
-164
-594
-176
-7
-381
-152
15
-404
-288
84
-202
-445
-110
-10
-367
-352
37
-219
-384
82
-164
-471
-24
91
-262
-87
143
-202
-120
267
29
-140
307
276
-217
-29
209
-215
-398
-98
-268
-605
-294
-141
-552
-401
-15
-454
-576
-89
-304
-748
-277
631
1470
3161
4674
4088
2862
2110
968
318
569
247
-392
-217
-14
-617
-704
-160
-473
-792
-274
-247
-739
-522
-227
-611
-662
-246
-517
-697
-227
-430
-714
-247
-77
-501
-494
-61
-322
-615
-84
-99
-530
-227
-25
-377
-347
169
5
-343
31
60
-238
52
267
-125
-122
305
140
-144
0
158
-2
146
399
-76
-150
256
29
-275
15
84
-410
-220
94
-387
-450
-28
-254
-550
-144
-39
-414
-244
64
-283
-393
-68
-193
-373
-23
-28
-454
-230
22
-281
-329
12
-129
-389
-14
53
-429
-260
35
-336
-289
97
-208
-454
-48
-51
-402
-218
-21
-425
-306
138
-221
-409
-80
-98
-414
-172
37
-341
-374
-26
-233
-472
-81
-46
-495
-309
76
-329
-500
-1
-150
-438
24
-81
-497
-103
-11
-520
-371
54
-295
-501
-28
-14
-368
-188
97
-155
-225
153
-18
-278
203
363
-85
97
334
-186
-260
125
-233
-511
-82
-74
-588
-425
-43
-513
-516
68
-272
-567
-201
-359
-204
1274
2953
3934
4287
3778
2384
1120
812
656
112
36
37
-585
-642
-139
-422
-779
-309
-245
-710
-483
-252
-551
-535
-270
-550
-719
-284
-338
-668
-433
-234
-532
-466
-162
-480
-559
-183
-140
-471
-311
82
-320
-373
43
-239
-427
92
154
-259
6
330
-218
-266
404
122
-260
266
268
-193
226
483
-30
-1
392
109
-184
175
135
-364
-148
145
-340
-392
178
-131
-440
72
-13
-413
-180
10
-380
-324
166
-109
-340
39
13
-364
-252
-6
-221
-244
99
-218
-462
102
120
-265
-103
73
-238
-278
70
-49
-291
-9
97
-316
-151
178
-175
-203
156
-62
-342
23
52
-353
-119
87
-270
-223
95
-72
-261
-11
39
-296
-160
150
-171
-259
66
-179
-382
46
-35
-391
-13
154
-273
-254
78
-38
-265
29
128
-296
-54
281
-89
-36
350
95
-158
342
470
36
415
633
47
116
523
176
-223
106
135
-312
-118
127
-230
-239
28
-224
-427
-117
47
-280
-366
48
685
1966
3787
4692
4079
3213
2185
822
640
935
218
-150
169
-139
-507
-203
-143
-525
-359
-119
-492
-498
-117
-281
-442
-94
-153
-543
-238
35
-449
-440
6
-274
-513
-98
-106
-386
-60
96
-249
-248
90
-21
-224
164
124
-239
160
388
39
84
419
279
-23
290
375
41
330
531
157
210
602
287
25
438
410
-156
-41
268
-140
-126
223
-24
-239
-42
-84
-386
-57
202
-300
-267
167
-109
-305
20
40
-314
-98
249
-264
-290
326
-5
-390
96
106
-305
-5
203
-218
-167
207
-98
-309
181
220
-248
-66
213
-203
-132
294
-160
-328
193
34
-390
-120
167
-188
-258
121
-107
-393
68
97
-422
-138
164
-258
-254
82
-125
-344
-29
24
-338
-158
48
-339
-311
109
-158
-433
-32
3
-336
-137
90
-189
-174
155
73
-187
128
320
-185
120
574
68
31
386
-35
-285
61
-72
-385
-176
24
-318
-345
-4
-340
-446
-37
-81
-481
-435
110
609
1996
3892
4531
3949
2959
1892
916
684
657
-20
-295
-13
-296
-497
-174
-337
-560
-273
-230
-580
-431
-81
-477
-675
-144
-173
-642
-302
8
-486
-448
-24
-325
-480
-57
-134
-479
-137
80
-341
-320
98
-61
-398
30
256
-268
-24
355
-182
-99
417
113
-13
410
329
-83
233
369
-68
124
528
235
-13
318
157
-232
0
214
-186
-255
184
-116
-392
23
-66
-430
-109
114
-235
-259
70
-99
-369
-2
54
-411
-142
200
-237
-264
88
-142
-310
67
48
-278
-16
141
-174
-204
189
67
-342
67
163
-335
-77
201
-325
-310
221
-27
-283
12
-35
-435
-150
229
-244
-376
67
-133
-419
15
-1
-462
-127
199
-239
-365
38
-204
-460
9
-50
-428
-219
42
-264
-248
182
-177
-389
63
-124
-491
-104
98
-459
-448
212
15
-292
148
77
-254
70
190
-52
102
453
215
16
340
154
-165
-34
25
-243
-288
101
-118
-405
-65
-155
-590
-349
-17
-364
-337
-159
-542
-124
1386
2866
3983
4632
3822
2287
1494
1036
558
159
151
-13
-496
-347
-163
-592
-554
-103
-445
-727
-295
-353
-705
-412
-157
-459
-471
-151
-322
-560
-196
-144
-606
-396
-9
-402
-429
5
-231
-413
43
49
-468
-165
246
-160
-217
276
117
-215
290
351
-129
194
467
-5
39
506
168
9
530
384
-34
322
546
4
-99
290
-20
-273
209
113
-427
-138
139
-357
-332
199
-124
-429
-36
-95
-420
-108
62
-428
-358
112
-177
-402
36
-14
-431
-163
76
-371
-410
108
-65
-334
75
-44
-466
-79
101
-363
-256
197
-54
-398
31
42
-484
-141
186
-411
-341
217
-115
-448
-140
-91
-397
-165
13
-305
-219
82
-193
-450
-29
16
-498
-200
133
-323
-304
92
-189
-472
22
21
-466
-187
93
-299
-370
33
-126
-342
112
105
-283
106
209
-292
-31
370
57
-29
373
382
-33
131
454
-96
-252
168
-195
-497
-82
-121
-492
-175
20
-407
-390
0
-212
-548
-157
377
1166
2971
4589
4515
3416
2557
1410
458
784
540
-357
-193
-59
-600
-489
-101
-481
-686
-330
-324
-608
-436
-254
-630
-639
-213
-360
-644
-245
-131
-599
-395
-102
-452
-409
-40
-408
-595
4
-86
-521
-197
32
-322
-250
174
-122
-285
203
116
-230
77
330
-41
-152
352
273
-56
277
326
-36
192
405
-34
18
333
42
-219
-39
-112
-466
-240
-5
-336
-373
-66
-168
-392
-208
-110
-410
-260
-19
-490
-443
33
-335
-552
-69
-146
-532
-195
114
-301
-391
39
-206
-432
19
-22
-394
-149
78
-328
-350
54
-217
-382
88
-6
-397
-126
85
-331
-360
49
-149
-334
-7
-39
-460
-323
6
-283
-310
111
-143
-570
-95
19
-513
-184
77
-498
-371
94
-248
-417
-90
-159
-419
-120
54
-353
-363
-19
-234
-438
22
-2
-412
-3
237
-201
-167
147
-10
-132
325
369
-47
205
371
-147
-218
230
-85
-444
-17
-3
-409
-194
-60
-402
-308
-44
-278
-344
-31
-392
-444
934
2439
3565
4559
4431
2964
1692
1224
893
423
181
153
-260
-425
-65
-265
-483
-210
-304
-598
-333
-166
-624
-506
-6
-320
-594
-157
-115
-523
-232
7
-443
-435
1
-193
-478
-20
-36
-520
-190
124
-345
-395
188
-56
-296
206
155
-169
102
410
42
-37
455
282
83
461
324
16
380
561
110
96
517
198
-149
168
159
-148
5
124
-309
-281
136
-128
-354
79
-34
-551
-100
161
-339
-299
5
-188
-366
-17
-10
-397
-183
92
-259
-260
136
-224
-412
103
19
-372
-31
234
-292
-294
240
-60
-347
102
33
-400
-36
171
-322
-295
65
-161
-413
-86
12
-350
-163
102
-289
-317
95
-221
-360
100
-136
-466
-98
57
-392
-320
105
-243
-438
77
44
-455
-182
104
-294
-292
101
-111
-358
34
-20
-332
57
342
-96
-137
254
-28
-91
400
344
50
241
412
26
-29
319
-93
-425
-5
-36
-445
-195
36
-373
-366
31
-236
-467
-27
-158
-427
685
2300
3307
4252
4538
3157
1764
1368
878
343
352
253
-233
-294
13
-407
-715
-68
-144
-629
-317
-146
-490
-436
-175
-505
-602
-186
-260
-530
-238
-170
-539
-353
-6
-234
-392
-100
-140
-407
-131
67
-268
-346
99
14
-202
206
23
-261
258
374
-8
210
536
167
59
537
425
71
429
554
135
237
500
90
-95
225
102
-210
-195
27
-184
-321
62
-190
-441
19
-66
-459
-81
105
-414
-352
51
-256
-447
42
-44
-521
-144
-1
-472
-235
130
-267
-413
16
-14
-398
-130
133
-343
-255
187
-192
-379
55
57
-313
-132
-2
-394
-264
121
-213
-382
13
-75
-392
-226
-5
-315
-314
146
-229
-556
-82
-173
-584
-162
99
-421
-440
51
-170
-420
-100
-223
-451
-168
18
-320
-285
25
-378
-486
0
-91
-479
-246
29
-349
-341
135
-50
-146
238
2
-290
188
340
-123
75
533
26
-226
261
43
-324
48
54
-390
-259
54
-291
-579
-169
-101
-481
-213
63
-519
-740
41
685
1798
3827
4735
4001
3073
2197
920
535
812
202
-315
-93
-223
-601
-375
-265
-600
-445
-118
-452
-734
-320
-327
-653
-355
-233
-573
-518
-156
-394
-655
-245
-254
-647
-253
8
-489
-467
-64
-263
-507
-80
95
-260
-39
230
-172
-114
238
-14
-69
331
286
-72
248
472
-60
97
641
322
72
445
464
26
68
299
-8
-108
179
-114
-325
52
-123
-453
-57
41
-464
-272
236
-177
-475
-7
-99
-497
-160
-19
-450
-323
120
-164
-402
-33
-101
-381
-69
34
-385
-211
172
-137
-288
30
-30
-332
-108
38
-338
-248
176
-146
-453
-16
-25
-350
-39
23
-383
-186
127
-292
-477
19
-13
-402
-121
49
-399
-314
140
-250
-446
128
31
-469
-176
123
-294
-278
119
-167
-474
11
73
-436
-146
54
-318
-201
27
-319
-350
170
62
-356
18
246
-189
-140
215
6
-93
354
293
0
308
420
-76
-128
357
50
-399
-92
-207
-481
-183
-78
-421
-352
16
-279
-480
-77
-241
-766
-128
1109
2178
3862
4882
3859
2495
1831
1111
472
422
299
-488
-563
34
-369
-740
-334
-370
-702
-465
-318
-688
-596
-229
-496
-630
-234
-344
-658
-298
-283
-660
-443
-92
-309
-530
-174
-239
-541
-241
-142
-440
-245
112
-167
-359
58
70
-331
-37
320
-28
23
355
44
4
375
296
50
191
423
135
100
467
25
-242
206
32
-375
-45
54
-448
-315
28
-365
-471
-43
-208
-534
-151
-65
-564
-400
-4
-420
-656
-108
-134
-653
-305
6
-471
-376
-6
-368
-459
-109
-257
-467
-95
46
-517
-429
12
-371
-460
-46
-180
-489
-199
-83
-427
-385
-70
-303
-558
-116
-206
-568
-216
-56
-467
-473
-9
-276
-658
-205
-170
-496
-164
-71
-473
-354
-61
-399
-499
-85
-242
-559
-196
-59
-459
-322
2
-421
-588
14
-41
-537
-229
-25
-421
-277
145
-264
-483
123
131
-198
65
105
-152
107
492
136
-25
576
396
-139
202
371
-128
-136
170
-248
-423
130
24
-434
-145
41
-381
-215
190
-397
-713
308
1419
2418
4093
4977
3822
2492
1851
927
466
775
433
-199
-38
73
-384
-231
158
-322
-478
82
-112
-491
-86
-150
-470
-200
29
-243
-398
23
1
-339
2
122
-371
-336
163
-53
-314
177
74
-233
149
112
-254
58
361
70
96
465
310
46
399
562
178
283
603
290
222
653
513
130
366
592
153
190
589
105
-186
265
116
-346
33
213
-224
-194
79
-162
-394
21
106
-349
-36
271
-256
-308
163
-93
-412
130
89
-405
16
188
-383
-235
234
-86
-225
264
140
-352
64
241
-289
-136
202
-221
-338
158
-56
-441
-39
208
-260
-387
103
-77
-351
208
44
-444
43
142
-361
-166
205
-165
-305
116
-70
-388
-106
10
-198
-134
56
-175
-289
47
-34
-333
-49
95
-284
-171
80
-226
-312
52
-26
-338
-57
142
-245
-198
141
-201
-263
217
120
-230
75
325
-16
130
520
149
64
523
217
-185
163
284
-92
-225
22
-172
-499
-37
-43
-365
-31
-125
-550
-288
20
-493
-454
822
1964
3147
4593
4568
3209
2196
1416
658
461
520
-15
-438
-68
-110
-636
-322
-146
-812
-700
-117
-294
-720
-475
-253
-697
-644
-195
-471
-601
-173
-290
-571
-304
-125
-528
-495
-2
-374
-612
-34
-41
-402
-125
85
-254
-204
229
-108
-326
86
88
-10
143
165
-78
124
522
193
40
474
399
2
275
432
-76
-28
322
-46
-259
99
-5
-330
-135
55
-249
-342
41
-241
-570
-14
108
-352
-210
16
-284
-226
-60
-417
-409
-42
-188
-422
-121
27
-327
-237
124
-169
-340
80
-10
-342
6
87
-303
-155
174
-165
-377
162
-3
-409
58
164
-218
-184
19
-212
-218
223
-94
-510
-35
119
-368
-302
33
-207
-332
24
-14
-362
-66
155
-356
-287
135
-237
-325
18
-182
-425
-124
20
-376
-267
104
-261
-446
2
-118
-407
-3
37
-444
-208
183
-153
-147
163
6
-199
97
371
-2
34
494
241
-93
244
325
-83
92
287
-298
-384
-1
-376
-428
125
-254
-755
-260
-114
-458
-238
-171
-407
258
1819
3308
4188
4511
3516
1715
1116
1050
539
102
124
-213
-711
-265
-189
-722
-526
-192
-552
-703
-263
-349
-573
-356
-399
-663
-502
-240
-469
-589
-241
-305
-637
-211
-28
-508
-419
7
-271
-521
-8
-12
-414
-29
162
-214
-55
319
1
-160
376
291
-62
414
567
91
270
642
367
300
674
522
51
319
524
20
36
355
-1
-212
165
20
-300
-45
152
-83
-206
64
-136
-370
-44
-9
-255
-155
-30
-335
-294
94
-192
-363
124
-110
-472
7
153
-222
-93
132
-251
-365
38
-45
-438
-143
100
-220
-111
112
-211
-329
36
-5
-374
-197
10
-366
-197
149
-297
-360
43
-118
-416
-111
88
-219
-218
0
-237
-324
-30
-196
-376
39
41
-400
-198
171
-183
-398
82
-51
-424
-30
64
-398
-275
195
-29
-174
231
89
-277
42
323
28
79
511
135
-55
478
153
-129
294
64
-373
-161
147
-192
-419
9
-129
-522
-155
-22
-463
-324
-193
-523
206
1772
3068
4111
4494
3446
1812
1181
955
347
10
75
-72
-524
-353
-121
-648
-599
-77
-363
-589
-169
-304
-619
-213
-151
-667
-416
-47
-580
-592
7
-230
-557
-179
-74
-525
-285
185
-307
-442
87
-2
-337
-37
-14
-327
182
531
8
-22
399
251
61
388
492
49
277
703
207
83
532
451
150
351
406
-44
64
280
-174
-286
85
-54
-332
-89
-96
-417
-219
-21
-425
-459
35
-137
-490
-156
-45
-419
-258
-1
-415
-431
24
-254
-509
-70
-91
-424
-139
35
-350
-356
45
-121
-468
-98
-1
-421
-225
60
-381
-444
89
-251
-587
-146
-104
-445
-235
39
-372
-443
-55
-256
-514
-227
-111
-468
-370
2
-446
-493
53
-183
-486
-143
-79
-450
-306
-1
-272
-452
-83
-143
-393
-7
97
-260
-83
160
-135
-75
284
121
-141
287
365
-244
-141
106
-131
-213
-32
-256
-548
-225
-187
-556
-325
-36
-473
-544
-7
-250
-819
-212
747
1667
3337
4600
3953
2651
1985
977
297
575
307
-448
-455
-110
-480
-676
-311
-425
-685
-453
-344
-694
-518
-272
-684
-726
-289
-380
-715
-442
-323
-657
-433
-152
-524
-563
-83
-264
-627
-233
-96
-528
-263
217
-378
-440
236
1
-288
179
244
-192
88
498
116
60
518
307
11
433
623
133
181
555
140
32
288
-36
-242
109
87
-463
-256
121
-330
-364
80
-251
-472
19
-70
-476
-150
113
-265
-399
-123
-142
-413
-303
-117
-333
-205
76
-326
-469
9
-146
-514
-108
9
-401
-216
15
-277
-377
6
-141
-543
-85
-5
-494
-234
87
-358
-441
-54
-222
-501
-166
-16
-442
-242
62
-378
-454
-78
-311
-536
-73
-52
-467
-244
-37
-423
-441
-98
-188
-398
-117
-70
-535
-383
-9
-324
-372
-48
-263
-389
61
110
-373
-206
190
-98
-92
436
236
-142
174
106
-287
-53
132
-298
-435
-116
-335
-547
-117
-132
-580
-355
-79
-458
-493
-199
-530
-369
1145
2479
3449
4524
4151
2601
1668
1054
477
156
198
76
-607
-555
-161
-587
-758
-323
-450
-816
-454
-373
-752
-510
-268
-637
-740
-305
-451
-736
-297
-236
-637
-418
-128
-494
-500
-128
-441
-615
-148
-216
-555
-233
-39
-353
-248
188
17
-241
94
133
-168
130
459
66
-15
475
260
40
511
436
31
271
436
-73
-220
220
33
-439
-134
42
-417
-242
78
-352
-414
21
-127
-514
-195
31
-337
-317
-5
-330
-501
-42
-205
-594
-182
-28
-447
-243
-3
-363
-333
-17
-205
-384
-54
-105
-501
-166
122
-290
-198
159
-254
-529
-27
51
-455
-186
92
-340
-329
-5
-128
-347
-9
8
-521
-285
124
-234
-297
40
-251
-378
91
-32
-569
-299
82
-285
-372
41
-182
-461
40
106
-425
-233
127
-322
-356
53
-232
-369
-20
80
-210
-140
152
-107
-201
166
80
-122
335
350
-59
195
414
-29
-112
295
-26
-360
-49
-106
-461
-183
80
-390
-480
-32
-208
-575
-70
-171
-872
-188
1157
2071
3478
4855
4088
2520
1968
1253
440
464
429
-229
-432
-64
-363
-692
-253
-248
-703
-486
-157
-518
-595
-198
-461
-728
-220
-146
-543
-315
-67
-503
-537
2
-260
-614
-151
-43
-439
-279
-13
-375
-357
193
39
-402
11
221
-248
-3
429
63
-95
343
283
-47
352
551
102
352
717
240
158
540
204
-39
356
241
-273
-76
252
-210
-273
31
-263
-387
3
49
-352
-211
79
-388
-454
101
-122
-413
87
48
-510
-215
33
-457
-421
78
-167
-554
-84
50
-357
-107
216
-225
-396
49
-77
-372
53
119
-374
-202
88
-207
-243
-2
-142
-301
-106
-81
-352
-203
8
-305
-334
43
-102
-403
-33
-33
-437
-71
175
-354
-431
101
-86
-404
-61
-92
-435
-161
155
-225
-355
32
-57
-261
-33
-30
-237
-128
16
-206
-138
351
102
-319
203
331
-211
194
506
-37
67
515
203
-105
193
232
-138
-154
9
-238
-298
79
-169
-511
-58
44
-376
-204
83
-499
-669
300
1132
2339
4245
4665
3287
2379
1822
658
347
642
81
-411
-81
-221
-662
-260
-52
-562
-535
-182
-412
-606
-290
-249
-601
-389
-98
-481
-505
-100
-377
-594
-112
-132
-658
-362
11
-389
-391
-18
-220
-335
15
-31
-434
-124
307
-92
-98
365
104
-146
335
353
-92
221
581
100
28
606
336
-62
371
438
-69
69
328
-228
-249
208
-162
-471
-84
-40
-435
-225
-18
-441
-389
72
-175
-591
-158
-172
-641
-286
-148
-551
-487
-18
-124
-437
-94
-113
-452
-109
-29
-460
-250
163
-233
-549
-166
-90
-386
-69
74
-336
-154
62
-242
-317
-16
-126
-395
-88
52
-369
-390
-31
-314
-571
-42
26
-444
-304
-125
-370
-261
74
-210
-536
-129
-107
-502
-207
-8
-475
-510
38
-137
-476
-56
-101
-523
-124
80
-372
-263
123
-215
-479
-39
-21
-340
27
214
-299
-109
378
26
-51
443
242
-290
18
245
-281
-253
75
-233
-407
-172
-255
-531
-302
-59
-391
-515
-67
-138
-620
-345
48
503
2090
3772
4344
4031
3140
1821
890
894
621
-129
-92
-14
-603
-564
-240
-541
-645
-277
-381
-734
-416
-214
-655
-547
-130
-471
-683
-261
-204
-594
-369
-111
-555
-535
-143
-413
-635
-95
-108
-486
-135
-104
-432
-263
88
-104
-251
253
172
-212
87
222
-79
22
431
169
-34
546
504
52
368
486
64
174
529
104
-216
267
96
-523
-110
121
-431
-277
184
-207
-415
16
-63
-406
-179
63
-332
-295
143
-332
-553
11
-98
-501
-211
-23
-441
-348
51
-217
-422
-64
-88
-459
-59
88
-461
-265
106
-186
-393
-38
-87
-448
-97
58
-311
-349
-67
-139
-391
-154
-105
-442
-162
-1
-499
-350
59
-282
-411
-13
-219
-471
-40
-79
-487
-325
-47
-285
-416
-20
-105
-454
-116
-37
-472
-326
101
-219
-529
-30
-19
-479
-248
32
-267
-203
238
-44
-351
116
123
-240
152
268
2
179
337
42
-212
106
83
-453
-286
18
-437
-408
-36
-338
-506
-125
-125
-565
-219
-34
-741
-312
1021
1972
3395
4761
4199
2755
2031
1246
346
277
363
-293
-539
-152
-342
-774
-471
-224
-629
-498
-98
-578
-812
-285
-324
-676
-406
-260
-618
-499
-173
-466
-560
-170
-317
-565
-187
-105
-549
-397
-19
-299
-426
-44
-55
-409
-119
96
-307
-72
319
16
-10
417
380
-37
177
555
151
189
630
215
-34
467
346
-93
272
302
-228
-145
189
-192
-430
30
-118
-486
-61
114
-410
-327
68
-288
-399
104
-1
-506
-232
3
-456
-296
133
-182
-337
58
-61
-507
-111
67
-401
-216
93
-256
-271
113
-142
-340
36
63
-293
-184
130
-204
-334
109
-33
-430
-210
134
-130
-214
40
-251
-421
-24
-46
-510
-214
51
-431
-202
152
-339
-408
-17
-147
-394
-49
28
-460
-346
81
-191
-512
-102
-5
-339
-68
74
-345
-119
382
-9
-218
329
305
-81
206
401
-113
-204
92
-144
-324
-73
-198
-562
-132
38
-520
-380
-36
-231
-334
-134
-384
-747
257
1621
2652
4257
4907
3424
2031
1661
965
393
378
174
-259
-274
-14
-301
-493
-165
-214
-507
-258
-88
-534
-456
18
-374
-493
-77
-310
-404
-105
29
-268
-381
-14
-150
-350
15
-93
-394
69
104
-293
-40
230
-98
-145
390
186
-171
240
390
80
188
623
228
77
772
533
189
602
636
229
237
620
313
-17
335
253
-206
79
313
-239
-172
234
-141
-233
148
-54
-357
-13
153
-325
-177
199
-152
-208
114
-58
-349
-63
38
-384
-173
295
-82
-316
188
133
-361
-23
305
-176
-236
159
-89
-122
191
-120
-305
114
202
-239
-209
132
-117
-275
149
-24
-382
84
162
-271
-160
-43
-289
-307
150
134
-319
-110
98
-247
-255
101
-183
-336
136
15
-358
-67
155
-189
-25
303
-51
-180
300
323
-72
313
442
-98
53
387
-12
-210
217
5
-453
2
134
-391
-266
18
-312
-384
24
-139
-514
-300
-240
-481
351
2053
3180
4106
4440
3100
1662
1238
798
268
178
60
-271
-348
-135
-330
-663
-371
-218
-585
-483
-274
-535
-494
-199
-392
-689
-284
-159
-607
-443
-132
-419
-582
-84
-133
-676
-202
-16
-482
-346
-119
-240
-408
-166
-65
-270
-24
149
-123
6
217
-35
91
407
83
-90
319
399
76
202
475
100
-37
344
116
-269
86
124
-311
-220
-4
-333
-418
-107
-395
-524
-81
-203
-540
-236
-144
-513
-362
-51
-335
-639
-271
-193
-510
-207
-34
-422
-522
-130
-194
-468
-121
-94
-558
-349
-83
-428
-346
86
-201
-630
-134
-6
-525
-346
-29
-348
-469
-91
-237
-438
-149
-135
-488
-401
-125
-429
-462
-106
-341
-611
-282
-67
-409
-378
-21
-399
-502
-60
-303
-602
-156
-69
-630
-424
-50
-507
-484
-33
-222
-347
17
-36
-391
-156
200
-96
-261
225
161
-221
142
137
-437
-134
155
-453
-545
-181
-317
-557
-308
-193
-613
-494
-149
-512
-621
-166
-356
-394
1020
2530
3586
4538
4109
2516
1530
1090
514
137
213
-7
-635
-453
-176
-717
-735
-258
-396
-740
-418
-296
-854
-542
-135
-659
-679
-199
-466
-784
-245
-221
-599
-371
-241
-489
-552
-161
-171
-584
-241
82
-422
-404
49
-233
-327
114
11
-302
-55
112
38
195
268
57
39
374
311
24
330
438
-23
71
391
68
-105
214
-62
-418
49
159
-231
-265
-72
-244
-329
25
-36
-431
-285
-109
-441
-279
-10
-390
-363
71
-187
-503
-134
-66
-475
-295
50
-346
-459
57
-84
-452
-9
72
-485
-258
90
-327
-298
106
-283
-499
-9
-142
-532
-272
4
-172
-318
-88
-248
-579
-291
-83
-378
-312
101
-254
-541
-70
-171
-472
-118
-75
-429
-237
11
-286
-425
-110
-218
-490
-58
76
-332
-187
66
-230
-217
87
-89
-201
120
163
-71
100
333
76
94
437
138
-184
174
148
-356
-252
4
-308
-462
-29
-137
-456
-74
9
-432
-320
25
-473
-385
1029
2131
3292
4808
4525
2871
1979
1381
575
348
470
6
-433
-155
-136
-514
-358
-154
-597
-721
-235
-320
-603
-241
-198
-674
-519
-162
-494
-581
-25
-166
-640
-291
-131
-548
-276
140
-414
-419
206
-102
-447
-60
69
-280
-51
276
-84
8
453
153
-71
376
314
-135
210
650
299
164
523
338
108
501
419
57
243
322
-112
-214
316
67
-326
98
54
-355
-115
242
-86
-293
102
-61
-416
-6
163
-289
-250
152
-123
-454
16
66
-402
-47
66
-339
-117
172
-78
-233
2
-132
-312
94
37
-393
-101
204
-126
-175
159
-157
-341
74
-66
-364
-29
141
-255
-239
133
7
-198
-15
-8
-358
-199
227
-187
-423
112
-5
-381
77
50
-495
-121
79
-231
-208
131
-32
-473
59
206
-368
-21
413
-42
-71
385
197
-101
413
511
-8
162
316
6
-18
208
-108
-380
76
0
-498
-200
61
-353
-338
98
-177
-416
-128
-245
13
1391
3020
4132
4410
3800
2420
1216
953
694
104
-26
120
-311
-437
-57
-451
-675
-184
-180
-594
-398
-232
-598
-477
-131
-368
-534
-226
-294
-613
-278
-133
-496
-403
-81
-314
-539
-96
-69
-460
-157
48
-360
-281
156
-41
-276
114
100
-206
142
434
34
-20
412
183
-2
413
367
35
276
475
102
55
393
117
-164
155
69
-335
-117
114
-345
-327
39
-342
-565
-134
-107
-561
-332
-57
-420
-348
-56
-363
-506
-165
-259
-516
-223
-19
-363
-318
-35
-398
-496
4
-83
-534
-138
40
-554
-393
112
-227
-424
-38
-218
-563
-267
-4
-376
-409
-27
-260
-519
-293
-133
-441
-341
-45
-439
-524
-90
-257
-551
-248
-169
-556
-409
-46
-485
-523
-106
-377
-509
-200
-189
-433
-166
162
-364
-424
127
-54
-235
199
183
-293
-84
186
-174
-240
-62
-346
-502
-155
-191
-610
-444
-166
-541
-519
-130
-285
-548
-405
-418
-342
915
2577
3738
4274
3779
2338
1159
849
557
-74
-200
-65
-483
-465
-195
-738
-871
-426
-500
-703
-519
-388
-736
-711
-243
-517
-851
-378
-317
-816
-510
-183
-676
-646
-167
-427
-676
-300
-242
-523
-337
-145
-522
-469
-52
-231
-374
17
129
-298
-170
184
-103
-94
370
152
-132
388
310
-155
260
435
37
62
342
13
-250
260
86
-491
-172
17
-427
-399
15
-190
-528
-136
-52
-500
-200
16
-443
-435
-104
-396
-347
42
-344
-493
-191
-130
-333
-340
-36
-148
-339
-25
-50
-461
-331
49
-152
-360
19
-169
-472
90
2
-548
-112
175
-498
-482
92
-241
-424
-6
-127
-456
-308
-41
-358
-347
120
-258
-442
32
-110
-490
-181
1
-387
-281
149
-136
-456
-72
-7
-502
-242
96
-330
-325
74
-124
-371
-71
-53
-423
-133
184
-218
-173
185
-125
-227
319
269
-49
212
307
-62
-82
267
2
-294
-73
-184
-425
-143
79
-340
-438
-53
-185
-405
-131
-114
-586
-220
817
1545
3141
4910
4357
2949
2480
1496
407
687
685
-180
-166
31
-508
-451
-49
-307
-670
-413
-180
-605
-559
-49
-233
-587
-283
-196
-502
-227
-66
-495
-447
41
-261
-709
-132
17
-395
-65
95
-398
-292
66
-222
-152
260
88
-166
22
319
116
102
524
152
-26
506
417
47
317
613
206
182
590
332
67
328
233
-154
45
178
-206
-177
241
-22
-414
-13
193
-251
-98
310
-284
-374
316
-106
-411
159
-51
-376
22
42
-393
-213
152
-131
-296
119
82
-305
-110
170
-174
-228
323
31
-414
12
87
-158
-47
-1
-214
-160
211
7
-305
15
23
-320
-49
141
-241
-228
68
-192
-236
168
1
-315
-143
33
-213
-182
145
-137
-309
173
36
-399
15
200
-288
-95
244
-321
-324
224
58
-188
185
374
-198
-232
332
230
46
341
355
115
356
409
-55
58
407
34
-334
32
-20
-454
-107
66
-349
-307
44
-67
-264
77
-83
-609
306
1755
2811
4289
4952
3702
2417
1857
1042
440
637
454
-307
-307
101
-208
-539
-109
-160
-606
-217
-30
-498
-313
59
-260
-414
-90
-127
-443
-239
-92
-423
-189
73
-281
-291
21
-52
-377
-140
174
-189
-273
136
-16
-245
194
178
-155
218
428
76
140
497
218
48
573
561
64
374
624
127
212
609
188
-29
312
80
-185
123
114
-264
-174
85
-259
-402
68
24
-357
-137
51
-357
-291
149
-185
-405
83
-15
-440
-36
70
-430
-178
191
-135
-229
162
-32
-418
28
196
-285
-64
258
-207
-317
48
-88
-297
74
148
-296
-172
145
-208
-252
161
-73
-356
-10
18
-302
-61
208
-181
-326
123
-57
-389
84
100
-385
-109
258
-158
-289
103
34
-277
-113
130
-256
-282
243
-18
-276
298
240
-315
29
349
2
131
570
264
-12
394
288
-82
196
278
-184
-200
224
-40
-424
22
53
-404
-131
132
-311
-285
166
-359
-585
441
1424
2658
4328
4820
3447
2146
1715
868
436
661
166
-400
-94
63
-464
-456
-59
-400
-586
-103
-219
-668
-196
-89
-735
-376
40
-459
-606
-148
-147
-517
-165
-45
-635
-323
112
-322
-323
56
-152
-433
-58
165
-233
-76
296
-142
-238
179
5
-93
423
463
-57
60
597
266
-84
386
403
7
171
380
-26
-25
398
20
-305
117
86
-395
-222
91
-267
-229
195
-286
-531
12
-47
-410
-130
38
-333
-246
49
-211
-387
-32
39
-344
-228
48
-182
-144
139
-181
-338
132
-40
-372
51
-15
-380
-61
193
-121
-218
148
16
-349
-48
34
-383
-188
199
-140
-414
-2
-59
-544
-69
129
-403
-244
54
-152
-268
82
-15
-383
-110
29
-226
-157
-61
-283
-201
107
16
-318
-21
241
-217
-141
298
129
-4
318
175
-59
317
275
-175
-34
223
-188
-492
-96
-106
-525
-183
-51
-583
-377
13
-357
-356
6
-420
-621
481
1888
2983
4241
4603
3084
1688
1265
671
142
300
256
-408
-386
17
-430
-636
-149
-353
-697
-250
-227
-774
-506
3
-409
-667
-219
-309
-540
-191
-197
-478
-282
-138
-437
-486
-153
-279
-415
-7
-4
-392
-213
83
-114
-160
110
9
-256
58
333
-41
82
397
28
-39
380
347
26
295
515
18
63
515
114
-202
138
69
-300
2
129
-439
-291
78
-383
-449
54
-87
-585
-222
149
-307
-330
38
-265
-450
-82
-190
-479
-93
68
-436
-303
161
-226
-418
34
-136
-380
70
121
-356
-209
96
-287
-326
151
-112
-434
0
96
-311
-329
62
-123
-580
-113
108
-338
-119
28
-375
-240
20
-245
-319
-57
-106
-396
-193
-10
-344
-190
212
-274
-431
117
-95
-389
-74
-65
-338
-134
146
-226
-411
97
14
-328
90
244
-334
-82
427
-15
21
443
219
-108
212
410
-145
-171
173
-292
-594
-49
-100
-569
-33
80
-634
-374
56
-334
-559
-378
-160
459
1897
3514
4378
4210
3218
1910
1007
955
638
-199
-108
-9
-573
-420
-135
-474
-613
-353
-334
-686
-502
-245
-578
-441
-192
-533
-624
-244
-352
-663
-297
-242
-611
-360
-117
-447
-575
-84
-123
-527
-80
-21
-437
-133
163
-124
-277
127
110
-258
186
441
-119
-48
377
120
149
531
207
-75
415
586
4
-27
492
117
-229
294
90
-465
-65
148
-306
-346
12
-173
-350
72
-117
-450
-26
-80
-514
-290
-73
-291
-282
63
-14
-400
-163
145
-388
-359
211
-216
-375
149
-78
-519
22
262
-320
-150
234
-129
-272
140
-26
-410
-48
79
-299
-233
68
-158
-213
76
-188
-350
23
137
-287
-326
-19
-303
-299
170
-120
-472
1
80
-372
-208
75
-290
-384
32
-84
-338
104
101
-536
-245
164
-338
-320
273
49
-243
144
174
-292
-70
373
37
-10
466
274
-75
234
221
-224
-56
221
-258
-407
96
-112
-533
-107
41
-597
-438
107
-288
-368
-106
-255
458
2090
3581
4355
4268
3520
2066
955
878
597
97
178
53
-520
-422
-18
-333
-592
-196
-360
-635
-107
-150
-637
-414
-151
-470
-507
-89
-309
-669
-203
-136
-612
-266
157
-317
-476
190
-40
-564
37
27
-532
-103
261
-162
-261
261
183
-258
212
418
-26
215
507
143
59
397
258
133
511
484
72
236
513
118
-28
282
68
-206
101
122
-291
-56
162
-232
-220
82
-96
-363
-35
-5
-447
-145
187
-199
-291
68
-102
-365
21
85
-218
-35
85
-272
-189
280
-35
-354
111
148
-267
30
308
-239
-292
207
12
-264
0
23
-250
-54
238
-171
-199
255
-133
-397
101
22
-375
-111
92
-206
-272
57
-54
-352
-102
2
-258
-86
117
-289
-310
200
-54
-476
-21
95
-365
-56
294
-185
-165
293
76
-101
336
355
-12
280
466
-39
-155
263
125
-278
-7
56
-404
-276
13
-308
-438
46
40
-436
-88
21
-668
-302
937
1893
3250
4758
4436
2781
2029
1590
608
401
491
-41
-138
-30
-372
-470
-151
-188
-587
-334
19
-408
-447
-56
-361
-554
-78
-135
-570
-268
-19
-400
-424
-3
-212
-507
34
-53
-505
-70
142
-248
-241
104
-10
-275
25
188
-198
87
398
-100
-10
557
285
-72
295
435
111
150
487
270
73
493
327
-33
270
253
-117
-63
76
-174
-107
103
-190
-344
-52
-13
-403
-184
130
-325
-424
3
-73
-333
34
-10
-472
-142
112
-328
-362
109
-90
-462
-79
47
-367
-197
172
-265
-397
120
0
-342
-112
3
-410
-259
95
-299
-320
8
-247
-418
-115
-78
-326
-242
-145
-358
-267
29
-286
-536
-8
-12
-459
-284
-57
-306
-353
95
-210
-631
-113
-41
-434
-148
107
-342
-269
82
-176
-230
187
203
-250
125
461
-115
-81
283
-185
-480
-87
-117
-494
-433
-184
-336
-499
-274
-413
-631
-276
-337
-700
-483
-100
394
1871
3910
4373
3455
2686
1692
607
459
527
-234
-640
-263
-408
-644
-355
-531
-875
-529
-312
-644
-745
-394
-509
-740
-420
-448
-727
-441
-339
-858
-745
-167
-394
-654
-349
-398
-573
-306
-204
-621
-457
12
-391
-620
-149
-143
-496
-162
50
-355
-256
167
-65
-207
168
36
-199
92
270
-92
-292
103
53
-276
6
9
-399
-200
-7
-474
-565
-158
-306
-525
-264
-380
-652
-362
-229
-550
-398
-155
-509
-622
-269
-214
-576
-411
-122
-531
-435
-13
-291
-428
-134
-255
-457
-178
-149
-387
-211
-71
-414
-420
-86
-271
-441
-102
23
-348
-408
-82
-221
-432
-73
-107
-584
-190
218
-340
-495
-7
-181
-470
-68
-88
-453
-94
62
-507
-418
26
-189
-335
21
14
-342
-67
126
-355
-261
201
-15
-210
127
206
-54
183
363
45
125
541
283
-2
377
265
-132
-28
37
-290
-298
107
-157
-396
129
113
-381
-183
183
-274
-504
310
1053
2134
4089
4821
3858
3004
2235
983
608
884
234
-315
41
64
-308
-183
14
-436
-470
-43
-422
-478
14
-149
-453
-155
43
-422
-472
-12
-143
-322
71
20
-371
-85
181
-209
-134
310
-206
-463
215
139
-242
62
254
-35
4
504
255
-17
487
492
71
316
566
208
350
765
393
127
584
420
-12
345
476
-48
13
347
-5
-133
167
87
-285
-18
248
-258
-161
214
-148
-292
84
83
-265
66
232
-250
-170
194
-86
-284
190
120
-454
-118
295
-119
-150
168
53
-125
108
72
-280
-16
225
-171
-205
254
-136
-426
195
77
-389
31
224
-287
-157
162
-205
-335
101
76
-436
-123
214
-298
-277
186
-112
-292
69
-9
-258
-136
95
-206
-372
78
-18
-266
185
191
-176
173
224
-185
67
477
250
111
369
184
-56
162
163
-213
-145
139
-249
-448
34
-62
-512
-298
-38
-388
-366
31
-338
-755
-178
712
1559
3285
4813
4175
2965
2390
1169
453
819
331
-310
-18
-117
-586
-422
-105
-378
-617
-393
-414
-614
-322
-63
-544
-565
0
-304
-550
-148
-259
-533
-228
-170
-544
-434
-8
-211
-404
49
-166
-643
-173
140
-206
-118
147
-118
-166
234
181
-169
116
295
-82
145
566
220
-29
331
367
164
338
330
102
184
317
32
-191
78
-9
-339
-16
86
-350
-241
74
-141
-400
-101
-157
-566
-151
-21
-467
-210
143
-309
-479
57
-39
-445
-125
54
-293
-319
-62
-228
-351
63
-53
-447
-6
118
-355
-200
-29
-220
-178
68
-47
-410
-121
18
-397
-244
43
-177
-326
-68
-51
-452
-295
43
-267
-273
126
-252
-420
160
-158
-625
-82
128
-270
-254
-26
-281
-335
41
-30
-236
71
197
-170
-20
222
3
106
439
305
-98
61
242
-155
-185
54
-235
-417
-53
-169
-584
-225
-69
-423
-252
148
-281
-772
-189
493
1382
3388
4756
4051
3009
2269
1068
562
735
277
-311
-228
-64
-360
-377
-146
-440
-643
-367
-392
-575
-245
-91
-573
-473
-40
-390
-545
-162
-271
-493
-192
-70
-404
-370
-18
-252
-455
-59
-140
-473
-91
57
-225
-81
258
-150
-390
258
173
-168
284
447
-114
80
625
136
-35
480
361
-21
331
464
-123
-22
437
-3
-257
121
-20
-372
-9
176
-315
-196
92
-253
-338
-31
-147
-476
-95
174
-426
-427
41
-276
-441
41
-20
-493
-106
235
-389
-326
117
-214
-256
117
-100
-483
-108
127
-369
-206
76
-341
-350
-32
-69
-336
-67
15
-498
-248
114
-213
-426
-100
-145
-478
-64
-30
-465
-269
-41
-318
-425
10
-57
-433
-76
39
-422
-322
-161
-441
-282
120
-59
-327
88
189
-286
-63
395
51
-117
382
331
-167
26
188
-276
-132
116
-416
-479
-69
-280
-565
-240
-157
-494
-238
1
-365
-493
-300
-167
556
2380
3888
4259
3959
2977
1542
681
717
426
-148
-155
-217
-569
-405
-91
-601
-703
-86
-364
-712
-269
-243
-677
-479
-103
-470
-619
-125
-314
-617
-261
-193
-551
-550
-104
-210
-383
13
-212
-498
-13
-16
-420
-107
138
-144
-117
200
120
-203
185
288
-135
154
362
20
65
499
387
42
285
441
71
109
357
46
-154
146
158
-236
-72
-3
-433
-129
181
-243
-354
41
-76
-453
-124
80
-374
-289
72
-372
-537
-92
-129
-389
-113
83
-449
-390
135
-94
-230
151
87
-281
-28
75
-313
-105
99
-245
-252
132
-127
-466
38
38
-374
-99
163
-212
-396
25
-123
-436
24
45
-456
-213
97
-429
-467
153
-87
-417
-14
-39
-403
-207
141
-263
-410
155
-25
-385
-15
51
-290
-152
21
-158
-164
145
16
-268
202
270
-168
122
473
153
-43
290
148
-220
102
125
-358
-258
22
-168
-390
-177
-173
-409
-100
-134
-555
-244
-56
-301
619
2420
3641
4359
4322
3101
1640
1005
904
390
-20
70
-222
-489
-197
-322
-699
-488
-224
-492
-581
-161
-273
-661
-339
-160
-659
-534
-97
-378
-428
-87
-264
-526
-232
-178
-456
-225
35
-368
-445
166
-30
-438
77
212
-248
3
377
-151
-159
465
199
-148
243
312
-23
258
464
38
136
451
158
12
337
333
-83
-30
290
-116
-331
63
-167
-466
-24
228
-273
-362
47
-208
-368
25
-115
-425
-91
-23
-575
-403
122
-314
-501
60
-171
-489
-74
-103
-392
-156
37
-297
-328
116
-149
-431
26
-85
-497
-224
69
-326
-482
1
-144
-505
-139
77
-480
-421
149
-268
-516
-2
-143
-575
-163
-27
-623
-509
19
-255
-453
5
-4
-596
-337
-12
-536
-294
64
-390
-434
27
-167
-518
-90
113
-300
-252
155
-86
-236
215
138
-285
176
410
-121
34
272
-178
-353
-33
-224
-494
-182
-173
-553
-459
-95
-327
-456
-41
-276
-710
-282
366
1293
3189
4682
4179
2928
2223
1170
341
604
311
-475
-298
-45
-461
-563
-320
-521
-774
-489
-357
-668
-564
-326
-613
-748
-262
-397
-806
-295
-133
-553
-377
-181
-469
-477
-192
-321
-567
-324
-230
-417
-125
85
-310
-343
58
-33
-280
-19
158
-156
18
350
-110
-148
372
196
-11
396
339
-67
185
442
54
-73
253
27
-213
74
-68
-398
-143
137
-210
-451
-101
-228
-511
65
117
-581
-293
-19
-581
-466
-8
-211
-409
-86
-85
-455
-225
53
-329
-398
27
-166
-423
-107
-83
-403
-200
74
-309
-323
66
-145
-338
71
19
-429
-273
-53
-271
-283
-5
-196
-465
-120
-65
-446
-184
68
-468
-536
8
-276
-484
90
-88
-620
-292
-73
-429
-381
-55
-309
-483
-11
64
-434
-357
42
-287
-366
239
-1
-361
-39
-75
-184
81
334
105
14
308
10
-392
50
145
-422
-217
-49
-528
-503
-120
-290
-513
-173
-190
-571
-269
-49
-650
-456
967
2270
3466
4614
4126
2420
1524
1083
536
143
176
-78
-597
-216
-192
-724
-414
-161
-639
-575
-126
-364
-581
-353
-377
-580
-350
-153
-556
-609
-102
-234
-615
-240
6
-494
-354
105
-315
-361
97
-238
-456
154
124
-347
-61
245
-148
-195
392
204
-264
272
485
-10
201
452
54
95
541
297
29
390
348
-122
-46
140
-124
-129
88
-182
-410
-53
-23
-445
-234
60
-342
-369
1
-235
-493
-153
-61
-422
-181
94
-508
-472
88
-290
-432
91
82
-320
-167
-21
-438
-362
78
-52
-324
-141
-203
-516
-114
116
-520
-461
174
-324
-651
-5
-62
-456
-201
-23
-387
-429
-12
-287
-610
-125
-155
-576
-338
-75
-421
-462
-67
-427
-628
-48
-109
-537
-334
-201
-510
-448
-92
-309
-516
-188
-217
-477
-195
0
-301
-243
104
-66
-255
78
130
-198
-31
172
-212
-247
5
-347
-521
-130
-209
-554
-310
-144
-600
-632
-174
-396
-506
-188
-527
-724
363
1886
3103
4240
4378
2936
1638
1287
820
224
92
39
-521
-615
-160
-458
-676
-317
-483
-807
-481
-325
-671
-562
-266
-516
-662
-280
-223
-589
-442
-232
-588
-465
-31
-362
-599
-140
-128
-530
-179
11
-288
-1
317
-4
-303
23
192
24
169
296
19
-10
238
160
70
402
412
-119
162
535
159
216
435
142
-191
70
194
-194
57
300
-263
-403
97
-83
-328
-53
-157
-319
-78
27
-342
-226
208
-249
-472
38
-20
-422
-71
189
-280
-208
149
-186
-361
54
-30
-355
-41
195
-178
-238
222
7
-300
84
65
-230
132
224
-335
-163
191
-165
-283
132
-44
-453
-52
135
-288
-286
162
-57
-466
-95
5
-399
-132
74
-391
-244
150
-220
-360
61
-105
-498
-146
109
-331
-307
114
-264
-467
28
-123
-586
-231
80
-221
-33
269
-76
-219
161
189
-158
205
516
38
130
449
75
-92
135
-148
-411
-55
49
-298
-313
-35
-191
-396
-17
61
-380
-409
-273
178
1563
3183
4160
4387
3832
2426
1156
1007
887
188
-15
165
-141
-437
86
-13
-735
-277
16
-467
-337
-59
-377
-444
-45
-197
-447
-146
-12
-409
-364
3
-297
-415
34
-182
-612
-10
187
-449
-263
215
-107
-267
241
124
-216
4
20
2
61
239
235
168
525
360
34
391
370
59
342
472
277
318
528
267
-148
264
492
-129
-51
447
114
-238
66
144
-255
57
242
-419
-231
383
42
-305
55
72
-353
-42
226
-355
-374
72
-169
-302
133
-4
-491
-129
171
-225
-134
151
-159
-223
19
-118
-185
-65
-51
-290
-210
198
-88
-294
27
-136
-416
-28
94
-458
-328
154
-239
-427
112
14
-495
-104
61
-484
-277
133
-314
-567
-226
-339
-448
-100
-67
-453
-371
-35
-396
-406
-123
-488
-639
-281
25
-314
-479
-39
-228
-470
3
-38
-452
-19
181
-386
-275
103
-317
-511
-76
-193
-601
-338
-149
-525
-442
144
1
-407
60
81
-706
-403
487
1247
2755
4361
4250
2941
2136
1175
314
428
32
-675
-549
-336
-771
-1024
-663
-764
-1222
-914
-564
-968
-977
-653
-851
-1072
-886
-926
-1157
-845
-662
-1135
-1070
-640
-986
-1117
-754
-989
-1197
-741
-654
-1020
-732
-433
-785
-665
-193
-503
-785
-279
-253
-603
-332
14
-372
-616
-40
-100
-455
-49
-39
-548
-372
-35
-310
-524
-420
-433
-686
-521
-421
-863
-727
-372
-799
-975
-513
-685
-1022
-672
-659
-1039
-779
-554
-900
-937
-641
-879
-1089
-708
-790
-1248
-930
-572
-1050
-1190
-655
-856
-1229
-776
-668
-1018
-1021
-800
-1000
-1265
-866
-848
-1202
-919
-813
-1262
-1125
-641
-1014
-1312
-841
-987
-1374
-908
-783
-1239
-1170
-916
-1324
-1560
-1162
-1314
-1755
-1463
-1363
-1874
-1785
-1469
-1811
-2021
-1697
-1861
-2194
-1917
-1925
-2259
-2199
-1976
-2230
-2311
-1829
-2001
-2629
-2202
-1626
-2166
-2142
-1743
-2064
-2119
-1876
-2126
-2526
-2275
-2186
-2751
-2741
-2367
-2942
-3044
-2503
-2933
-3020
-2663
-3000
-3086
-2714
-2854
-3354
-3014
-1703
-526
842
2100
1427
-309
-1165
-1593
-2260
-2583
-2557
-3042
-3559
-3159
-3016
-3579
-3515
-3309
-3619
-3636
-3297
-3352
-3672
-3515
-3382
-3618
-3467
-3187
-3496
-3633
-3159
-3230
-3622
-3293
-3059
-3333
-3135
-2810
-3275
-3313
-2706
-2948
-3331
-2804
-2514
-2954
-2778
-2450
-2947
-2801
-2112
-2409
-2719
-2180
-2008
-2340
-2155
-1945
-2151
-1985
-1736
-2027
-2014
-1486
-1447
-1896
-1746
-1519
-1956
-1991
-1563
-1684
-1946
-1627
-1476
-1830
-1770
-1308
-1452
-1628
-1199
-1331
-1624
-970
-957
-1398
-1040
-1012
-1182
-970
-622
-803
-1120
-610
-441
-859
-676
-282
-528
-637
-258
-347
-594
-370
-266
-579
-435
-141
-466
-584
-287
-491
-756
-280
-197
-642
-444
-291
-652
-598
-318
-515
-664
-409
-580
-859
-601
-409
-792
-817
-448
-691
-875
-638
-596
-921
-617
-238
-641
-594
-231
-422
-679
-374
-159
-353
-172
38
-379
-442
-23
-300
-715
-391
-342
-760
-552
-335
-640
-694
-413
-485
-694
-439
-286
-671
-738
-400
-33
1365
3413
4305
3944
3125
1872
663
509
680
33
-366
-112
-390
-660
-313
-423
-785
-460
-91
-477
-645
-255
-347
-568
-312
-276
-459
-220
-61
-377
-438
-44
-99
-426
-164
0
-427
-266
173
-180
-353
219
33
-371
189
284
-77
163
431
69
114
633
217
30
625
607
345
553
781
379
281
800
562
200
585
634
107
294
708
229
97
568
394
105
449
493
3
224
664
389
348
636
442
232
717
763
281
561
690
241
437
836
648
395
644
708
259
506
965
591
514
912
639
316
738
842
229
482
1019
499
452
816
456
290
787
876
417
552
816
454
441
832
652
430
737
734
379
533
848
527
469
834
577
437
666
583
514
754
898
688
684
974
874
674
1040
1132
679
830
1055
728
567
867
621
267
634
579
265
506
649
290
383
591
292
409
669
260
222
1339
2945
4398
5236
5014
3514
2076
1774
1373
731
701
763
377
146
536
313
-2
535
456
-44
216
538
201
143
474
254
44
345
406
186
364
647
339
263
623
415
267
697
645
269
538
761
397
505
903
652
461
797
860
561
771
1038
778
809
1202
990
737
1086
1128
863
1081
1229
797
859
1160
878
626
826
931
519
574
863
568
466
698
596
361
665
685
334
594
768
453
511
826
570
356
769
787
279
523
892
467
485
887
663
450
700
660
432
727
874
498
455
788
641
385
790
760
351
660
833
374
416
814
544
434
818
685
368
454
597
509
507
832
639
397
641
572
375
588
757
378
398
820
610
407
766
845
490
708
953
608
791
1204
972
770
1085
982
524
854
1049
421
466
816
412
352
735
575
234
609
743
251
445
788
354
-125
703
2003
2900
4627
5700
4545
3197
2684
1711
973
1307
1121
494
546
613
224
246
629
360
77
402
412
197
384
570
280
172
575
419
192
611
597
249
480
726
351
230
758
706
297
628
678
363
791
928
386
498
1043
810
544
907
940
736
997
1076
776
973
1213
920
767
1279
1255
727
1086
1257
738
777
1132
774
482
882
795
330
608
891
487
504
951
609
316
776
755
445
588
718
532
529
798
406
261
885
719
364
667
800
415
467
910
530
309
743
571
220
692
873
366
501
834
422
218
706
707
292
487
743
407
385
712
424
286
696
602
240
474
679
351
354
710
516
296
637
602
276
594
780
321
449
860
463
246
624
597
417
788
922
496
676
979
635
763
1187
849
504
789
892
501
489
767
357
129
632
659
251
385
635
242
234
760
434
-24
245
753
1693
3489
5179
5275
4360
3572
2348
1280
1424
1181
431
437
572
212
143
579
161
-213
368
320
-4
145
232
73
181
474
125
-82
409
299
-69
381
546
104
205
575
197
16
590
477
93
522
632
116
353
768
426
360
748
634
373
738
904
612
742
903
725
780
1026
933
611
824
1033
601
414
749
590
365
726
588
181
420
497
67
187
648
354
138
501
347
58
315
486
65
-17
552
425
-32
284
351
-10
316
502
127
108
396
305
124
420
397
-14
294
527
4
104
555
260
-68
366
356
-181
302
575
3
51
398
163
6
186
96
-18
60
135
135
167
193
-52
-46
266
114
-150
219
380
-167
-94
413
90
-89
220
26
-127
227
290
-97
16
416
219
-45
343
514
110
253
475
126
305
771
576
322
559
338
-53
395
422
-113
6
324
-55
-315
150
117
-154
70
3
-39
103
-94
-127
882
2523
3739
4630
4774
3555
1936
1254
1127
634
240
279
145
-226
-43
75
-417
-300
76
-284
-394
-135
-189
-257
-19
69
-310
-244
84
-309
-399
204
116
-288
9
136
-168
4
228
-95
-203
271
170
-194
149
297
25
203
534
230
123
527
456
287
638
664
275
480
812
456
397
783
623
405
610
562
82
243
647
-17
-314
393
284
-194
152
213
-294
-143
197
-82
-238
122
86
-223
54
156
-245
-314
106
18
-193
126
51
-294
-51
182
-293
-215
340
15
-200
236
75
-326
84
355
-150
-95
261
-65
-120
151
3
-171
-41
65
-102
-60
171
-108
-169
225
0
-259
149
190
-308
-160
212
-122
-289
19
94
-126
1
-17
-331
-60
128
-225
-244
135
-75
-360
5
5
-493
-278
239
-52
-297
112
-57
-392
91
168
-236
-70
340
8
-83
491
105
-232
419
583
40
9
339
60
-189
19
-210
-441
-32
-20
-437
-271
24
-344
-472
-14
-78
-442
-498
-189
513
1699
3551
4574
4142
3396
2183
874
716
723
25
-125
-55
-514
-573
-252
-402
-767
-551
-361
-700
-615
-272
-734
-892
-361
-588
-859
-532
-658
-1038
-804
-564
-930
-1146
-854
-972
-1275
-798
-695
-1170
-924
-609
-849
-892
-512
-485
-866
-554
-181
-512
-421
-61
-332
-394
18
-154
-437
87
333
-204
-102
309
-88
-222
250
-8
-401
-14
-50
-442
-190
131
-192
-413
21
16
-371
-113
60
-262
-132
195
-132
-207
235
61
-166
49
43
-126
69
327
71
-38
225
175
80
300
361
4
137
617
174
-15
493
344
91
380
451
36
194
673
230
86
562
347
85
407
468
183
313
561
362
245
460
355
135
507
599
65
353
749
277
166
637
479
134
495
557
166
321
661
325
173
657
652
255
533
768
432
509
749
646
657
877
679
465
833
812
511
662
791
450
298
579
372
70
424
517
162
274
574
269
16
447
348
-225
340
1289
2196
3957
5228
4628
3338
2584
1645
872
1007
893
228
93
341
91
-68
267
99
-228
129
301
-114
-122
229
-51
-193
155
24
-163
91
102
-239
-34
319
-200
-357
276
241
-134
200
223
-262
69
420
4
-43
345
121
-129
338
468
54
153
459
241
92
417
331
67
436
475
110
252
404
166
105
300
91
-250
-20
96
-307
-268
-60
-318
-305
-55
-299
-530
-141
12
-436
-335
49
-303
-452
-114
-194
-427
-135
-46
-519
-298
36
-456
-449
77
-75
-423
-324
-204
-331
-184
107
-213
-320
-76
-321
-530
-172
-29
-502
-403
-52
-303
-432
-219
-279
-474
-231
-164
-538
-417
-157
-475
-490
-193
-429
-635
-236
-131
-686
-531
-99
-502
-591
-164
-373
-748
-301
-162
-570
-452
-158
-462
-650
-95
-273
-719
-166
38
-434
-384
-24
-277
-355
102
47
-138
49
-48
-293
-199
7
-336
-733
-304
-363
-767
-377
-334
-786
-535
-209
-640
-727
-241
-543
-1105
-201
1170
2177
3735
4472
3293
1989
1280
583
110
122
1
-584
-731
-420
-767
-844
-292
-730
-1077
-506
-490
-909
-946
-650
-745
-889
-446
-480
-872
-637
-483
-854
-709
-341
-723
-756
-340
-616
-838
-388
-237
-658
-610
-255
-456
-631
-235
-218
-570
-185
28
-444
-230
206
-176
-366
132
68
-351
-35
124
-163
-39
102
-269
-382
-5
-115
-518
-315
-169
-505
-455
-172
-453
-689
-350
-358
-611
-392
-308
-612
-504
-265
-548
-526
-313
-547
-697
-381
-170
-476
-506
-228
-579
-719
-115
-169
-561
-287
-172
-517
-444
-240
-423
-426
-85
-260
-656
-326
-149
-591
-469
-31
-455
-683
-177
-245
-592
-260
-211
-645
-406
-144
-474
-514
-164
-430
-709
-175
-70
-639
-522
-37
-436
-648
-164
-242
-557
-333
-177
-594
-445
29
-339
-546
-189
-228
-560
-347
44
-226
-325
36
-173
-318
33
62
-88
92
251
18
57
333
-30
-178
185
-132
-535
-175
-53
-403
-308
-21
-388
-492
32
-149
-495
-199
-209
-584
180
1851
2974
4127
4814
3587
2078
1534
953
373
264
156
-258
-539
-143
-171
-617
-249
-186
-597
-442
-235
-413
-429
-271
-419
-642
-175
69
-608
-458
-3
-580
-447
257
-116
-482
-86
39
-353
-221
170
-128
-184
232
138
-228
58
328
-50
89
518
156
6
438
486
212
447
616
171
372
721
302
323
673
333
43
300
375
44
94
222
-56
-69
157
50
-172
34
132
-195
-152
168
15
-256
162
206
-171
120
150
-141
39
222
-70
-27
342
61
-223
164
307
-83
9
397
68
-179
238
102
-290
215
477
-80
71
466
39
-100
307
103
-140
306
387
-92
-124
220
57
-68
283
124
-139
151
212
-2
148
319
26
-154
186
155
-179
92
287
40
10
264
131
-56
326
276
-132
233
394
-148
95
606
229
24
546
531
89
477
692
211
497
893
399
208
549
461
85
238
361
-58
-86
252
19
-56
347
125
-134
290
327
-311
-115
915
1708
3050
4875
4954
3495
2688
1946
925
944
1039
298
-25
250
93
-180
58
90
-243
-77
249
-103
-273
158
12
-371
69
351
-134
2
355
-91
-134
336
149
-262
187
405
-118
30
399
156
110
358
224
104
430
547
213
271
617
350
192
662
636
368
681
744
381
529
835
548
336
658
599
328
533
486
50
102
407
32
-163
313
206
-141
166
147
-307
-98
284
-63
-135
329
56
-275
150
186
-243
-116
220
-14
-226
116
66
-276
0
229
-125
-56
251
-109
-164
331
55
-318
133
297
-82
-58
278
-48
-183
272
109
-295
-6
214
-249
-103
300
-80
-224
36
-46
-230
75
238
-231
-230
242
19
-271
158
92
-321
157
349
-267
-257
132
-66
-197
240
156
-201
275
427
-94
47
534
218
48
641
551
110
357
473
8
42
439
-163
-469
274
167
-320
88
237
-228
-145
170
-48
-171
11
-121
187
1694
3355
4338
4439
3647
2383
1323
1119
801
217
299
193
-337
-186
92
-325
-375
-62
-217
-448
-213
-41
-426
-367
119
-197
-444
9
-116
-509
-87
91
-357
-252
46
-141
-266
22
-84
-312
93
161
-253
-32
278
-110
-67
406
264
-42
269
432
40
136
462
201
1
396
463
122
371
488
35
215
585
126
-18
388
182
-353
-175
212
-265
-345
149
-173
-403
24
21
-377
-138
-15
-486
-280
221
-103
-304
78
-149
-351
58
72
-289
-139
151
-208
-320
111
39
-295
39
265
-297
-270
289
-41
-341
5
-50
-283
4
89
-324
-259
81
-150
-209
177
-42
-428
-83
98
-299
-218
129
-182
-405
118
148
-398
-122
181
-305
-229
211
-209
-415
93
33
-379
-35
230
-258
-193
208
-23
-194
142
212
-44
191
282
-76
155
585
204
14
479
238
-139
175
116
-324
-170
130
-209
-393
-6
-149
-507
-80
-20
-380
-234
-309
-415
323
1814
3254
4183
4460
3543
2100
1254
969
500
117
173
1
-441
-332
3
-488
-499
-99
-420
-563
-265
-352
-586
-193
-133
-557
-324
23
-369
-484
-4
-205
-585
-158
-69
-394
-179
53
-261
-441
-22
-9
-349
11
251
-219
-131
372
147
-149
228
309
-121
183
544
98
245
663
217
93
552
373
86
429
440
-59
137
368
-119
-164
177
-12
-368
-60
102
-356
-141
184
-224
-320
3
-36
-342
-130
63
-331
-268
145
-256
-420
154
76
-341
-134
68
-298
-247
197
-72
-224
209
57
-287
40
86
-351
-211
177
-30
-406
-44
132
-239
33
129
-354
-249
172
-60
-258
129
45
-348
-86
101
-316
-300
112
-162
-482
68
-16
-494
-61
23
-231
-76
57
-191
-335
135
134
-399
-131
74
-354
-238
127
-158
-379
19
-27
-512
-222
249
-155
-195
355
76
-305
66
204
-34
234
405
12
160
545
180
-40
387
179
-309
62
152
-358
-292
104
-268
-394
202
-6
-451
-133
86
-414
-549
344
1298
2578
4423
4737
3466
2581
1741
774
642
731
150
-276
-29
-228
-561
-184
-57
-529
-517
-101
-375
-645
-233
-261
-586
-227
-36
-500
-452
-85
-344
-384
-141
-285
-388
-64
-22
-417
-265
-21
-282
-319
93
-45
-365
47
187
-205
7
362
30
-72
309
381
14
318
563
29
218
647
314
51
425
398
-11
199
331
-115
-108
131
-132
-258
-49
-60
-339
-171
5
-280
-277
-21
-224
-451
-83
-106
-469
-226
-52
-422
-291
106
-311
-456
-1
-115
-415
-148
-20
-393
-363
137
-101
-491
-5
-25
-472
-115
97
-317
-379
31
-71
-297
-59
-131
-268
-136
-78
-323
-339
24
-191
-375
1
-277
-559
-35
45
-429
-306
92
-213
-456
-110
-193
-472
-119
41
-406
-344
112
-238
-560
-40
0
-430
-258
-42
-350
-377
35
-151
-314
69
-53
-358
5
290
-67
-55
474
272
-174
233
222
-294
-42
73
-431
-382
50
-304
-615
-172
-167
-515
-343
-98
-346
-501
-251
-35
795
2587
4094
4353
3836
2785
1340
772
892
385
-244
-127
-173
-644
-370
-102
-635
-643
-179
-481
-798
-260
-217
-831
-539
-160
-581
-476
-101
-451
-597
-298
-366
-528
-226
-60
-453
-413
-8
-273
-574
-77
42
-348
27
262
-262
-182
243
-48
-159
298
283
-47
307
545
61
160
590
244
-35
446
498
-56
110
378
-24
-129
114
-173
-311
45
-59
-369
-152
-33
-385
-325
-65
-210
-385
-120
-74
-398
-169
-52
-393
-387
-76
-206
-514
-121
-15
-404
-168
106
-291
-327
121
-123
-334
79
-41
-400
-6
190
-260
-270
144
-56
-412
-4
72
-400
-194
29
-382
-294
150
-117
-410
-36
-17
-440
-159
87
-377
-289
94
-327
-478
-2
-43
-323
-171
-110
-348
-249
74
-180
-457
-31
37
-412
-226
55
-209
-105
199
23
-135
211
287
-104
165
396
-98
-65
294
-84
-402
-9
-76
-489
-210
-198
-530
-370
-88
-247
-483
-143
-179
-723
-485
270
992
2557
4398
4504
3383
2479
1404
486
581
475
-211
-269
-52
-319
-594
-476
-409
-598
-349
-198
-672
-613
-178
-445
-609
-183
-269
-549
-330
-284
-517
-402
-52
-208
-516
-236
-111
-391
-275
-117
-319
-195
164
-52
-262
92
95
-138
183
404
-70
-2
475
276
205
510
465
162
438
685
277
209
557
259
-13
458
285
-147
225
334
-68
-86
120
-97
-234
118
95
-307
-99
145
-185
-214
92
-155
-380
54
79
-253
-60
165
-156
-174
239
-42
-235
245
45
-419
38
393
-105
-146
321
42
-172
210
105
-230
44
250
-107
-168
161
60
-181
115
129
-282
-86
175
-117
-97
169
-104
-368
-108
94
-216
-167
135
-183
-270
-46
-136
-162
94
-32
-312
-19
85
-243
-201
84
-130
-255
190
185
-183
22
285
-26
-1
527
335
23
332
168
-217
143
266
-268
-223
121
-217
-534
-57
117
-410
-162
121
-356
-213
69
-473
-511
747
1995
3147
4635
4605
3001
1977
1469
799
403
330
70
-312
-189
-49
-461
-520
-92
-280
-544
-182
-261
-593
-326
-199
-464
-414
-2
-182
-546
-178
-133
-522
-284
63
-320
-474
-52
-161
-278
43
47
-228
-73
182
-138
-61
275
65
-36
267
203
55
465
550
185
282
573
322
237
531
530
323
282
392
88
40
353
65
-204
-10
33
-261
-66
150
-328
-218
201
-109
-348
-87
-64
-346
-135
73
-308
-246
182
-79
-408
-130
-152
-390
21
222
-237
-273
124
-24
-248
134
75
-209
91
28
-371
-215
169
53
-290
-10
68
-441
-125
145
-309
-205
145
-80
-351
-175
-39
-233
-178
-47
-290
-235
-35
-321
-326
50
-1
-334
-228
-18
-242
-275
-64
-263
-439
-40
-57
-323
-113
-145
-345
-187
163
39
-230
146
238
-105
66
286
64
85
451
233
-40
270
148
-371
-209
49
-315
-273
13
-230
-296
-22
-230
-519
-47
122
-515
-423
570
1554
2865
4525
4674
3179
2420
1785
574
435
611
-90
-487
-61
-140
-601
-443
-173
-457
-649
-213
-446
-932
-327
-131
-614
-401
-122
-497
-574
-201
-370
-646
-284
-119
-498
-352
-172
-509
-330
97
-287
-512
90
15
-444
-94
247
-118
-115
296
-14
-186
273
342
7
221
496
254
257
397
274
143
317
319
-6
110
290
-295
-354
187
-103
-405
-73
-123
-469
-209
-22
-463
-425
0
-245
-504
-171
-99
-529
-400
-8
-395
-455
-29
-251
-394
-140
-110
-398
-292
71
-255
-407
3
-133
-383
-52
-165
-509
-96
32
-416
-308
19
-226
-427
-67
-78
-435
-187
32
-273
-311
-60
-248
-422
-82
-21
-324
-185
52
-355
-443
57
-184
-519
33
42
-524
-265
-33
-452
-384
30
-188
-463
-71
65
-301
-52
199
-216
-182
65
-36
36
386
454
53
132
288
-110
-176
-62
-249
-357
-78
-89
-539
-307
-99
-480
-388
-158
-411
-434
-195
-488
-503
776
2515
3748
4456
4170
2699
1368
915
639
102
-73
-73
-441
-450
-294
-594
-735
-440
-313
-641
-497
-238
-660
-664
-218
-480
-857
-436
-229
-614
-591
-288
-494
-567
-137
-339
-697
-348
-297
-548
-361
-158
-421
-491
-144
-193
-339
-4
-72
-469
-69
243
-142
-220
102
89
-198
65
239
-238
-15
342
-217
-270
84
-302
-509
-107
-186
-684
-479
-220
-714
-758
-302
-670
-977
-411
-423
-910
-671
-470
-840
-908
-549
-587
-870
-570
-490
-965
-857
-543
-790
-893
-493
-570
-898
-569
-571
-950
-677
-392
-743
-899
-495
-573
-932
-613
-606
-959
-710
-509
-779
-837
-483
-666
-1016
-591
-552
-1004
-837
-568
-852
-955
-534
-749
-1061
-632
-622
-1007
-799
-496
-797
-872
-637
-817
-980
-629
-595
-1030
-939
-654
-884
-946
-581
-652
-898
-497
-480
-1000
-716
-389
-658
-612
-247
-437
-702
-331
-325
-748
-557
-409
-945
-960
-507
-782
-1029
-750
-757
-1007
-1000
-729
-892
-1091
-560
-842
-1478
-654
354
1370
3153
4078
3115
1835
1221
334
-442
-253
-347
-994
-873
-685
-1165
-1197
-847
-1059
-1334
-994
-908
-1399
-1159
-767
-1177
-1297
-921
-1008
-1320
-1042
-869
-1249
-1028
-557
-1010
-1201
-714
-875
-1159
-766
-750
-1108
-750
-476
-864
-875
-507
-608
-849
-477
-333
-619
-260
-133
-513
-427
-148
-228
-463
-125
-9
-502
-258
-77
-514
-443
-232
-519
-800
-532
-571
-943
-630
-415
-815
-870
-476
-552
-946
-723
-597
-967
-713
-431
-917
-948
-499
-664
-826
-518
-575
-941
-655
-421
-835
-855
-510
-551
-728
-484
-466
-860
-631
-292
-688
-788
-348
-577
-828
-343
-336
-786
-550
-298
-720
-803
-390
-531
-919
-529
-288
-806
-654
-274
-698
-699
-353
-597
-667
-298
-385
-758
-518
-229
-641
-780
-288
-368
-702
-398
-346
-682
-543
-245
-478
-629
-143
-320
-697
-275
-226
-606
-436
-149
-505
-473
91
-24
-317
-40
0
-371
-80
263
-110
-28
455
188
-278
27
114
-318
-168
-21
-496
-452
28
-298
-545
-75
-115
-581
-370
29
-431
-887
-250
599
1547
3414
4731
4171
3186
2373
1024
465
771
226
-245
-83
-268
-510
-412
-267
-511
-611
-210
-334
-702
-362
-170
-568
-516
-139
-470
-546
-139
-325
-600
-331
-122
-534
-320
38
-362
-369
-35
-148
-423
-74
90
-358
-162
230
-52
-135
294
230
-148
276
506
149
379
603
304
271
635
623
306
548
671
115
165
509
131
-4
235
38
-73
190
162
-202
-212
134
68
-208
57
92
-346
6
262
-285
-177
202
-190
-265
314
37
-500
21
265
-133
-9
229
-134
-150
341
145
-209
176
292
-161
30
415
78
-110
239
72
-218
206
243
-139
108
364
-73
-160
348
213
-144
116
238
-38
72
336
-89
-163
390
88
-165
330
321
-113
-44
269
82
-34
318
204
-47
188
189
-61
96
367
109
7
247
101
-59
274
356
49
221
432
129
162
568
388
205
594
699
363
380
568
180
-25
384
150
-232
236
278
-216
-115
275
-3
-260
178
119
-201
27
-4
-84
1095
2777
3963
4810
4585
3184
1881
1390
1106
525
463
445
-245
-302
176
-6
-367
-126
30
-354
-255
124
-173
-324
68
-64
-369
61
160
-262
-94
257
-197
-370
152
6
-247
88
221
-153
1
418
-28
-150
427
313
-84
204
322
53
284
622
360
327
709
490
285
688
831
533
576
883
516
241
687
532
46
294
433
-12
73
364
-79
-255
198
161
-171
68
162
-185
-21
297
-26
-178
237
56
-286
135
110
-293
29
342
1
-157
237
180
-223
50
232
-116
66
368
4
-128
228
127
-134
211
271
-124
73
286
50
-51
128
72
-165
161
256
-186
-99
287
97
-126
228
144
-238
22
189
-68
25
213
-16
-67
185
70
-193
140
264
-226
-54
308
-20
-65
260
-29
-273
189
325
35
146
412
121
12
544
427
5
450
704
225
228
478
146
57
374
107
-218
68
89
-216
-37
193
-258
-298
279
129
-235
-99
-132
7
1303
2957
4065
4649
4244
2815
1586
1299
960
220
132
302
-186
-339
96
-118
-433
-101
-42
-444
-346
64
-170
-407
-27
-91
-503
-92
107
-419
-278
193
-57
-314
16
-57
-389
15
284
-220
-210
206
-17
-162
271
163
-193
320
468
83
187
559
429
125
585
695
281
574
768
341
429
716
339
220
555
310
81
217
163
51
-34
85
-35
-169
97
-117
-390
-5
45
-420
-183
172
-352
-499
73
1
-473
-71
119
-378
-125
226
-154
-298
53
11
-232
-16
138
-228
-258
102
-187
-268
207
-12
-300
51
53
-284
-115
274
-8
-206
124
-77
-367
29
176
-281
-234
116
-216
-331
153
-60
-389
10
108
-265
-179
114
-256
-453
112
91
-448
-127
173
-224
-279
37
-127
-370
56
19
-332
108
276
-217
-110
351
43
-79
386
256
39
346
354
-80
38
357
-82
-320
1
-192
-506
-175
8
-429
-329
42
-310
-407
2
-74
-683
-536
394
1113
2569
4487
4564
3427
2674
1554
477
490
520
-27
-200
-52
-347
-582
-267
-284
-699
-406
-150
-581
-573
-255
-441
-597
-341
-332
-655
-384
-84
-499
-471
-106
-388
-535
-162
-350
-576
-89
-15
-524
-320
109
-188
-291
110
24
-290
51
117
-156
224
568
144
73
512
437
162
412
617
228
287
643
266
-41
282
200
-239
-53
86
-255
-159
46
-237
-381
38
-38
-496
-163
16
-377
-347
-110
-281
-488
-113
-19
-562
-362
29
-301
-336
-46
-229
-407
-106
-33
-464
-228
148
-417
-391
137
-262
-473
36
-91
-468
-72
111
-298
-276
-40
-279
-419
-117
-158
-363
-120
-37
-375
-377
-30
-215
-414
-50
-200
-546
-162
-9
-363
-244
84
-177
-406
-38
-98
-447
-96
-21
-405
-252
174
-173
-657
-165
-16
-348
-61
65
-320
-270
34
-248
-462
-43
-57
-426
-175
-25
-271
-127
159
-117
-230
110
-84
-245
264
267
-108
310
555
-38
-114
290
-21
-326
-10
-38
-404
-353
-127
-268
-443
-159
-173
-513
-281
-68
-490
-628
-13
675
1890
3840
4781
4007
3127
2278
854
492
802
145
-351
-50
-157
-689
-550
-286
-577
-509
-195
-501
-670
-359
-410
-601
-366
-262
-623
-498
-104
-515
-688
-96
-223
-639
-188
-17
-464
-441
-131
-222
-273
49
-79
-309
-31
31
-171
-44
185
80
30
362
315
23
321
418
84
293
710
413
236
572
311
9
335
404
21
21
244
-148
-245
167
7
-289
-130
-117
-395
-190
118
-218
-456
-54
-34
-458
-210
42
-335
-329
-9
-273
-484
-84
-139
-545
-145
50
-483
-335
51
-303
-428
-18
-218
-479
-8
92
-394
-261
114
-212
-337
-20
-113
-451
-175
7
-310
-215
5
-240
-417
-27
-76
-540
-107
166
-332
-299
-43
-165
-264
-97
-103
-370
-210
27
-274
-179
90
-260
-377
-113
-110
-314
-99
2
-403
-320
-54
-264
-370
-98
-142
-387
-42
87
-187
-143
48
13
-164
138
280
-41
163
403
59
61
372
40
-237
144
138
-323
-102
38
-484
-391
37
-207
-421
-92
-28
-334
-171
-195
-684
-110
1389
2630
3825
4796
4075
2470
1739
1234
441
274
431
-184
-426
-11
-279
-607
-235
-140
-656
-526
-99
-458
-605
-151
-242
-601
-289
-87
-582
-484
30
-302
-529
-145
-110
-490
-343
-22
-313
-329
80
-111
-353
125
201
-285
-230
77
-41
-3
387
218
-3
377
412
102
261
511
281
317
614
291
172
518
396
15
78
191
-147
-202
32
-140
-304
-59
-145
-450
-162
73
-302
-315
-6
-368
-478
-61
-225
-485
-249
-97
-340
-363
-75
-265
-441
-34
-194
-656
-190
79
-355
-330
71
-181
-408
-38
-168
-549
-122
163
-403
-306
190
-227
-435
-61
-105
-363
-146
23
-348
-371
-27
-284
-536
-70
-36
-427
-287
-197
-306
-115
-8
-282
-354
20
-80
-474
-179
-1
-280
-249
-44
-252
-461
-85
-14
-460
-112
204
-355
-255
200
42
-128
84
72
-270
73
432
33
96
434
67
-103
214
50
-246
-104
-33
-314
-350
-57
-273
-501
-128
-141
-549
-354
5
-369
-687
-259
243
1155
3130
4510
4226
3438
2342
987
535
693
157
-495
-173
-91
-568
-341
-259
-682
-609
-267
-419
-711
-378
-305
-745
-514
-242
-579
-524
-236
-460
-635
-369
-368
-708
-454
-90
-384
-420
-162
-324
-493
-210
-112
-355
-241
-48
-208
-171
146
-45
-189
250
154
-188
137
281
59
164
319
171
75
306
378
-7
80
271
-248
-242
100
-297
-532
-159
-143
-438
-248
-163
-543
-552
-218
-363
-588
-286
-253
-610
-390
-134
-581
-638
-192
-324
-541
-135
-131
-706
-492
-25
-372
-457
-56
-242
-494
-189
-39
-451
-449
-80
-407
-413
71
-277
-667
-192
-24
-514
-463
-39
-348
-520
65
-210
-721
-132
-87
-563
-233
-51
-477
-341
49
-372
-553
-136
-85
-312
-316
-180
-350
-343
2
-169
-347
0
-26
-336
-121
78
-245
-200
249
37
-176
322
331
-17
173
287
-4
-69
162
-48
-359
-37
12
-429
-282
10
-368
-521
-70
-155
-413
-67
-195
-733
-347
569
1423
2970
4637
4428
3047
2348
1457
480
532
528
-115
-340
-44
-299
-617
-173
-129
-667
-401
-86
-649
-588
-113
-364
-479
-290
-293
-422
-300
-71
-321
-421
-157
-240
-392
-110
-43
-451
-256
146
-249
-287
179
-102
-304
93
-1
-286
83
400
92
119
485
283
62
420
518
69
291
690
239
286
684
233
22
375
318
-134
-68
278
-162
-340
133
-32
-336
-25
25
-332
-158
-34
-436
-366
3
-200
-418
-12
86
-421
-258
-26
-475
-384
40
-145
-328
-88
-83
-331
-113
128
-234
-269
83
-179
-334
126
79
-444
-256
92
-233
-265
65
-116
-338
-31
-23
-386
-145
42
-331
-210
139
-217
-501
-85
-25
-387
-161
146
-188
-259
119
-132
-436
31
123
-414
-191
183
-309
-380
88
-127
-347
38
-3
-439
-143
213
-134
-159
173
8
-212
129
236
-70
125
299
27
136
466
217
-78
203
161
-264
-59
239
-173
-366
53
-140
-502
-90
35
-350
-245
-18
-325
-484
-44
568
1545
3344
4775
4442
3434
2617
1354
746
979
423
-210
35
-87
-569
-306
-45
-393
-452
-212
-410
-653
-284
-133
-558
-392
-108
-399
-550
-343
-275
-347
-142
-214
-548
-332
-37
-380
-488
-76
-130
-310
-106
-96
-328
-122
190
-182
-222
371
146
-105
375
377
-9
218
598
202
65
551
420
121
431
434
57
298
522
47
-152
275
74
-346
81
35
-369
-80
1
-331
-270
31
-89
-400
-190
36
-294
-242
-23
-376
-432
-41
-105
-476
-161
130
-395
-321
69
-339
-297
133
-137
-482
-181
77
-404
-264
207
-291
-271
191
-158
-398
-19
44
-341
-226
53
-330
-396
46
-170
-428
46
17
-530
-252
40
-247
-276
23
-134
-406
-93
-105
-401
-170
37
-328
-338
78
-187
-431
-144
-113
-325
-208
9
-146
-288
27
81
-238
94
105
-333
-39
247
68
65
341
321
8
152
312
-68
-95
258
-104
-382
39
-51
-403
-128
-81
-491
-313
57
-280
-436
-54
-388
-532
672
2088
3255
4551
4607
3076
1913
1311
720
442
355
43
-369
-281
-72
-404
-641
-249
-137
-570
-343
-120
-619
-512
-107
-477
-577
-155
-359
-676
-261
-21
-436
-424
-170
-376
-371
-65
-136
-436
-224
27
-330
-254
156
-148
-244
155
30
-166
194
306
-173
4
479
122
100
558
335
66
475
533
196
338
382
29
35
362
98
-307
-26
58
-223
-179
-21
-197
-333
-87
-177
-383
10
-47
-543
-289
-23
-370
-443
-140
-221
-398
-89
-35
-466
-296
66
-277
-312
88
-147
-454
-134
-32
-441
-257
85
-301
-324
168
-65
-539
-169
48
-388
-217
163
-247
-391
30
-106
-448
-79
91
-318
-203
100
-249
-429
10
-106
-431
-21
65
-357
-200
30
-358
-446
37
-28
-407
-118
76
-344
-278
149
-160
-363
137
20
-380
152
392
-110
-2
411
144
-30
347
201
-229
34
90
-383
-284
-21
-319
-386
-82
-255
-536
-163
20
-454
-296
-54
-607
-311
1046
2357
3659
4670
4094
2491
1611
1224
568
208
343
-120
-534
-196
-241
-622
-382
-67
-489
-644
-224
-318
-686
-377
-98
-557
-558
-173
-500
-522
-22
-243
-712
-346
-54
-497
-368
-45
-386
-441
-10
-55
-415
-105
168
-187
-166
100
-147
-143
211
112
23
303
427
144
165
505
243
37
516
440
-58
278
441
-79
-65
214
-96
-368
-80
-14
-429
-210
77
-447
-431
-21
-337
-458
-31
-146
-476
-263
-138
-413
-276
58
-277
-459
-90
-116
-490
-211
83
-427
-264
170
-238
-362
52
-49
-449
-88
130
-317
-237
104
-225
-501
-146
-94
-324
-94
-61
-359
-189
46
-323
-435
12
-157
-518
-192
-53
-406
-222
84
-336
-467
-49
-156
-540
-163
104
-416
-403
-11
-219
-441
-73
19
-320
-48
49
-421
-262
252
15
-139
341
136
-208
153
125
-393
-238
79
-428
-563
-95
-353
-674
-186
-160
-737
-461
-71
-450
-532
-347
-495
-109
1305
2853
3900
4214
3457
2001
957
716
444
-87
-214
-232
-585
-612
-325
-558
-737
-386
-505
-924
-551
-354
-924
-731
-304
-674
-772
-423
-467
-739
-487
-339
-792
-754
-378
-470
-582
-263
-329
-759
-438
-212
-742
-529
83
-306
-531
-83
-162
-452
-57
-4
-371
-59
151
-70
13
290
88
-112
153
232
-70
-125
227
24
-401
-80
-258
-691
-193
-46
-569
-513
-107
-418
-742
-328
-266
-631
-328
-170
-692
-683
-237
-436
-646
-250
-417
-742
-320
-275
-637
-389
-86
-547
-665
-81
-268
-706
-341
-162
-543
-512
-199
-469
-636
-208
-298
-624
-270
-60
-501
-588
-188
-370
-593
-235
-327
-578
-257
-184
-592
-568
-149
-410
-746
-265
-293
-687
-222
-84
-613
-556
-164
-351
-482
-187
-391
-719
-327
-88
-460
-505
-208
-419
-613
-158
-257
-699
-322
-118
-510
-380
-67
-330
-485
-159
-102
-271
-77
-38
-351
-177
297
100
-260
-16
9
-433
-332
-172
-454
-449
-173
-401
-608
-226
-332
-667
-386
-216
-490
-619
-480
-234
636
2377
3890
4396
3958
2877
1496
593
636
405
-137
-182
-327
-695
-582
-320
-661
-645
-230
-688
-937
-323
-326
-784
-460
-203
-692
-716
-412
-567
-685
-256
-271
-768
-463
-220
-633
-690
-255
-329
-569
-204
-189
-605
-370
4
-321
-257
180
-119
-249
116
-105
-301
170
325
-24
-5
403
186
-160
338
400
-110
138
292
-210
-90
241
-206
-550
-161
-103
-512
-288
-80
-430
-439
-83
-308
-566
-127
-82
-511
-395
-110
-383
-500
-113
-402
-665
-83
-190
-561
-208
-136
-436
-289
-22
-276
-479
-124
-160
-527
-210
-11
-426
-397
-29
-357
-587
-34
-41
-560
-232
42
-466
-468
-80
-305
-545
-127
-156
-527
-137
31
-490
-535
-82
-351
-582
-23
-95
-562
-297
-69
-409
-433
-129
-314
-540
-108
-72
-604
-310
50
-504
-552
0
-246
-478
-77
-140
-473
-221
68
-203
-193
135
-122
-227
216
242
-96
105
403
-77
-231
221
42
-277
-1
-68
-494
-329
-41
-321
-404
-66
-262
-521
-134
-86
-606
-576
-70
542
1907
3868
4736
3999
3081
2049
838
762
780
-84
-301
19
-235
-448
-206
-288
-627
-392
-175
-607
-584
-197
-425
-561
-192
-214
-523
-256
-127
-527
-381
-52
-306
-412
-64
-98
-459
-166
92
-355
-308
118
-128
-332
63
105
-269
2
311
12
37
424
245
2
452
468
-20
309
610
208
268
623
343
116
419
323
-59
166
386
-80
-134
174
-94
-267
175
200
-342
-135
182
-305
-271
207
-78
-327
92
102
-306
-124
52
-234
-212
172
51
-268
123
86
-436
8
341
-56
-118
200
21
-310
206
238
-301
-17
219
-121
-114
255
98
-233
-86
2
-194
-47
75
-230
-163
136
-72
-289
101
74
-333
-36
115
-309
-246
169
-111
-426
-25
153
-294
-374
99
-228
-444
118
-69
-290
178
99
-354
14
267
-132
-36
285
0
-109
417
323
-40
414
588
-4
-100
408
271
-153
18
-107
-404
-77
147
-168
-299
85
9
-327
-36
-42
-554
-267
786
1662
3047
4824
4544
2967
2291
1508
640
545
427
-25
-200
45
-177
-518
-191
-172
-461
-209
-138
-498
-397
-41
-229
-451
-131
-169
-497
-145
35
-440
-320
9
-256
-298
-23
-26
-279
-165
125
-149
-245
155
129
-35
178
165
-88
75
354
213
153
492
414
50
488
608
-4
300
652
323
321
526
293
-58
325
388
-166
-69
134
-144
-247
54
-141
-355
30
-13
-444
-228
115
-332
-372
138
-141
-578
-113
139
-290
-179
84
-235
-327
61
-106
-408
152
165
-447
-119
167
-263
-281
122
-47
-407
-52
73
-300
-81
193
-207
-287
90
-82
-288
113
51
-453
-126
149
-253
-128
278
-124
-468
4
76
-294
-78
143
-242
-310
173
-98
-494
16
86
-392
-160
201
-238
-342
190
150
-247
115
364
-192
60
492
126
147
572
195
-238
182
151
-209
-49
58
-282
-373
47
-52
-368
-121
-87
-358
-151
55
-500
-626
390
1421
2630
4392
4695
3284
2435
1747
622
526
729
-11
-428
-37
-25
-477
-331
-25
-355
-527
-192
-367
-721
-336
-169
-499
-343
-35
-398
-473
-135
-385
-521
-111
-14
-453
-354
39
-312
-384
80
-145
-381
1
-64
-350
-6
269
-118
-191
337
280
-84
303
355
-9
247
481
307
244
538
386
123
531
496
16
133
366
1
-111
238
-6
-267
78
3
-421
-184
106
-291
-402
70
-79
-374
56
17
-550
-233
161
-259
-294
145
-105
-576
-48
167
-306
-25
219
-181
-267
76
23
-190
128
85
-378
-95
314
-107
-238
195
-94
-364
91
88
-289
-54
128
-319
-356
73
-66
-308
52
17
-354
-58
186
-127
-188
6
-158
-278
29
75
-320
-145
116
-227
-221
4
-204
-344
-4
86
-289
-111
213
-130
-155
255
24
-280
171
363
0
