-333
-164
187
-220
-352
73
-77
-381
-121
-37
-306
-128
125
-235
-221
182
-52
-254
85
72
-242
34
302
-107
-88
403
228
-79
288
361
-170
73
452
47
56
396
165
-8
352
340
-30
148
414
67
-8
312
61
-171
281
393
-152
-92
353
80
-109
240
121
-149
211
298
-124
0
309
-71
-182
272
203
22
348
381
-4
130
413
171
184
443
362
356
538
403
39
169
394
42
-139
120
8
-294
-111
26
-299
-229
141
-96
-299
42
-74
-545
-259
410
1211
2820
4500
4564
3471
2740
1561
498
736
578
-223
-272
35
-360
-519
-108
-272
-552
-258
-209
-565
-363
-91
-431
-470
-154
-346
-596
-218
-110
-522
-312
5
-344
-455
-50
-131
-428
-153
-41
-391
-213
155
-252
-314
226
53
-260
134
300
-51
58
450
117
-56
430
338
14
395
509
-58
118
547
198
-47
194
194
-119
59
165
-224
-164
92
-196
-325
123
-32
-466
-46
43
-415
-205
91
-224
-307
41
-88
-353
-105
24
-271
-163
136
-242
-324
170
55
-326
-61
156
-151
-123
139
-77
-180
185
38
-308
1
175
-176
-136
163
-76
-228
142
92
-304
33
191
-237
-99
210
-57
-227
148
76
-258
97
173
-270
-86
183
-63
-235
22
186
-16
223
374
-35
38
336
101
78
516
445
112
400
641
174
134
444
28
-176
116
-8
-231
-52
-17
-282
-76
160
-212
-277
130
12
-440
-367
-85
469
1860
3613
4536
4066
3115
1946
792
702
739
-22
-236
60
-348
-604
-223
-238
-506
-394
-272
-411
-383
-116
-318
-544
-221
-152
-431
-248
-8
-463
-497
47
-193
-450
-17
-113
-523
-180
176
-174
-162
232
-49
-279
167
174
-229
108
354
-8
35
369
161
59
433
317
37
274
433
166
165
399
135
3
411
236
-223
34
189
-192
-113
203
-137
-308
29
-116
-377
-52
146
-213
-390
-282
-553
-635
-186
-196
-568
-326
-40
-577
-754
-303
-501
-715
-350
-453
-802
-422
-151
-645
-669
-211
-352
-588
-288
-272
-602
-380
-197
-569
-474
-166
-553
-606
-148
-266
-633
-310
-120
-599
-451
-119
-449
-632
-396
-323
-506
-357
-179
-484
-518
-241
-420
-526
-147
-180
-525
-281
-92
-406
-258
125
-210
-390
63
-62
-511
-327
-237
-684
-846
-629
-962
-1311
-846
-905
-1374
-1044
-916
-1350
-1203
-740
-914
-1123
-924
-895
-415
1114
2841
3862
3945
3178
1761
706
645
553
-32
-105
123
-269
-373
39
-180
-385
68
113
-193
-40
186
15
44
381
203
51
397
399
52
166
460
179
8
368
277
-49
298
420
198
565
728
400
487
742
519
400
849
806
343
713
1004
451
401
837
540
358
865
828
464
775
928
462
492
773
488
296
555
490
118
279
510
172
140
450
226
75
413
362
-52
88
314
-14
-147
60
-125
-401
13
115
-375
-172
25
-465
-447
-114
-487
-598
-218
-454
-798
-571
-494
-814
-767
-541
-874
-1137
-819
-800
-1177
-1088
-851
-1181
-1279
-850
-1070
-1324
-929
-924
-1243
-1059
-780
-1198
-1287
-673
-857
-1164
-684
-707
-1042
-576
-222
-528
-551
-184
-322
-430
157
139
-171
291
434
-42
-66
257
120
-65
204
210
-90
141
416
151
255
587
255
126
533
480
46
39
476
1136
2547
4393
4948
3994
3063
2044
947
974
1025
245
18
233
-106
-273
41
45
-253
-174
-28
-372
-308
109
-137
-379
-94
-45
-369
-196
106
-351
-325
64
-251
-262
123
-11
-337
-142
75
-208
-232
195
16
-288
155
218
-206
39
350
-11
21
463
164
-158
241
296
-46
126
387
145
59
255
61
-114
146
189
-172
-184
52
-194
-262
-11
-159
-309
-65
-59
-448
-188
115
-243
-223
131
-167
-449
-14
-111
-515
-198
-31
-356
-312
-18
-288
-422
-33
-101
-456
-217
112
-317
-473
20
-155
-470
-37
-53
-563
-269
65
-308
-374
-46
-139
-360
-5
65
-335
-137
86
-370
-356
34
-348
-610
-279
-319
-685
-497
-192
-526
-596
-168
-285
-520
-141
-54
-471
-264
277
-83
-353
198
106
-250
59
42
-442
-354
-96
-488
-580
-151
-379
-701
-328
-287
-584
-385
-187
-491
-617
-491
-606
-29
1561
3084
4027
4098
3217
1871
772
558
308
-257
-155
-270
-733
-564
-355
-779
-815
-403
-646
-816
-464
-435
-750
-590
-285
-620
-733
-479
-549
-639
-416
-356
-711
-623
-280
-636
-879
-523
-729
-1034
-574
-434
-784
-567
-317
-554
-613
-403
-313
-414
-192
-60
-419
-310
-42
-354
-357
85
-119
-362
43
21
-388
-181
16
-393
-467
-115
-258
-609
-366
-260
-716
-687
-430
-641
-718
-427
-545
-903
-588
-326
-707
-600
-232
-578
-672
-370
-497
-651
-296
-221
-604
-429
-221
-510
-491
-79
-282
-611
-177
-114
-520
-305
-38
-360
-466
-112
-198
-517
-215
-73
-472
-359
-87
-395
-544
-170
-183
-469
-115
-42
-476
-298
-33
-410
-547
-109
-252
-583
-186
-77
-422
-210
95
-205
-264
78
-25
-277
-15
158
-83
-65
225
169
31
259
122
-190
64
116
-318
-273
4
-402
-512
-28
-256
-643
-224
-60
-427
-300
-32
-426
-764
43
1077
2095
3948
4840
3657
2471
1774
728
276
473
79
-454
-147
-184
-787
-533
-120
-503
-642
-195
-266
-630
-369
-234
-597
-437
-101
-382
-523
-144
-252
-606
-247
-88
-500
-345
-7
-283
-340
17
-105
-385
-74
96
-279
-229
90
-355
-624
-241
-364
-569
-254
-203
-532
-419
-66
-347
-409
64
-111
-434
-94
58
-360
-348
-49
-423
-626
-173
-267
-669
-321
-175
-594
-419
-61
-471
-685
-181
-266
-646
-330
-168
-550
-465
-65
-408
-670
-211
-185
-453
-161
-31
-459
-397
18
-253
-432
9
-77
-449
-119
75
-376
-372
32
-210
-409
-16
-118
-462
-52
129
-428
-276
239
-174
-397
58
-53
-406
-96
89
-244
-233
100
-122
-293
175
77
-276
117
220
-229
-30
495
265
-1
336
388
147
397
596
260
402
660
194
-15
260
204
-156
-60
87
-318
-139
274
-165
-384
-2
-83
-512
-271
-29
-429
-560
-109
723
2211
4112
4881
3980
2798
1867
903
653
764
80
-280
105
-72
-434
-204
-78
-348
-289
-19
-252
-481
-97
-81
-455
-169
-8
-381
-353
-74
-242
-405
-41
-14
-372
-111
156
-185
-219
143
-6
-224
182
174
-200
162
360
-138
-166
149
-207
-367
74
17
-238
43
67
-292
-86
182
-78
-122
233
115
-250
-22
78
-257
-192
37
-223
-430
-96
-90
-445
-241
-71
-349
-243
21
-254
-416
-52
-185
-620
-256
-17
-342
-251
19
-230
-384
3
14
-346
-134
135
-123
-137
172
16
-167
185
179
-156
112
318
-109
-134
269
126
-55
239
37
-421
-139
15
-380
-297
2
-323
-430
-13
-197
-513
-161
11
-302
-226
203
-48
-297
123
59
-177
170
320
93
137
357
65
-208
155
117
-336
-175
-2
-444
-476
-40
-288
-575
-207
-200
-522
-306
-115
-584
-742
-89
467
1430
3413
4533
3728
2633
1773
585
259
570
10
-511
-223
-329
-701
-443
-311
-655
-670
-306
-504
-827
-417
-450
-787
-395
-173
-571
-666
-318
-422
-651
-373
-310
-585
-379
-159
-473
-514
-196
-311
-563
-132
10
-490
-275
-11
-322
-186
122
-131
-353
-20
47
-299
-221
-145
-422
-343
-100
-320
-487
-243
-257
-637
-480
-220
-738
-761
-240
-556
-803
-447
-528
-856
-655
-352
-592
-707
-291
-517
-848
-392
-417
-739
-471
-287
-563
-504
-149
-311
-593
-219
3
-357
-219
35
-289
-223
156
-75
-313
54
84
-363
-122
184
-239
-210
174
-105
-265
40
12
-251
-84
135
-149
-249
7
-229
-542
-178
-75
-509
-313
28
-370
-456
17
-125
-405
8
18
-347
-115
72
-203
-93
338
134
-149
248
325
-155
-46
169
-233
-363
-58
-253
-591
-262
-128
-443
-258
-145
-477
-336
16
-136
-602
-379
374
1083
2670
4408
4429
3425
2623
1334
420
720
527
-206
-305
-87
-408
-498
-116
-308
-567
-246
-176
-566
-418
-125
-473
-490
-28
-240
-637
-341
-218
-625
-580
-196
-435
-603
-206
-337
-589
-260
-207
-526
-357
-96
-439
-400
30
-136
-314
-6
26
-305
-29
293
-79
-155
179
13
-246
150
267
-154
57
450
56
-118
221
-13
-244
149
134
-307
-87
118
-168
-138
192
56
-228
50
104
-304
-49
210
-213
-129
170
17
-167
93
224
-138
-4
306
48
-22
305
164
-104
232
378
-118
-80
300
5
17
402
143
-143
198
333
-31
85
380
18
-120
293
217
-76
226
337
-75
39
335
-48
-99
368
165
-135
265
327
-42
97
380
237
156
521
389
4
306
480
242
431
786
463
132
472
483
88
264
241
-184
18
305
-75
-157
243
10
-359
26
146
-194
-39
-29
-245
583
2215
3543
4474
4620
3504
2015
1233
1051
665
148
144
62
-275
-60
14
-393
-247
38
-328
-421
25
-174
-430
23
106
-311
-195
134
-172
-312
102
13
-264
13
80
-290
-167
263
-28
-171
279
156
-138
191
326
-31
165
513
135
95
495
262
95
433
503
219
306
622
371
258
586
460
209
470
563
148
90
379
174
63
378
212
-81
285
351
-174
72
412
-34
-97
362
255
-130
199
386
-87
53
458
121
39
380
218
6
330
411
-5
96
393
171
54
394
338
-1
296
404
48
170
399
159
83
397
279
-27
345
461
90
195
391
105
35
382
284
-44
192
404
1
104
527
251
-19
235
237
-39
333
562
127
240
576
233
163
604
537
252
559
721
317
396
681
284
88
380
198
-108
136
248
-177
-111
235
-29
-142
183
115
-159
4
7
64
1337
3124
4242
4588
3998
2576
1398
1159
953
295
122
182
-178
-309
-58
-118
-384
-177
-86
-439
-264
102
-206
-393
5
-68
-368
-4
103
-328
-262
123
-105
-299
127
12
-297
46
106
-171
-28
254
31
-158
227
241
-81
206
424
69
147
444
122
40
437
353
82
355
517
195
254
552
318
123
352
272
37
285
360
-39
17
307
21
-139
284
205
-197
156
291
-94
19
324
89
-109
74
-105
-443
-192
9
-365
-300
-49
-293
-346
-165
-427
-697
-397
-324
-680
-538
-158
-368
-538
-197
-303
-648
-301
-192
-537
-440
-190
-396
-488
-172
-252
-461
-198
-123
-487
-376
-21
-333
-487
-83
-177
-484
-192
29
-274
-99
177
-252
-259
214
154
-127
205
369
-67
22
284
-108
-253
95
-142
-561
-235
-54
-450
-358
-121
-394
-458
-143
-170
-410
-227
-268
-432
475
2121
3480
4282
4121
2713
1345
941
720
213
-70
-31
-263
-462
-307
-357
-606
-456
-231
-471
-517
-264
-437
-573
-258
-259
-527
-257
-24
-341
-250
124
-143
-260
129
-47
-240
120
207
-130
-173
119
-83
-199
294
156
-224
134
189
-188
-27
262
-20
-198
183
126
-279
38
257
-142
-57
221
-83
-178
149
-67
-420
-96
-28
-408
-306
-97
-271
-343
-86
-217
-511
-196
-117
-562
-438
-64
-396
-541
-121
-271
-595
-287
-133
-452
-416
-87
-266
-444
-127
-102
-442
-217
15
-407
-378
-48
-312
-451
-56
-134
-529
-287
-89
-442
-481
-138
-255
-496
-276
-257
-507
-310
-110
-495
-506
-32
-274
-529
-131
-254
-529
-169
-73
-342
-207
71
-226
-427
20
74
-219
62
282
-309
-632
-277
-483
-790
-514
-617
-947
-666
-481
-919
-812
-338
-622
-820
-408
-488
-816
-619
-668
-559
636
2286
3515
3934
3578
2369
939
484
399
-136
-401
-391
-671
-804
-486
-594
-956
-699
-597
-997
-947
-534
-727
-922
-480
-495
-836
-521
-269
-690
-688
-343
-650
-821
-568
-668
-984
-846
-708
-977
-905
-560
-686
-950
-623
-483
-860
-639
-484
-831
-641
-324
-633
-738
-299
-407
-725
-424
-272
-610
-504
-115
-419
-678
-301
-322
-693
-552
-362
-636
-639
-324
-558
-695
-271
-347
-764
-507
-208
-492
-520
-234
-458
-605
-255
-336
-614
-369
-186
-494
-476
-110
-315
-538
-128
-86
-518
-353
-18
-329
-404
42
-231
-529
-85
-115
-463
-231
-112
-454
-308
86
-246
-436
19
-16
-279
63
216
-169
-120
312
111
-156
245
248
-166
-8
328
114
75
476
289
32
469
494
142
516
700
347
480
709
326
211
620
344
-73
244
387
-101
-242
88
-105
-394
-4
100
-372
-215
93
-413
-518
215
897
2186
4155
4798
3642
2717
1975
741
541
684
-27
-296
-23
-219
-518
-258
-100
-467
-400
-42
-320
-460
-60
-142
-398
-90
14
-334
-276
27
-121
-233
153
44
-275
146
298
-56
76
415
127
-43
321
240
3
332
461
204
323
505
279
272
663
609
237
465
646
308
451
804
576
351
694
751
421
644
713
329
384
691
409
163
654
650
187
415
579
228
361
713
441
183
540
592
219
475
710
216
255
754
427
178
729
665
181
578
825
405
422
750
464
298
759
683
297
524
751
331
306
801
553
226
629
695
309
544
733
338
326
636
423
222
615
603
256
569
741
208
256
682
421
352
672
588
430
652
843
458
483
982
741
620
992
833
377
668
874
343
320
582
218
53
482
406
-15
293
574
142
109
519
331
0
191
481
1094
2794
4516
4690
4069
3257
1817
987
1202
848
138
241
376
-56
-134
233
70
-199
80
46
-257
21
227
-134
-105
208
-73
-195
252
147
-261
96
407
8
75
438
32
-192
308
352
25
304
440
27
37
442
385
73
304
425
176
451
666
234
276
648
280
128
567
578
271
484
715
341
334
669
451
18
331
531
46
184
469
66
-22
433
354
64
391
334
-65
234
462
104
27
445
354
41
367
398
-71
9
167
-176
-214
81
-100
-318
115
115
-293
34
247
-169
-172
135
-102
-229
69
-28
-333
-146
33
-301
-222
146
-120
-269
-23
-32
-284
-87
101
-294
-273
60
-146
-274
138
203
-108
24
198
-103
-28
306
123
105
429
375
60
179
322
-77
-188
93
-193
-395
12
-82
-471
-262
-115
-421
-427
-78
-192
-604
-362
206
1000
2697
4295
4270
3206
2227
1137
442
608
277
-423
-280
-137
-627
-667
-299
-494
-679
-303
-342
-746
-431
-143
-530
-474
-219
-490
-511
-127
-216
-525
-278
-90
-334
-350
-29
-217
-456
-112
-46
-275
-133
102
-168
-206
226
33
-336
14
85
-296
-62
201
-99
-149
172
47
-157
262
345
-84
143
351
-62
-84
217
-41
-341
-20
-79
-497
-218
5
-360
-289
98
-143
-430
-38
29
-405
-173
134
-251
-279
112
-171
-415
46
-23
-455
-170
59
-350
-333
99
-128
-367
26
10
-450
-209
48
-300
-240
119
-135
-331
-16
-117
-420
-258
-44
-263
-336
32
-139
-452
-59
46
-298
-120
127
-187
-158
232
-20
-180
209
155
-132
190
444
105
116
472
229
-118
242
273
-275
-140
136
-315
-460
-161
-379
-589
-257
-191
-504
-358
-59
-395
-670
-186
366
1218
3026
4270
3777
2809
1915
692
306
565
-13
-525
-349
-512
-733
-420
-338
-713
-646
-313
-555
-710
-353
-297
-602
-455
-198
-494
-545
-127
-295
-491
-14
-175
-565
-160
6
-347
-397
-160
-321
-604
-232
-83
-490
-238
141
-222
-392
88
-1
-341
172
268
-173
96
382
-22
-66
389
235
-57
275
364
-15
137
289
-30
-32
242
89
-180
162
247
-156
55
259
-134
-139
217
62
-285
136
382
-80
30
276
-29
-32
350
249
-71
233
308
-158
74
438
50
23
435
204
-52
288
279
-39
156
253
-73
16
412
191
-111
183
262
-63
70
320
-49
-100
288
79
-187
127
210
-237
-18
460
87
-22
416
252
-58
331
493
99
223
654
402
224
541
319
-48
158
23
-457
-295
-60
-397
-431
-78
-294
-589
-253
-229
-543
-261
-166
-666
-286
1177
2394
3645
4617
3746
2105
1318
860
342
120
37
-314
-612
-415
-358
-624
-512
-357
-658
-686
-331
-362
-699
-527
-387
-726
-558
-281
-567
-539
-178
-426
-675
-338
-243
-508
-312
-65
-409
-478
-47
-164
-541
-229
-85
-478
-308
116
-160
-292
129
-39
-372
60
140
-296
-56
274
-51
-127
341
131
-295
146
259
-228
-139
170
-181
-318
106
-29
-284
-52
-59
-383
-194
131
-273
-312
97
-98
-324
-78
-14
-342
-189
106
-309
-368
197
-13
-359
24
6
-338
-24
253
-131
-178
207
-44
-318
81
204
-163
-188
80
-120
-337
23
83
-254
-41
123
-215
-83
123
-220
-266
98
-26
-312
7
77
-363
-187
125
-335
-363
206
93
-203
130
309
-56
53
356
106
68
396
372
178
414
398
-119
-48
237
-106
-251
23
-154
-432
-138
-114
-567
-375
-14
-361
-421
48
-290
-779
183
1591
2681
4144
4677
3188
1804
1411
728
202
301
38
-435
-367
-245
-520
-595
-261
-421
-725
-321
-222
-619
-446
-169
-492
-577
-148
-293
-570
-176
-116
-484
-362
-48
-298
-388
-10
-179
-423
-37
8
-310
-122
73
-178
-186
182
84
-247
89
331
-74
0
321
42
-112
208
167
-63
301
436
-56
102
484
-25
-131
343
36
-241
170
100
-246
-23
147
-159
-221
121
-6
-366
-46
132
-304
-145
214
-135
-288
105
-64
-462
-40
161
-160
-70
133
-101
-157
169
68
-243
20
156
-204
-21
284
-75
-254
139
113
-213
-20
107
-214
-125
231
-104
-300
163
78
-333
-17
126
-349
-154
258
-78
-241
117
-28
-328
120
246
-123
51
341
22
-93
328
237
-19
377
631
215
38
346
189
-34
240
-125
-724
-413
-199
-629
-568
-192
-528
-698
-318
-458
-767
-534
-482
-793
-42
1657
2952
3917
4030
2714
1243
729
553
-48
-338
-247
-583
-849
-535
-574
-935
-653
-452
-838
-808
-554
-817
-841
-455
-502
-744
-584
-538
-819
-639
-335
-632
-752
-387
-446
-712
-384
-220
-587
-498
-200
-451
-514
-132
-271
-487
-150
-146
-454
-194
142
-171
-304
86
-86
-396
31
149
-238
-81
261
-120
-328
126
-5
-342
-156
-69
-387
-357
57
-315
-518
-16
-195
-484
-65
-44
-484
-323
22
-280
-385
90
-52
-298
142
283
-151
-75
334
97
7
409
321
57
234
140
-263
-148
59
-224
-202
115
-11
-332
-65
163
-398
-232
242
-142
-224
92
-40
-309
-53
109
-258
-186
194
-78
-336
-65
-106
-444
-318
-53
-258
-263
29
-231
-460
30
177
-112
177
241
-196
-99
128
-271
-356
66
-218
-587
-265
-153
-470
-458
-153
-323
-483
-112
-164
-474
-404
-249
161
1420
3260
4286
4094
3275
1933
828
699
590
-66
-167
150
-263
-487
-37
-198
-519
-196
-146
-515
-420
-149
-479
-542
-100
-284
-520
-117
-80
-545
-472
-47
-182
-397
35
19
-470
-246
85
-175
-160
65
-232
-126
166
-228
-526
-197
-28
-375
-280
47
-304
-497
-120
-65
-305
-91
71
-253
-96
215
-148
-215
169
1
-299
-70
-70
-441
-435
-106
-216
-445
-64
-43
-383
-127
138
-142
-126
169
-95
-193
225
148
-201
79
196
-126
58
399
191
-55
373
338
-115
307
518
19
104
481
129
-35
395
389
1
205
516
115
11
403
183
7
394
271
-112
238
460
-45
40
485
112
-40
445
323
-116
181
380
30
243
571
267
168
461
477
262
447
716
459
401
555
351
222
394
223
-268
-155
55
-270
-271
44
-237
-478
-142
-162
-493
-276
-285
-904
-592
696
1607
2852
4464
4050
2336
1550
881
84
56
42
-506
-733
-471
-616
-916
-713
-602
-868
-819
-582
-806
-899
-519
-571
-1001
-769
-517
-886
-788
-480
-679
-759
-392
-184
-604
-554
-142
-423
-426
-142
-338
-339
46
-43
-396
-121
158
-143
-80
307
-10
-189
384
303
-184
131
355
73
113
330
188
124
383
213
-113
146
262
-157
-64
183
-132
-235
15
2
-190
8
132
-220
-263
109
-40
-353
-42
50
-233
-9
204
-227
-186
289
-50
-384
75
145
-201
14
133
-155
-90
171
-21
-153
156
48
-316
-28
150
-318
-340
-78
-397
-549
-184
-286
-549
-264
-141
-422
-354
-160
-504
-590
-168
-231
-560
-429
-263
-454
-400
-128
-342
-444
-19
-70
-472
-247
-3
-318
-243
234
187
59
386
309
-156
73
187
-400
-318
144
-204
-402
-31
-71
-386
-207
9
-341
-309
74
-316
-669
55
943
2025
3936
4836
3673
2370
1712
849
372
539
233
-420
-381
-165
-487
-512
-144
-364
-702
-276
-166
-669
-432
-127
-543
-484
-73
-358
-549
-137
-121
-486
-314
-79
-408
-393
-18
-177
-418
-51
-24
-388
-57
197
-203
-204
249
17
-255
286
290
-112
108
220
5
96
418
226
-65
305
385
-73
114
381
-31
-61
257
-26
-251
107
42
-291
-79
95
-204
-245
98
-66
-430
-108
38
-356
-131
161
-247
-324
92
-88
-352
51
68
-379
-172
169
-186
-309
52
-54
-216
15
-46
-272
2
173
-247
-232
155
-91
-353
31
71
-336
-109
51
-354
-154
162
-255
-338
34
-77
-345
-89
123
-228
-279
100
-79
-357
-31
147
-109
-1
272
-69
-139
298
133
-116
326
458
53
203
441
49
-111
130
-40
-352
-97
-54
-458
-233
-11
-424
-438
-2
-182
-445
-52
-183
-766
-212
1051
2003
3444
4776
3949
2325
1662
956
288
304
242
-290
-424
-83
-297
-651
-356
-266
-670
-559
-237
-524
-598
-255
-422
-668
-365
-305
-630
-472
-132
-406
-542
-162
-262
-486
-176
-107
-460
-293
51
-249
-306
79
-104
-328
31
107
-247
-71
188
-140
-42
249
11
-21
266
185
-141
70
356
-4
-46
337
62
-234
76
54
-343
-234
36
-292
-336
-18
-276
-408
-41
-41
-501
-305
44
-330
-347
38
-132
-442
-115
34
-362
-208
80
-252
-315
-3
-123
-236
21
1
-294
-152
156
-164
-308
115
-21
-345
23
144
-306
-126
152
-290
-314
54
-119
-368
-91
33
-362
-247
73
-293
-420
-16
-64
-297
3
75
-184
-28
163
-136
-266
229
156
-206
331
327
-427
-194
93
-436
-437
-111
-444
-695
-398
-420
-770
-539
-268
-606
-693
-381
-436
-672
-621
-723
-641
588
2308
3442
4031
3652
2194
944
571
465
-99
-302
-98
-543
-765
-412
-561
-823
-455
-435
-929
-763
-395
-691
-730
-331
-612
-891
-464
-393
-758
-594
-299
-615
-738
-431
-540
-923
-835
-674
-979
-833
-474
-823
-936
-538
-648
-932
-573
-473
-827
-583
-269
-626
-699
-305
-468
-646
-201
-101
-485
-358
-13
-329
-689
-376
-371
-785
-578
-443
-782
-595
-300
-668
-707
-238
-419
-762
-372
-204
-569
-470
-185
-481
-665
-307
-273
-546
-353
-204
-418
-303
-108
-332
-374
-46
-95
-365
-131
66
-322
-244
160
-181
-340
90
-21
-324
-15
96
-196
-177
47
-86
-290
-28
-46
-366
6
177
-283
-200
138
-153
-365
47
52
-306
-47
149
-213
-54
317
-3
-141
169
64
-195
117
313
2
111
296
-95
-239
76
-107
-494
-221
-130
-579
-403
-54
-434
-571
-229
-277
-568
-327
-167
-680
-532
649
1810
3185
4593
4174
2586
1810
1044
183
255
288
-346
-612
-300
-375
-771
-501
-220
-669
-692
-313
-586
-771
-445
-493
-757
-474
-371
-816
-644
-233
-515
-686
-341
-366
-635
-349
-212
-554
-470
-183
-532
-649
-163
-318
-573
-125
-14
-417
-291
9
-260
-370
45
40
-348
-82
152
-265
-248
111
-166
-211
225
20
-306
-92
-63
-387
-283
-36
-295
-403
-106
-161
-459
-232
-54
-505
-449
-6
-357
-560
-63
-131
-523
-310
-71
-343
-334
-35
-289
-444
-79
-123
-404
-136
30
-346
-177
170
-233
-356
57
-17
-324
-108
-15
-311
-212
-85
-397
-344
37
-99
-418
-85
79
-471
-313
127
-295
-497
-77
-73
-455
-206
38
-406
-380
63
-242
-442
25
-16
-342
-113
36
-291
-170
206
-108
-231
183
-85
-556
-206
-76
-572
-398
4
-420
-637
-158
-129
-572
-384
-166
-533
-392
38
-401
-813
-188
504
1411
3287
4626
4032
2774
1974
959
326
571
239
-507
-287
-80
-563
-552
-200
-394
-610
-285
-227
-630
-478
-223
-595
-509
-35
-294
-573
-258
-270
-502
-256
-127
-438
-351
-63
-365
-495
-87
6
-293
-168
34
-270
-149
212
-117
-249
166
97
-145
109
248
-29
-27
325
131
-47
401
372
-50
94
353
64
-1
306
40
-271
122
137
-363
-83
221
-154
-277
18
-36
-238
49
60
-319
-195
89
-157
-255
119
-30
-347
-37
9
-230
31
187
-230
-245
205
12
-282
66
148
-307
-112
233
-160
-230
238
66
-278
138
53
-347
20
164
-197
-169
67
-179
-351
62
78
-310
-66
170
-228
-207
122
-62
-243
83
142
-256
97
404
-84
-41
358
191
-32
301
443
152
383
493
10
-44
287
-21
-369
60
70
-365
-194
43
-241
-397
-80
-106
-369
-67
-187
-734
-37
1312
2235
3688
4763
3706
2209
1643
1001
200
264
366
-270
-364
-59
-354
-733
-708
-750
-1118
-1025
-547
-740
-776
-266
-456
-795
-353
-261
-648
-335
-249
-841
-697
-181
-431
-654
-85
11
-688
-640
-249
-523
-405
80
-197
-583
-170
106
-224
-118
178
-61
-275
-135
-203
-247
197
193
-207
60
334
-58
2
407
157
-149
108
206
-117
-37
157
-183
-272
211
38
-280
90
33
-226
-52
37
-198
-166
99
-7
-185
65
167
-147
-45
236
2
-114
236
105
-182
165
298
-125
14
359
58
-30
320
177
-147
180
255
-184
79
358
-102
-104
257
3
-230
143
246
-162
-28
241
-182
-102
329
71
-105
216
295
31
117
362
134
35
436
414
102
464
676
146
135
526
330
49
172
71
-265
-24
130
-246
-155
79
-196
-253
78
10
-270
-93
-178
-394
645
2361
3598
4361
4096
2828
1617
1027
830
345
74
153
-214
-348
-15
-225
-541
-267
-105
-440
-338
17
-363
-458
-59
-174
-449
-171
-26
-443
-308
-23
-420
-614
-296
-415
-712
-298
-164
-541
-347
-131
-472
-541
-97
-149
-420
-64
-4
-424
-173
195
-124
-137
205
-10
-251
129
232
-174
-10
269
-114
-174
195
-60
-360
3
40
-383
-293
-28
-341
-415
-2
-124
-404
-187
-104
-407
-246
56
-309
-387
82
-39
-363
-59
40
-235
-132
127
-68
-159
213
72
-212
133
203
-223
-64
304
-71
-145
313
128
-194
102
268
-97
-75
209
-58
-216
163
208
-210
-27
261
-147
-44
343
-4
-95
183
54
-85
78
177
19
77
305
173
91
394
341
121
425
526
281
448
616
220
160
423
180
-109
105
47
-483
-297
48
-311
-491
-158
-164
-466
-241
-52
-567
-628
311
1185
2314
4049
4271
2901
2027
1204
204
229
385
-411
-867
-552
-653
-1037
-857
-690
-1096
-972
-573
-984
-1111
-590
-658
-1033
-781
-578
-905
-816
-522
-826
-912
-474
-419
-602
-313
-201
-552
-351
42
-351
-485
102
21
-361
31
172
-284
-21
377
77
-38
289
244
-88
285
503
70
172
426
219
216
504
374
10
168
364
73
67
326
27
-121
318
228
-186
107
273
-68
33
319
140
-79
120
166
-127
167
353
-148
9
428
74
-105
315
288
-162
-3
254
-138
8
340
-121
-296
14
-5
-208
27
167
-216
-195
99
-131
-303
-27
-70
-372
-101
68
-405
-305
174
-159
-416
-41
-97
-429
-124
30
-465
-304
187
-182
-342
215
165
-203
93
275
47
207
504
288
199
401
145
-156
192
360
-69
-82
268
-24
-306
154
202
-169
95
189
-143
-34
257
-26
-426
23
916
1882
3510
4958
4504
3239
2438
1339
650
933
569
-214
21
207
-298
-285
60
-198
-438
-3
23
-416
-79
246
-204
-235
157
-177
-389
97
125
-187
-77
124
-203
-172
387
85
-223
195
210
-126
109
376
15
38
381
114
45
464
361
-38
308
581
198
224
555
403
156
465
533
194
379
536
175
126
411
216
-16
430
385
-83
228
306
-76
18
308
95
-180
235
288
-156
129
372
-76
-4
480
47
-354
275
325
-159
166
383
-71
-109
350
171
-157
334
291
-459
-342
-211
-630
-451
-120
-408
-563
-274
-322
-644
-409
-124
-546
-577
-221
-457
-670
-316
-239
-653
-372
-155
-614
-537
-187
-470
-680
-268
-323
-680
-378
-128
-399
-378
-53
-238
-473
-100
-1
-293
-99
174
-89
-152
176
-147
-507
-183
-162
-514
-350
-165
-612
-632
-265
-514
-737
-289
-391
-845
-450
-483
-974
-342
958
2099
3536
4484
3531
1861
1096
716
112
-203
-51
-385
-899
-469
-367
-913
-689
-407
-805
-785
-387
-641
-855
-477
-542
-870
-547
-331
-721
-757
-377
-471
-711
-327
-237
-719
-499
-161
-585
-604
-176
-420
-580
-91
-148
-581
-298
-56
-425
-405
62
-102
-430
-117
-82
-411
-227
-21
-277
-286
34
-205
-528
-103
-59
-483
-313
-143
-466
-463
-174
-404
-620
-290
-312
-674
-415
-258
-613
-499
-181
-401
-589
-195
-141
-551
-392
-143
-491
-547
-201
-347
-357
50
70
-210
-28
253
-124
-123
340
122
-136
245
307
-293
-341
59
-260
-315
18
-381
-735
-412
-324
-716
-493
-136
-501
-557
-300
-470
-614
-373
-310
-565
-396
-176
-437
-485
-164
-258
-470
-92
-8
-350
-78
211
-171
-284
113
-81
-505
-237
-314
-732
-453
-270
-637
-641
-230
-373
-639
-257
-211
-677
-622
-352
-229
750
2588
3890
4126
3493
2195
924
644
655
70
-154
81
-170
-556
-209
-123
-593
-415
-71
-428
-710
-323
-342
-661
-289
-136
-541
-447
-153
-424
-428
38
-144
-504
-116
5
-346
-205
33
-290
-464
-89
-222
-467
-194
-335
-705
-494
-208
-578
-560
-152
-399
-514
-221
-189
-465
-393
-130
-395
-484
-70
-268
-609
-253
-194
-637
-498
-156
-576
-682
-275
-498
-629
-300
-322
-585
-357
-113
-404
-385
-49
-201
-522
-161
1
-488
-271
7
-289
-180
104
-50
-249
99
209
-193
-72
236
-11
-154
147
44
-213
63
145
-106
48
238
-48
-113
176
24
-192
149
234
-205
-114
177
-49
-45
168
-93
-233
182
196
-145
112
365
82
33
314
234
28
390
546
52
231
575
-14
-133
296
90
-237
-111
-63
-388
-287
15
-350
-500
-196
-459
-745
-453
-348
-697
-795
-612
-268
890
2714
3994
3949
3284
2247
786
154
366
-34
-592
-376
-584
-1055
-683
-441
-937
-978
-561
-834
-920
-465
-623
-902
-588
-541
-841
-656
-422
-656
-698
-372
-463
-662
-317
-173
-575
-672
-353
-521
-695
-268
-358
-651
-225
-133
-561
-407
-95
-343
-485
-89
-99
-495
-129
41
-443
-258
118
-158
-236
143
34
-329
-102
-5
-386
-291
-51
-356
-430
-55
-215
-521
-79
-34
-573
-354
48
-291
-419
-25
-200
-517
-168
-56
-347
-186
39
-305
-318
124
-140
-419
51
154
-259
-150
135
-131
-247
161
98
-298
12
178
-236
-62
216
-166
-315
75
73
-236
-11
24
-333
-102
162
-51
-171
-67
-43
-227
-23
191
-222
-201
211
19
-185
228
290
-105
43
265
24
120
506
340
82
184
131
-71
107
244
-85
-83
254
9
-197
245
181
-216
64
279
-201
-99
492
-54
-274
691
1531
2803
4613
5047
3669
2494
1930
1116
739
807
364
-102
76
203
-158
-167
137
-134
-242
128
-51
-364
21
158
-243
-80
249
-31
-184
182
148
-267
58
284
-203
-8
425
45
-144
285
178
-152
331
512
15
93
438
191
99
512
406
108
375
483
222
334
605
324
233
665
506
176
492
612
234
254
573
253
42
421
342
-25
261
445
-35
79
431
143
82
380
268
-35
222
314
-115
67
392
124
-8
333
366
-78
-37
85
-291
-277
-32
-318
-440
-3
-149
-611
-278
-95
-448
-331
-41
-340
-553
-172
-187
-656
-357
-83
-574
-532
-74
-307
-466
-65
-225
-619
-344
-170
-493
-437
-143
-417
-539
-113
-152
-373
-51
27
-346
-251
113
-70
-192
177
91
-290
-68
59
-414
-426
-144
-489
-635
-266
-400
-721
-432
-288
-625
-512
-186
-446
-730
-525
-300
77
1650
3568
4174
3705
2750
1443
477
462
329
-276
-227
-169
-612
-560
-279
-577
-747
-364
-514
-920
-633
-307
-598
-642
-237
-439
-655
-246
-309
-723
-375
-129
-524
-457
-132
-430
-650
-160
-169
-417
-18
29
-425
-330
39
-250
-297
153
46
-280
26
202
-247
-84
315
-63
-233
186
200
-130
51
308
-72
-184
191
-17
-334
-17
-3
-362
-133
-34
-382
-217
45
-310
-407
41
7
-380
-177
112
-238
-186
136
-258
-402
-50
-108
-322
-53
115
-250
-116
213
-143
-180
196
50
-270
88
372
22
71
405
172
-46
337
346
-9
222
360
99
272
499
208
65
357
232
-198
-5
83
-332
-247
200
62
-238
93
108
-275
128
378
-77
55
411
26
-182
143
-72
-441
-104
-31
-492
-445
-220
-535
-570
-152
-307
-595
-318
-175
-494
-552
-360
-274
533
2218
3725
4220
3757
2691
1286
627
780
222
-378
-33
-150
-678
-381
-74
-524
-540
-179
-466
-634
-285
-307
-629
-421
-181
-475
-376
-146
-452
-529
-195
-151
-455
-256
-36
-377
-372
-33
-207
-365
-2
-42
-322
-34
37
-378
-264
102
-165
-390
81
140
-226
-45
142
-155
-210
105
-92
-282
97
49
-387
-182
13
-520
-402
-39
-537
-505
-57
-255
-583
-380
-164
-501
-463
-94
-427
-634
-227
-298
-537
-229
-165
-465
-434
-98
-136
-342
-69
-133
-466
-181
62
-271
-330
23
-113
-337
-59
-33
-322
-165
43
-308
-360
58
-111
-372
-71
-75
-335
-218
-140
-319
-224
83
-159
-333
34
34
-288
-110
201
-162
-274
277
127
-108
321
232
-75
355
554
24
183
676
325
83
367
220
-224
33
178
-341
-202
166
-125
-308
-31
-30
-296
-56
137
-340
-542
48
900
2248
4027
4789
3913
2895
2076
898
564
784
188
-220
90
-145
-488
-280
-216
-364
-321
-113
-225
-427
-211
-201
-477
-208
-12
-427
-363
13
-267
-390
43
23
-267
-9
205
-127
-104
133
-121
-197
183
109
-198
99
199
-112
-18
292
88
-168
172
177
-127
107
131
-220
-126
235
31
-259
78
105
-235
-14
135
-330
-330
45
-186
-380
34
18
-500
-268
69
-288
-293
54
-189
-464
-63
-51
-408
-163
30
-216
-241
29
-67
-177
224
205
-221
-41
145
-161
-133
155
-13
-204
97
47
-334
-75
138
-208
-94
190
-66
-253
-32
20
-260
-55
145
-260
-221
137
-129
-409
-73
103
-202
-85
150
-215
-210
172
-76
-161
270
198
-142
92
244
-45
130
499
327
186
398
339
75
196
276
-157
-188
102
-103
-237
100
151
-159
2
262
-28
-134
336
59
-447
342
1359
2361
4215
5205
4058
2833
2113
1142
744
855
505
-26
86
181
-228
-184
168
-62
-254
65
48
-264
-71
196
-150
-201
144
-31
-168
116
76
-231
-26
168
-90
-12
307
118
-151
160
212
-88
68
248
29
1
397
255
40
457
438
127
398
530
117
210
577
269
169
588
494
198
430
586
187
93
481
262
-18
389
343
-87
136
369
35
46
348
8
-186
265
206
-97
131
315
-11
-89
305
151
-7
388
302
-44
211
341
9
138
452
137
47
508
392
12
297
477
43
46
473
171
-156
317
383
-38
176
400
35
28
381
200
-13
272
129
-110
261
342
-16
-189
-180
-337
-438
-195
-191
-498
-232
20
-349
-269
40
-171
-259
79
16
-230
86
163
-283
-387
-95
-333
-691
-427
-430
-691
-445
-357
-723
-666
-313
-510
-681
-327
-488
-926
-539
351
1270
2764
4320
4079
2686
1868
951
182
348
139
-584
-591
-211
-412
-652
-368
-429
-718
-451
-281
-613
-587
-236
-473
-669
-259
-305
-703
-308
-79
-539
-433
-109
-431
-523
-82
-182
-482
-187
-35
-435
-399
-20
-268
-400
-23
-45
-314
-103
100
-231
-297
158
77
-207
188
220
-167
109
288
-68
2
343
100
-174
113
50
-271
-37
74
-365
-303
75
-289
-476
-25
-31
-452
-233
68
-394
-383
85
-154
-398
-9
-19
-416
-95
19
-416
-178
158
-162
-337
41
80
-271
-60
53
-350
-167
139
-193
-325
0
-4
-388
-212
67
-362
-323
159
-115
-468
-130
-37
-349
-104
46
-293
-265
50
-164
-415
115
224
-199
84
287
-165
2
401
120
56
454
329
-87
160
267
-125
-68
155
-179
-428
-199
-217
-468
-240
-65
-524
-471
-51
-334
-494
-183
-470
-740
409
1846
2886
4393
4896
3361
2042
1641
1076
541
538
481
-129
-113
333
-11
-202
179
107
-136
-10
46
-68
31
248
35
-138
173
132
-212
24
67
-370
-298
-1
-228
-385
-61
-82
-362
-186
-12
-349
-211
208
-148
-302
106
77
-143
131
237
-143
-147
223
32
-170
293
376
22
151
294
-63
5
343
61
-184
76
-1
-333
17
178
-332
-283
85
-204
-444
-26
-50
-492
-80
90
-459
-265
119
-221
-384
-155
-386
-693
-360
-160
-573
-493
-11
-278
-555
-119
-219
-637
-247
-108
-558
-409
-12
-293
-462
-111
-213
-581
-277
-54
-405
-345
-15
-300
-566
-84
-92
-566
-238
-13
-400
-330
35
-207
-428
-35
25
-435
-136
332
-166
-183
281
42
-37
354
335
-8
126
336
-56
-138
183
-180
-426
-77
-160
-463
-265
-101
-453
-371
-65
-418
-477
-52
-406
-826
31
1256
2363
3983
4694
3404
2062
1440
687
268
330
-4
-569
-494
-208
-480
-690
-478
-486
-743
-503
-213
-669
-667
-220
-491
-621
-214
-260
-603
-440
-306
-654
-544
-26
-201
-496
-131
-113
-505
-267
-98
-444
-362
-3
-180
-309
-45
-109
-359
-109
156
-271
-323
231
-47
-320
175
113
-232
112
294
-141
-190
152
-37
-385
-69
13
-402
-222
-39
-498
-437
-42
-340
-521
-228
-349
-649
-420
-310
-620
-480
-241
-500
-605
-356
-371
-605
-332
-140
-526
-456
-3
-214
-446
-34
-32
-465
-207
96
-335
-375
-63
-440
-626
-226
-334
-654
-327
-189
-590
-513
-148
-438
-660
-221
-329
-691
-368
-249
-625
-533
-205
-443
-610
-320
-346
-601
-311
-161
-518
-312
44
-303
-477
-51
-35
-346
12
195
-155
-18
254
-21
-227
64
-149
-566
-259
-167
-517
-318
3
-353
-546
-141
-263
-565
-190
-169
-581
-84
1321
2501
3835
4754
3740
2208
1514
935
260
114
150
-329
-592
-301
-414
-703
-534
-469
-621
-473
-301
-589
-661
-240
-332
-673
-323
-183
-616
-502
-236
-505
-511
-214
-363
-534
-261
-107
-452
-450
-80
-373
-418
42
-196
-493
-112
45
-320
-210
116
-113
-115
173
19
-173
167
203
-186
11
319
63
-113
167
119
-210
22
169
-222
-146
166
-149
-273
119
-13
-362
-93
85
-252
-229
86
-141
-238
125
-8
-369
-82
171
-202
-140
254
-83
-263
261
20
-387
145
227
-205
-29
308
-16
-179
227
70
-207
171
250
-138
7
336
-32
-192
261
120
-269
3
-35
-506
-445
-165
-435
-611
-267
-377
-692
-406
-264
-675
-460
-119
-571
-542
-191
-418
-581
-260
-114
-412
-333
-31
-386
-721
-355
-427
-754
-337
-189
-482
-340
-180
-537
-674
-363
-662
-984
-634
-570
-872
-785
-489
-784
-953
-486
-567
-883
-436
-467
-1097
-566
791
1999
3417
4389
3400
1793
1093
400
-170
-125
-212
-713
-788
-518
-741
-979
-694
-690
-1052
-854
-575
-789
-837
-676
-792
-885
-570
-536
-979
-861
-393
-667
-900
-454
-484
-774
-447
-334
-793
-657
-171
-512
-665
-202
-263
-569
-296
-118
-488
-297
-29
-414
-396
-37
-89
-380
-226
-53
-352
-183
146
-177
-352
3
-38
-398
-132
-38
-444
-380
-87
-375
-627
-272
-299
-514
-213
-196
-578
-416
-87
-352
-487
-143
-179
-488
-173
-86
-505
-246
92
-233
-308
73
-122
-353
81
105
-315
-201
90
-211
-267
150
-82
-339
61
131
-311
-225
123
-195
-335
74
-72
-406
-58
12
-458
-262
133
-248
-419
-90
-243
-441
-93
-61
-483
-311
53
-265
-395
129
59
-340
36
182
-147
50
266
116
182
389
108
-141
86
-38
-249
-100
-56
-383
-456
-198
-297
-464
-238
-137
-456
-370
-24
-396
-684
-6
858
1943
3805
4799
3826
2805
2200
1156
799
1111
594
90
373
316
28
236
434
123
62
416
312
111
460
348
-83
337
637
253
203
406
44
-279
121
306
-162
-21
333
-62
-131
327
239
-137
140
279
-18
121
385
148
120
496
228
-37
442
495
106
267
479
169
173
501
171
-182
183
245
-218
-107
137
-276
-463
-72
-116
-475
-170
-45
-500
-329
-19
-405
-384
12
-231
-469
-234
-148
-424
-237
17
-361
-347
94
-100
-409
-24
81
-262
-136
59
-207
-212
157
3
-224
134
192
-224
19
294
-94
-3
402
186
-5
355
297
-35
247
437
94
3
351
200
-44
381
453
31
174
523
203
141
566
400
177
621
729
341
530
713
359
447
942
813
563
842
865
492
601
773
277
258
629
309
119
422
302
-41
241
504
100
6
436
266
-201
172
759
1519
3245
4805
4732
3735
2906
1641
797
1077
802
62
19
278
-38
-179
238
-61
-372
14
78
-220
-72
159
-169
-197
181
-40
-305
48
95
-226
-13
198
-130
-93
221
11
-200
225
262
-428
-400
-65
-450
-405
5
-353
-496
-51
-66
-443
-238
62
-221
-168
173
-45
-249
-38
0
-193
78
328
-105
-154
207
5
-192
158
125
-217
58
228
-145
-150
184
-55
-246
141
55
-214
76
221
-253
-231
393
96
-512
-91
31
-523
-266
37
-324
-302
101
-125
-409
-21
40
-215
28
162
-122
-83
177
-17
-245
55
31
-231
69
181
-212
-193
161
-73
-246
143
104
-263
-139
137
-177
-278
157
13
-208
76
75
-265
-94
201
-117
-76
359
104
-193
152
236
16
245
459
267
304
457
223
81
293
168
-232
-68
29
-427
-317
113
-228
-498
-24
-21
-495
-184
117
-519
-652
357
1323
2406
4213
4730
3386
2406
1619
592
451
456
-168
-422
-149
-292
-708
-531
-336
-680
-648
-307
-545
-743
-388
-390
-822
-586
-269
-673
-687
-310
-478
-623
-295
-365
-593
-310
-211
-741
-1033
-773
-995
-1200
-763
-809
-1117
-805
-712
-1110
-864
-505
-853
-937
-557
-593
-968
-717
-472
-889
-784
-402
-672
-784
-437
-601
-977
-689
-528
-939
-920
-585
-906
-1096
-648
-719
-1077
-788
-688
-1106
-963
-586
-821
-1070
-715
-684
-1059
-727
-595
-1044
-906
-613
-781
-962
-686
-559
-964
-693
-351
-785
-745
-392
-696
-901
-537
-555
-877
-675
-440
-798
-801
-349
-657
-902
-476
-560
-876
-598
-518
-963
-866
-461
-795
-1024
-616
-658
-1117
-779
-408
-879
-848
-442
-701
-986
-613
-483
-759
-491
-313
-822
-777
-179
-350
-546
-108
-182
-579
-329
-173
-584
-664
-458
-764
-1020
-623
-554
-1004
-823
-674
-1094
-874
-513
-859
-1112
-953
-770
-214
1315
3049
3751
3463
2452
1020
114
84
-170
-835
-729
-597
-1121
-1059
-843
-1227
-1235
-817
-931
-1303
-1067
-828
-1162
-1190
-859
-1126
-1320
-950
-1066
-1388
-1116
-918
-1262
-1224
-962
-1289
-1326
-931
-1107
-1428
-1221
-1073
-1334
-1299
-1000
-1241
-1376
-976
-1042
-1493
-1215
-932
-1409
-1394
-1068
-1376
-1534
-1292
-1417
-1625
-1326
-1184
-1717
-1841
-1404
-1656
-1987
-1547
-1470
-1888
-1634
-1460
-1982
-1826
-1360
-1755
-1944
-1443
-1675
-2385
-2061
-1838
-2441
-2407
-2052
-2290
-2389
-2193
-2290
-2460
-2226
-2071
-2445
-2422
-2081
-2364
-2534
-2133
-2359
-2703
-2155
-2081
-2606
-2474
-2179
-2441
-2474
-2227
-2390
-2614
-2397
-2280
-2597
-2514
-2190
-2412
-2555
-2194
-2308
-2618
-2176
-2111
-2578
-2347
-2092
-2427
-2446
-2098
-2261
-2558
-2224
-2037
-2415
-2257
-1875
-2170
-2232
-1903
-2027
-2230
-1851
-1632
-2001
-1897
-1566
-1924
-2083
-1784
-1967
-2305
-2164
-2104
-2417
-2294
-1949
-2272
-2493
-2048
-2132
-2474
-2163
-2040
-2526
-2581
-1993
-1406
-152
1657
2476
1768
797
-42
-1184
-1361
-1094
-1757
-2128
-1819
-2066
-2525
-2231
-2054
-2502
-2405
-2071
-2383
-2404
-1980
-2140
-2503
-2105
-1907
-2328
-2069
-1725
-2173
-2263
-1824
-1942
-2269
-1927
-1731
-2150
-1997
-1640
-2033
-2102
-1520
-1671
-2125
-1658
-1455
-1896
-1718
-1327
-1628
-1804
-1382
-1475
-1843
-1464
-1186
-1626
-1513
-1026
-1404
-1587
-1078
-1333
-1778
-1304
-1156
-1618
-1562
-1260
-1498
-1606
-1285
-1492
-1715
-1298
-1193
-1531
-1415
-1027
-1307
-1564
-998
-1009
-1432
-1107
-983
-1307
-1156
-850
-1101
-1197
-768
-885
-1277
-898
-685
-1134
-1070
-574
-869
-1138
-706
-720
-1086
-888
-684
-1012
-976
-643
-889
-1062
-668
-764
-1052
-709
-638
-957
-804
-582
-904
-1011
-608
-766
-1014
-583
-600
-934
-738
-562
-794
-807
-416
-541
-785
-391
-336
-700
-510
-237
-450
-485
-70
-53
-368
-160
-110
-473
-390
-309
-706
-674
-332
-531
-867
-641
-496
-852
-642
-329
-703
-770
-441
-757
-1002
-34
1393
2615
3958
4323
2849
1576
1078
355
2
45
-288
-666
-582
-454
-734
-799
-466
-566
-780
-448
-412
-814
-565
-302
-632
-613
-287
-460
-735
-306
-262
-858
-797
-603
-747
-662
-369
-476
-680
-365
-207
-555
-449
-115
-381
-446
-5
-91
-472
-133
92
-208
-87
166
-169
-187
290
113
-117
283
322
-67
96
204
-142
-42
336
151
-282
-1
223
-270
-106
223
-235
-234
209
-26
-282
185
256
-203
0
336
-53
-116
236
-53
-557
-356
-186
-518
-355
-119
-473
-516
-109
-241
-511
-170
-129
-485
-246
-2
-357
-382
-23
-271
-513
-100
-10
-365
-277
-29
-310
-315
143
-163
-492
-69
23
-284
-177
115
-177
-329
115
-47
-411
121
272
-170
79
299
-94
-55
411
183
-52
477
518
51
269
532
6
-163
304
84
-270
107
136
-317
-67
235
-140
-107
243
62
-156
41
58
224
1470
3228
4340
4677
4119
2651
1465
1199
1062
537
373
409
-27
-79
323
115
-222
129
250
-78
90
308
41
-7
303
214
15
368
467
83
279
578
146
126
607
424
159
529
606
209
524
843
441
368
697
682
522
830
878
492
725
1078
764
620
944
793
602
982
938
596
841
1146
880
789
988
742
638
925
863
584
749
908
561
478
873
760
458
741
785
503
739
953
522
476
925
778
442
797
941
525
780
1037
627
779
1065
776
729
1022
976
657
892
1105
697
766
1098
810
632
946
970
624
835
1147
838
816
1100
890
719
1066
1037
681
971
1144
749
859
1186
911
735
1157
1264
898
1018
1342
1111
1076
1470
1315
1087
1506
1622
1310
1564
1698
1125
1201
1530
1148
1044
1395
1312
943
1181
1395
994
1004
1390
1182
919
1287
1249
679
1210
2385
3223
4877
6280
5271
3679
3118
2443
1728
1828
1758
1087
1109
1431
1080
841
1223
1269
976
1094
1256
1057
962
1201
1107
1032
1352
1272
1077
1373
1525
1253
1300
1605
1402
1157
1525
1628
1225
1411
1721
1376
1402
1790
1529
1464
1752
1626
1444
1736
1963
1549
1581
1923
1614
1478
1827
1810
1599
1796
1975
1683
1668
2004
1702
1344
1686
1772
1366
1484
1737
1417
1404
1732
1448
1226
1575
1569
1311
1551
1614
1183
1328
1693
1492
1325
1547
1618
1326
1554
1758
1274
1255
1625
1504
1351
1704
1639
1244
1457
1587
1344
1394
1699
1464
1148
1471
1503
1155
1254
1540
1305
1222
1635
1419
1060
1464
1590
1069
1188
1658
1244
1146
1662
1390
1077
1445
1468
1151
1415
1615
1266
1315
1613
1388
1242
1611
1719
1416
1616
1900
1516
1473
1780
1541
1325
1570
1436
1029
1157
1249
1033
1109
1333
1089
932
1269
1122
769
1131
1281
648
766
2088
3243
4439
5840
5506
3918
3013
2347
1611
1474
1559
1092
719
990
1010
660
799
966
651
639
968
741
507
931
969
580
830
1037
588
696
1048
754
596
923
1061
747
852
1086
708
704
1127
875
646
1104
1072
747
953
1073
819
914
1187
957
908
1206
1118
774
969
1224
844
866
1221
930
790
1134
981
682
944
1016
655
676
944
778
587
781
754
377
528
848
577
622
943
711
545
911
840
460
865
1013
346
481
1000
600
409
855
842
493
681
862
498
577
903
564
408
794
668
424
645
695
414
425
713
385
184
620
444
37
247
323
-10
130
522
165
-182
168
167
-142
102
177
-201
-148
162
-100
-302
128
132
-322
-61
186
-364
-276
227
-8
-126
114
-9
-398
-285
-78
-541
-679
-414
-736
-1021
-712
-776
-1067
-785
-679
-1141
-1116
-704
-1207
-1627
-816
87
1061
2796
3736
2737
1470
710
-339
-736
-480
-988
-1626
-1451
-1326
-1799
-1790
-1487
-1832
-1976
-1571
-1623
-2008
-1824
-1613
-1867
-1814
-1574
-1828
-1993
-1653
-1677
-2004
-1789
-1650
-2055
-2046
-1658
-1905
-2387
-2260
-2179
-2505
-2339
-2101
-2494
-2442
-2058
-2359
-2527
-2201
-2234
-2432
-2173
-2022
-2482
-2416
-1946
-2288
-2453
-2025
-2111
-2425
-2185
-2077
-2466
-2429
-2143
-2441
-2653
-2324
-2339
-2674
-2573
-2434
-2562
-2419
-2223
-2525
-2644
-2290
-2323
-2674
-2544
-2280
-2591
-2587
-2223
-2513
-2624
-2234
-2341
-2613
-2388
-2253
-2471
-2323
-2059
-2281
-2417
-2104
-2113
-2417
-2165
-1984
-2334
-2218
-1936
-2358
-2454
-1962
-2018
-2279
-2006
-1908
-2239
-2142
-1792
-2070
-2245
-1765
-1844
-2256
-1878
-1717
-2120
-1956
-1635
-1896
-1993
-1564
-1643
-2004
-1583
-1322
-1698
-1633
-1321
-1538
-1612
-1175
-1145
-1451
-1289
-1116
-1410
-1377
-1225
-1610
-1765
-1451
-1585
-1856
-1488
-1372
-1719
-1567
-1315
-1505
-1556
-1165
-1362
-1848
-1088
86
1072
2672
3809
2816
1362
783
30
-556
-579
-820
-1356
-1353
-1032
-1313
-1532
-1201
-1291
-1515
-1133
-1013
-1415
-1372
-987
-1160
-1251
-945
-1120
-1280
-906
-776
-1132
-986
-682
-1025
-1057
-621
-716
-967
-596
-431
-876
-788
-409
-681
-702
-268
-435
-643
-259
-147
-536
-484
-102
-323
-445
-44
-135
-484
-103
144
-347
-277
56
-307
-462
-73
-117
-454
-275
-144
-464
-489
-215
-412
-523
-115
-199
-536
-256
-166
-559
-337
80
-255
-386
-11
-154
-351
-47
-8
-297
-165
183
-89
-214
249
75
-230
151
251
-86
49
344
51
-144
255
184
-215
149
381
45
138
336
32
-2
356
264
-19
242
360
-3
104
415
151
23
454
317
-109
341
605
222
303
605
339
123
601
704
365
609
781
496
576
767
392
245
606
353
-75
225
275
-72
36
314
89
-136
280
187
-271
100
97
-355
404
1855
2986
4245
4866
3608
2072
1525
1022
409
283
365
-54
-298
13
-137
-434
-128
30
-329
-116
269
-128
-209
223
112
-143
193
296
-97
50
442
127
-17
499
400
1
321
475
87
224
571
332
211
540
527
237
587
777
342
495
814
477
446
835
637
346
622
742
531
694
863
642
659
813
588
355
599
735
329
339
627
368
316
602
398
187
561
646
255
388
626
295
226
588
474
224
521
608
139
141
446
99
-72
355
310
-27
202
396
67
130
395
62
56
389
191
55
313
224
-60
241
516
164
127
466
256
47
430
461
98
242
541
303
150
538
520
225
472
601
288
329
610
365
275
713
563
281
725
872
551
619
841
692
612
978
969
765
1063
993
524
731
1019
604
484
742
617
330
445
653
347
412
724
356
274
635
469
174
552
1307
2135
3852
5520
5015
3738
3117
2077
1292
1501
1440
901
792
963
679
559
898
749
445
730
845
533
711
1003
767
713
1016
957
638
880
1078
663
850
1266
883
759
1195
1017
678
1129
1128
608
749
985
791
702
1007
980
666
1023
1244
727
912
1333
937
851
1214
1100
819
1104
1241
881
1057
1417
947
705
1223
1139
707
968
1087
727
909
1220
920
804
1125
995
710
1066
1219
784
864
1218
992
964
1306
1041
699
947
1084
838
949
1197
879
862
1312
1099
761
1217
1321
836
1099
1434
1021
953
1343
1204
886
1177
1224
833
1068
1409
1083
913
1259
1133
792
1181
1326
778
860
1244
896
729
1059
852
548
905
946
558
821
1206
921
929
1313
1115
861
1214
1354
1007
1158
1559
1301
1070
1390
1209
792
1139
1073
599
797
995
708
587
966
829
510
861
898
563
759
942
455
824
2362
3514
4653
5606
4757
3117
2393
1975
1319
1023
1067
723
452
739
708
323
533
717
371
332
637
582
319
592
619
242
513
774
488
427
730
585
309
679
730
288
476
662
93
-77
274
80
-82
250
258
-42
123
401
102
49
459
359
43
316
350
-1
274
555
245
192
552
338
90
427
352
-52
98
345
33
-12
293
41
-257
119
234
-206
-14
293
-104
-107
279
46
-217
110
217
-190
-72
289
-15
-227
222
233
-149
161
246
-111
113
334
-50
-39
415
190
-106
228
285
-128
55
368
-29
-2
414
150
-120
188
254
-85
74
360
-13
-6
365
128
-92
231
291
-123
82
359
-47
-40
429
322
8
262
366
107
394
665
217
282
842
580
250
549
544
145
207
422
91
-61
262
126
-49
325
372
14
95
453
121
-306
195
984
1909
3637
4937
4315
3130
2335
1257
829
995
414
-83
143
154
-313
-281
44
-212
-278
125
-76
-454
-30
85
-332
-126
109
-149
-134
116
-77
-257
59
147
-179
-50
178
-150
-164
240
168
-169
188
412
-70
73
451
158
66
482
370
22
392
453
30
323
664
320
300
610
352
181
575
566
164
346
540
132
69
434
313
-43
87
120
-210
-51
139
-131
-69
134
-29
-227
18
70
-290
-81
189
-149
-190
260
45
-308
121
208
-139
113
331
-2
-114
219
126
-207
201
302
-82
112
230
-77
-69
283
57
-231
229
175
-243
38
234
-43
-72
315
98
-203
311
288
-132
109
376
90
-46
433
429
36
402
616
180
280
692
444
403
829
602
258
533
541
140
151
287
80
130
315
0
-116
196
180
-122
26
280
15
-121
36
125
875
2552
4092
4625
4118
3108
1788
974
1114
705
-12
157
124
-290
-46
167
-158
-311
-12
-74
-454
-42
117
-382
-161
80
-219
-171
219
37
-336
-18
19
-279
-41
169
-88
-212
197
196
-237
99
339
-64
147
422
-11
29
533
268
-49
363
390
84
322
488
175
252
501
264
175
477
512
143
262
502
44
1
467
95
-248
277
274
-129
221
464
-4
-88
315
116
-214
135
228
-217
-69
255
-34
-178
128
-18
-462
-140
67
-381
-240
37
-422
-359
140
-207
-470
29
83
-319
-85
142
-252
-290
97
-34
-264
165
263
-149
29
363
52
37
435
147
-85
333
338
23
251
496
123
11
424
228
-58
374
542
247
477
746
327
254
675
594
372
691
847
444
491
783
289
155
724
472
11
367
416
-50
136
427
80
11
398
196
-139
314
194
-339
640
2213
3268
4458
4998
3734
2229
1639
1213
743
555
486
28
-158
170
23
-238
63
121
-279
-135
155
-211
-194
177
-112
-339
62
87
-196
44
204
-153
-117
281
-47
-331
197
255
-207
75
367
26
-10
290
116
-86
342
427
38
163
486
289
229
550
417
207
521
581
166
363
693
291
202
504
252
4
320
239
-212
-146
-15
-346
-397
-56
-151
-367
-165
-77
-525
-416
58
-287
-428
49
-103
-614
-222
102
-276
-160
57
-215
-223
127
-38
-416
16
246
-219
-72
296
-79
-258
174
84
-247
141
212
-245
-5
217
-248
-207
253
-51
-292
141
107
-277
-54
213
-195
-248
286
99
-259
32
93
-211
-60
273
71
-161
194
156
-142
304
384
-47
213
531
189
23
297
188
-159
138
113
-395
-215
20
-304
-341
-14
-268
-487
-12
5
-395
-292
-191
-322
448
2209
3570
4256
4217
3057
1514
885
941
417
-54
106
-405
-1096
-716
-647
-1184
-1049
-725
-995
-1184
-813
-855
-1073
-825
-833
-1084
-854
-621
-972
-1018
-673
-855
-1098
-757
-701
-1067
-875
-675
-1001
-891
-531
-758
-952
-651
-576
-823
-684
-465
-684
-655
-261
-454
-749
-421
-354
-647
-496
-221
-450
-489
-137
-420
-685
-301
-395
-796
-573
-372
-741
-743
-449
-621
-775
-568
-544
-853
-744
-451
-734
-849
-564
-658
-870
-636
-538
-829
-726
-556
-815
-772
-474
-589
-770
-524
-480
-817
-668
-428
-797
-780
-337
-568
-805
-474
-562
-858
-524
-303
-680
-717
-419
-632
-794
-449
-445
-800
-633
-415
-796
-803
-374
-609
-860
-448
-387
-839
-592
-180
-569
-602
-203
-381
-634
-279
-78
-390
-362
-84
-239
-327
-40
-260
-609
-362
-384
-816
-691
-385
-707
-785
-448
-697
-953
-594
-531
-861
-660
-564
-962
-416
1036
2298
3487
4145
3123
1476
836
551
-157
-529
-339
-580
-964
-704
-657
-1052
-848
-619
-980
-967
-637
-824
-1033
-718
-630
-1000
-888
-607
-944
-871
-412
-616
-896
-581
-492
-836
-677
-414
-770
-791
-326
-540
-831
-467
-370
-637
-373
-117
-532
-505
-57
-231
-496
-197
-129
-431
-272
-54
-339
-438
-20
-160
-482
-94
-78
-451
-252
-101
-430
-474
-83
-222
-605
-207
-180
-597
-348
-54
-360
-500
-47
-157
-471
-174
-110
-374
-357
-200
-373
-348
4
-199
-432
-95
-32
-411
-287
12
-279
-299
80
-143
-396
14
-8
-442
-173
38
-297
-300
106
-74
-495
-162
2
-348
-193
61
-355
-438
-2
-192
-429
-63
-74
-409
-232
-32
-315
-290
101
-55
-279
53
159
-141
24
325
118
51
240
43
-248
-79
-50
-460
-373
14
-296
-499
-122
-261
-571
-257
-169
-489
-314
-155
-680
-747
214
1254
2653
4283
4372
2954
1857
1184
399
246
261
-230
-550
-305
-274
-683
-592
-360
-627
-656
-260
-463
-762
-369
-373
-825
-487
-78
-511
-605
-226
-399
-506
-168
-284
-540
-278
-117
-435
-462
-18
-167
-484
-128
46
-297
-236
122
-152
-227
243
57
-173
231
222
-171
-32
274
21
-43
340
208
-134
186
195
-387
-291
-138
-602
-542
-115
-474
-774
-386
-369
-671
-452
-338
-707
-560
-198
-385
-592
-273
-187
-570
-420
-252
-556
-532
-174
-310
-550
-177
-35
-439
-378
-15
-245
-362
-22
-148
-495
-225
-85
-464
-287
129
-190
-240
137
-124
-236
104
33
-248
-11
243
-96
-170
173
30
-204
153
268
-106
55
343
-31
-107
294
194
-68
223
342
21
239
629
351
321
674
375
216
708
760
444
621
972
546
367
898
592
274
610
408
25
269
516
133
-100
97
-106
-276
88
104
-297
-178
-77
-353
326
1966
3337
4336
4787
3829
2305
1581
1313
832
450
373
178
-9
225
207
-172
-21
118
-99
-96
135
117
-106
145
242
-212
-31
349
-40
-72
426
177
-177
271
369
-83
63
427
173
66
410
91
-282
118
183
-210
-15
323
-30
-27
415
107
-187
55
-15
-255
-66
78
-195
-193
134
-20
-271
-12
24
-211
-68
53
-174
-208
78
-1
-245
83
184
-240
-50
247
-96
-124
209
109
-107
173
322
-111
13
428
44
-7
453
199
-28
336
288
54
356
603
193
95
552
410
134
366
388
145
357
560
137
58
510
277
-32
472
504
-88
182
618
148
23
470
295
-22
301
371
-36
159
421
38
105
520
286
174
593
430
2
419
790
430
378
752
693
448
638
642
178
206
368
-59
-134
171
-76
-298
148
231
-325
-134
332
-53
-190
206
20
-442
68
1056
1952
3626
4990
4281
3029
2275
1175
672
828
400
-107
50
174
-248
-289
73
-166
-466
-103
57
-360
-229
196
-150
-375
42
-11
-301
-12
95
-237
-90
203
-132
-184
211
54
-210
-146
-378
-689
-446
-188
-559
-679
-186
-241
-606
-268
-98
-577
-457
-37
-347
-440
-19
-225
-504
-87
-38
-524
-424
-33
-295
-482
-119
-322
-723
-363
-208
-684
-650
-248
-535
-677
-276
-456
-823
-515
-301
-680
-576
-213
-584
-651
-283
-481
-707
-395
-331
-688
-442
-274
-662
-553
-228
-363
-603
-340
-229
-582
-443
-191
-465
-532
-178
-356
-680
-282
-272
-686
-385
-123
-509
-598
-274
-414
-553
-275
-322
-611
-422
-210
-516
-451
-186
-416
-473
-125
-98
-436
-278
-57
-399
-345
29
-123
-288
67
120
-369
-287
36
-372
-588
-195
-443
-959
-509
-255
-812
-698
-335
-689
-813
-436
-515
-765
-551
-597
-726
224
1717
2935
4004
4084
2636
1191
789
537
-37
-192
-150
-590
-703
-348
-563
-806
-476
-440
-715
-593
-376
-660
-694
-250
-405
-734
-392
-329
-696
-484
-208
-562
-619
-272
-496
-689
-335
-268
-577
-392
-108
-435
-452
-51
-214
-489
-181
-49
-342
-184
85
-224
-267
81
-138
-324
107
173
-181
-22
232
-104
-248
78
-27
-445
-292
-162
-563
-506
-183
-469
-582
-240
-375
-690
-321
-148
-633
-546
-130
-464
-674
-206
-298
-685
-343
-201
-605
-310
-29
-635
-708
-230
-440
-710
-298
-171
-516
-413
-151
-497
-650
-259
-437
-737
-412
-305
-622
-439
-204
-595
-524
-140
-271
-480
-274
-194
-544
-364
-89
-417
-466
-89
-274
-560
-159
-18
-296
-147
7
-261
-157
298
178
-69
227
356
91
63
326
65
-179
177
-28
-413
-112
-55
-482
-312
45
-275
-352
-42
-223
-397
-73
-55
-593
-321
840
1877
3387
4701
4009
2479
1768
1113
388
391
405
-289
-477
1
-211
-519
-198
-165
-540
-414
-90
-375
-487
-68
-152
-501
-244
-50
-447
-325
98
-235
-364
-23
-118
-337
-57
47
-268
-84
209
-87
-215
207
191
-64
203
290
94
289
466
87
34
443
281
13
356
380
62
259
434
138
62
421
286
-68
245
264
-186
-6
293
-113
-244
161
-41
-303
62
70
-340
-215
28
-317
-385
-33
-288
-654
-343
-227
-579
-469
-139
-431
-626
-172
-275
-616
-239
-216
-611
-413
-83
-398
-640
-179
-242
-628
-296
-216
-512
-346
-151
-420
-463
-138
-273
-575
-229
-17
-458
-339
-47
-515
-645
-133
-167
-455
-190
-97
-410
-337
-54
-262
-307
82
6
-173
124
137
-261
-90
296
76
-23
193
27
-374
-242
-47
-442
-467
-211
-569
-681
-406
-576
-746
-403
-296
-745
-700
-350
-633
-988
-455
413
1316
3196
4544
3726
2699
2051
822
239
545
200
-514
-317
-14
-498
-565
-204
-519
-659
-200
-333
-677
-283
-147
-622
-495
-52
-396
-576
-98
-251
-557
-179
-57
-437
-306
-22
-479
-548
18
-76
-410
-203
-229
-631
-484
-192
-504
-560
-149
-280
-607
-314
-146
-501
-368
-117
-473
-480
-37
-117
-478
-297
-205
-624
-484
-151
-497
-682
-434
-504
-705
-430
-503
-910
-574
-284
-726
-975
-526
-356
-689
-601
-473
-940
-920
-442
-685
-725
-292
-424
-710
-405
-218
-536
-469
-122
-325
-384
21
-159
-473
-148
-29
-448
-275
102
-271
-430
-10
-89
-514
-198
87
-347
-282
116
-291
-467
-51
-220
-476
-170
-124
-449
-338
-92
-352
-472
-85
-176
-551
-231
-1
-371
-275
168
-125
-407
-8
22
-244
14
196
-53
118
337
-66
-177
74
-184
-434
-105
-103
-608
-456
-86
-475
-621
-257
-350
-543
-291
-217
-610
-760
-237
477
1685
3558
4421
3679
2719
1830
662
406
595
-194
-649
-352
-491
-902
-737
-486
-812
-741
-441
-791
-922
-470
-583
-941
-557
-356
-817
-739
-348
-674
-734
-361
-487
-708
-506
-415
-663
-646
-396
-478
-530
-204
-311
-589
-240
-104
-501
-367
-21
-268
-270
102
-102
-285
-21
-19
-255
-140
148
-46
-192
143
62
-377
-92
140
-318
-303
-20
-278
-478
-185
-168
-521
-289
-153
-477
-323
-128
-390
-509
-202
-239
-558
-316
-139
-430
-362
-112
-338
-443
-112
-221
-477
-159
-318
-806
-570
-291
-648
-912
-576
-663
-1010
-659
-603
-1056
-888
-592
-919
-1065
-632
-785
-1151
-756
-681
-1071
-1045
-689
-832
-1061
-749
-823
-1078
-815
-668
-930
-742
-374
-756
-985
-558
-613
-925
-580
-333
-637
-582
-284
-649
-945
-625
-679
-987
-871
-851
-1129
-1030
-711
-1059
-1251
-805
-870
-1160
-890
-733
-1133
-1205
-767
-315
867
2863
3819
3179
2257
1316
138
-182
46
-651
-1053
-670
-902
-1224
-970
-853
-1143
-1087
-766
-1026
-1167
-773
-907
-1184
-769
-682
-1147
-955
-566
-925
-1054
-629
-703
-933
-685
-612
-986
-952
-598
-784
-892
-501
-594
-862
-495
-341
-688
-600
-286
-600
-712
-186
-312
-644
-281
-186
-580
-463
-83
-363
-487
-141
-319
-595
-312
-261
-659
-619
-378
-622
-740
-407
-452
-753
-533
-360
-683
-636
-375
-678
-736
-288
-452
-750
-467
-333
-652
-627
-188
-370
-568
-209
-293
-609
-305
-184
-597
-391
-61
-491
-487
-87
-348
-506
-101
-81
-415
-281
-1
-209
-324
41
-134
-458
-51
-38
-384
-121
107
-249
-297
65
-124
-322
-34
71
-90
-51
158
-37
-185
293
338
-3
304
475
78
151
436
27
-146
222
-25
-405
-99
-23
-420
-213
203
-204
-424
-23
-141
-367
-42
-138
-475
323
1790
3060
4229
4478
3105
1524
1109
1009
336
17
138
-240
-443
-80
-222
-587
-279
-96
-448
-427
-110
-412
-502
-14
-298
-662
-210
-2
-413
-380
11
-274
-413
-4
-158
-425
-137
-89
-444
-267
165
-55
-227
60
22
-315
-132
145
-148
-90
306
-43
-256
206
84
-330
53
314
-105
-33
280
26
-87
167
32
-300
-19
118
-352
-250
119
-147
-305
14
-80
-438
-143
-2
-446
-311
98
-177
-338
-34
-175
-363
-196
-243
-550
-480
-266
-578
-735
-303
-311
-709
-420
-258
-617
-449
-190
-507
-633
-299
-379
-638
-402
-230
-477
-431
-173
-457
-538
-138
-283
-621
-246
-122
-523
-369
-57
-300
-504
-200
-177
-538
-285
-60
-433
-226
171
-191
-340
1
-138
-336
78
210
-110
-75
71
-153
-253
-17
-247
-586
-345
-302
-595
-468
-178
-458
-563
-168
-312
-619
-249
-233
-870
-425
888
1876
3351
4722
4131
2544
1800
1243
499
477
518
8
-255
-16
-92
-430
-255
-61
-269
-194
58
-210
-384
-29
-64
-289
12
107
-297
-212
36
-386
-574
-114
-154
-510
-179
-72
-467
-315
-65
-361
-391
92
-78
-399
-68
-80
-364
-134
121
-213
-230
152
-20
-256
-8
170
-178
-85
277
-117
-153
229
-29
-385
-119
36
-337
-322
11
-276
-464
-49
-173
-462
-187
-139
-393
-266
-30
-268
-446
-205
-329
-728
-540
-382
-727
-644
-307
-587
-727
-316
-354
-560
-220
-25
-394
-366
-11
-243
-375
-11
-68
-379
-17
159
-261
-117
180
-145
-171
154
19
-180
84
150
-226
19
262
-146
-97
236
37
-209
156
288
-99
28
287
-50
-108
368
283
-25
343
458
36
253
636
345
196
653
695
219
414
582
67
81
277
-240
-373
-51
-233
-403
-119
10
-308
-208
96
-239
-199
103
-383
-390
948
2417
3523
4400
3989
2456
1296
842
505
-1
-36
-79
-554
-492
-134
-388
-586
-264
-308
-544
-299
-197
-480
-451
-110
-205
-440
-121
-123
-411
-132
7
-278
-164
144
-178
-423
-93
-127
-375
-168
-34
-290
-229
27
-235
-369
-13
-194
-570
-104
94
-376
-251
138
-202
-391
59
9
-263
30
49
-387
-297
24
-297
-439
44
-108
-611
-334
-171
-568
-532
-205
-447
-702
-294
-303
-670
-367
-204
-589
-542
-140
-398
-694
-265
-251
-557
-211
-128
-538
-368
-35
-360
-422
-69
-294
-496
-128
-53
-406
-296
-36
-309
-426
-69
-151
-450
-142
2
-460
-474
18
-214
-459
-43
-129
-442
-215
-82
-383
-347
-3
-155
-322
98
135
-258
25
187
-224
6
418
92
11
394
265
-45
65
137
-217
-237
24
-299
-487
-103
-176
-656
-330
-36
-506
-410
-39
-320
-526
-437
-342
433
2118
3804
4390
3804
2752
1472
728
728
374
-210
-142
-60
-484
-462
-183
-411
-548
-220
-311
-618
-237
-162
-545
-330
-12
-259
-393
39
-12
-476
-137
157
-307
-294
166
-19
-208
166
115
-241
73
278
-96
41
367
1
-62
432
248
-77
288
411
95
177
417
154
53
495
478
73
347
628
142
105
495
147
-10
372
139
-194
142
270
-105
-25
308
81
-71
326
283
-79
193
334
-44
13
290
43
-118
231
299
-43
114
371
13
-37
360
235
118
411
296
70
325
382
10
173
544
151
-100
380
374
-109
166
479
96
124
497
250
37
331
258
-32
231
407
92
90
389
230
120
511
414
87
409
562
244
374
731
515
435
776
598
210
413
496
61
82
423
132
-102
218
147
-133
159
214
-43
129
283
81
-188
21
563
1404
3134
4720
4641
3743
2852
1571
926
1175
769
120
310
344
-117
8
337
8
-196
158
198
-201
-4
350
55
111
432
148
-76
288
382
150
381
443
101
281
539
261
218
554
429
154
448
690
290
316
742
392
267
812
746
357
552
728
494
564
829
570
390
704
711
512
647
812
522
425
675
383
299
693
542
169
415
563
195
288
622
319
122
573
465
10
368
626
223
315
711
375
141
584
548
150
502
725
224
320
749
441
254
663
599
213
546
740
311
420
736
367
248
636
514
166
412
584
222
298
629
335
90
478
506
145
434
580
52
203
690
402
301
752
725
330
439
632
349
438
790
579
480
756
608
261
518
669
203
178
422
75
-11
362
115
-243
119
298
-81
-34
338
92
-271
111
703
1512
3258
4717
4467
3537
2759
1583
938
1148
844
297
335
338
-139
-140
142
-208
-302
104
-47
-375
-61
200
-131
-63
335
91
-65
316
285
-198
-67
173
-134
-20
325
38
-248
121
230
-148
104
344
-96
-71
352
123
-95
386
378
1
269
436
150
224
522
238
27
484
486
95
304
444
96
138
418
127
-78
213
213
-24
79
272
42
-54
237
-58
-281
206
112
-215
177
311
-35
118
434
231
75
382
326
74
337
417
69
161
546
355
205
493
399
65
355
608
210
188
536
373
209
462
291
-22
310
497
129
153
480
243
69
413
327
-13
352
451
-17
65
384
250
54
318
348
38
307
557
239
291
644
351
62
588
716
346
647
834
405
428
761
512
228
431
264
-99
210
245
-211
23
420
29
-199
245
149
-175
179
126
-402
271
1649
2786
4202
4890
3901
2531
1769
1156
569
431
457
2
-281
36
-28
-457
-179
125
-317
-325
98
-187
-437
4
2
-360
-119
68
-289
-282
105
-26
-298
-11
117
-213
-52
239
-301
-305
370
14
-272
156
95
-117
212
357
-69
3
409
167
-72
288
324
-128
121
408
97
143
348
255
84
235
300
-50
8
118
-349
-358
-68
-380
-620
-303
-209
-448
-256
-107
-478
-525
-101
-263
-490
-87
-143
-494
-258
-74
-348
-278
97
-79
-274
17
-65
-406
-123
179
-221
-277
199
-30
-375
-34
30
-221
-51
-19
-521
-527
-200
-559
-803
-486
-557
-903
-679
-497
-944
-911
-439
-672
-805
-451
-699
-1049
-619
-316
-619
-731
-501
-685
-902
-534
-479
-731
-553
-426
-603
-574
-290
-425
-597
-224
-250
-682
-537
-358
-819
-909
-552
-825
-1111
-710
-705
-1099
-928
-672
-970
-989
-579
-798
-1103
-951
-707
86
1853
3558
3854
3139
2283
1134
217
311
150
-620
-515
-144
-658
-793
-336
-511
-747
-454
-381
-573
-388
-303
-649
-586
-210
-432
-618
-202
-373
-721
-277
-142
-533
-453
-109
-339
-506
-54
-106
-455
-229
-66
-325
-264
120
-66
-294
101
156
-237
-114
161
-80
-163
145
-38
-224
158
107
-187
81
329
-11
-135
195
-34
-303
92
172
-206
-58
211
-212
-302
74
-169
-387
0
-15
-405
-206
5
-289
-293
77
-48
-278
53
68
-327
-124
160
-213
-215
210
-33
-280
73
54
-267
12
161
-224
-137
207
-57
-306
125
226
-229
21
343
-159
-188
195
-49
-218
163
148
-235
-14
173
-192
-174
158
-29
-234
203
188
-296
11
280
-32
83
386
167
12
350
338
-109
74
255
-252
-256
121
-214
-413
27
-46
-483
-294
-46
-368
-389
32
-212
-812
-311
773
1693
3399
4637
3909
2653
1736
743
264
385
53
-475
-347
-208
-604
-636
-289
-444
-682
-371
-315
-682
-449
-169
-577
-589
-187
-405
-669
-289
-257
-638
-394
-180
-516
-493
-117
-302
-573
-171
-43
-385
-297
-102
-301
-200
178
-139
-325
168
158
-189
7
171
-130
-151
202
80
-211
137
184
-202
-17
245
-85
-213
222
74
-197
165
170
-222
-42
198
-174
-208
154
-52
-245
150
112
-297
-41
160
-183
-151
246
44
-318
59
115
-254
-47
214
-49
-105
214
38
-175
149
133
-257
6
290
-159
-166
292
115
-244
1
112
-213
-158
109
-64
-221
85
-90
-346
100
92
-243
43
332
47
-37
292
162
-118
237
464
166
240
453
118
8
382
205
-118
102
55
-367
-304
111
-105
-288
36
-88
-417
-176
10
-231
-229
-256
-300
515
2154
3627
4326
4228
3254
1857
1133
974
391
-22
158
-1
-353
-112
-50
-507
-368
24
-394
-633
-79
-198
-576
-164
-74
-456
-322
-36
-355
-379
109
-124
-461
-87
9
-366
-256
59
-194
-304
119
32
-452
-58
367
-93
-25
377
-9
-111
376
218
-152
164
356
-48
14
420
126
5
468
359
-22
203
318
-125
-43
382
73
-149
152
43
-229
-9
142
-118
-100
135
-64
-160
136
80
-221
16
171
-172
-44
272
-73
-237
308
344
37
324
436
96
247
540
257
151
522
441
93
403
525
80
329
689
268
106
556
452
19
365
583
203
319
506
159
217
572
470
220
443
619
409
507
653
413
326
611
702
533
761
938
522
574
945
587
278
613
502
69
364
435
13
255
439
-63
-23
527
348
12
370
298
-240
428
1865
2870
4081
5010
4079
2607
1996
1302
759
712
482
88
-6
219
37
-302
-104
61
-245
-242
154
-74
-245
188
96
-270
10
111
-281
-77
122
-152
-51
171
75
-82
114
231
-78
38
356
42
-33
366
120
-261
63
126
-295
-114
159
-159
-160
325
299
-114
185
476
146
224
460
250
105
399
337
-49
196
349
31
-69
209
127
-136
287
213
-246
178
355
-58
-38
203
-11
-120
206
55
-157
188
270
-152
-157
336
202
-143
109
182
-95
138
354
-66
18
360
54
-79
198
139
-84
155
313
-120
-207
259
151
-150
223
252
-170
22
290
-41
-105
255
-16
-300
236
301
-193
-51
251
28
11
292
102
77
417
183
-42
319
468
307
441
766
388
-37
432
395
-64
201
343
-172
-219
139
-166
-240
181
34
-322
-91
89
-218
-199
-97
-269
638
2538
3846
4270
3962
3032
1739
853
902
617
21
61
-85
-491
-281
-42
-447
-450
-42
-321
-517
-111
-103
-370
-139
-3
-507
-443
117
-266
-492
-35
-109
-367
-101
104
-220
-269
15
-170
-203
160
48
-240
2
230
-204
-300
18
-320
-558
-363
-523
-730
-477
-425
-787
-676
-334
-509
-702
-476
-477
-808
-610
-447
-905
-893
-584
-826
-918
-559
-685
-1082
-765
-567
-945
-917
-632
-886
-1048
-606
-697
-1095
-855
-653
-852
-765
-481
-705
-915
-578
-568
-891
-635
-426
-769
-755
-407
-633
-866
-464
-482
-831
-539
-332
-734
-727
-348
-602
-809
-432
-479
-869
-599
-376
-816
-690
-277
-562
-748
-458
-461
-753
-553
-267
-477
-539
-247
-402
-683
-258
-104
-486
-368
-86
-227
-291
-40
-247
-555
-277
-424
-859
-582
-375
-760
-785
-452
-656
-928
-591
-515
-947
-734
-392
-961
-1082
-196
774
2225
3945
4084
2636
1688
1014
148
44
105
-409
-765
-449
-475
-908
-702
-485
-802
-808
-490
-621
-849
-569
-534
-820
-493
-263
-745
-786
-319
-405
-611
-284
-350
-765
-404
-110
-500
-438
-139
-384
-505
-100
-31
-386
-254
35
-167
-249
128
64
-233
76
103
-225
91
293
-126
-77
295
51
-145
244
192
-282
-53
151
-281
-274
127
-31
-373
-102
-10
-410
-225
120
-238
-352
110
-75
-406
15
20
-320
-31
103
-226
-188
126
-27
-234
98
135
-281
-78
243
-113
-191
-43
-253
-304
93
175
-184
19
291
-135
-188
300
88
-196
209
271
-151
58
405
-42
-48
464
243
-9
333
406
154
300
488
162
106
594
443
112
663
798
267
469
833
445
240
366
-74
-405
-36
5
-424
-296
36
-323
-538
-111
-176
-407
-156
-381
-752
94
1558
2721
4132
4628
3216
1829
1357
858
252
153
181
-244
-393
-64
-238
-490
-145
-100
-433
-264
-39
-331
-349
73
-93
-408
-79
-48
-361
-183
30
-226
-298
76
27
-226
86
130
-193
36
247
-26
-33
273
152
-43
281
344
-27
180
515
131
-8
422
349
-3
304
530
198
238
436
75
52
495
239
-114
292
291
-165
89
305
-93
-155
215
109
-181
36
187
-89
-38
163
-110
-147
196
53
-188
113
153
-156
59
384
44
-123
261
196
-96
142
260
-48
112
407
84
14
407
329
68
330
427
11
185
519
123
99
555
401
91
400
546
110
194
648
252
24
550
433
127
548
716
307
436
751
399
365
830
757
436
768
946
495
570
789
502
367
606
319
-255
-13
118
-292
-148
191
-164
-343
66
-40
-392
-192
-184
-284
810
2543
3677
4476
4380
3100
1858
1305
1135
527
248
483
67
-169
213
64
-191
66
-107
-429
-271
-138
-403
-580
-67
72
-282
9
182
-361
-434
-97
-258
-329
-81
-269
-572
-261
-148
-433
-239
27
-234
-353
-48
-108
-314
-26
141
-252
-271
215
4
-310
139
110
-169
210
273
-75
26
344
108
-183
144
129
-259
-42
86
-297
-240
91
-191
-386
-43
-227
-421
42
4
-428
-241
75
-169
-221
192
96
-212
91
260
-87
-8
275
50
65
394
173
-62
326
435
21
170
500
213
35
253
249
83
258
382
96
231
467
91
13
361
284
-45
177
345
-9
65
283
120
103
294
241
-37
147
356
-9
98
520
289
117
434
404
73
356
590
195
327
754
512
418
751
522
135
345
471
18
-31
326
-43
-256
209
120
-247
58
291
-151
-89
291
-261
-440
717
1908
3069
4520
4642
3308
2309
1638
845
500
551
178
-270
-49
72
-396
-389
41
-349
-478
75
-27
-424
-259
-98
-348
-285
54
-173
-394
10
-15
-304
-93
-33
-302
-217
139
-21
-312
8
69
-193
138
214
-158
5
354
123
-116
-24
-330
-607
-133
65
-476
-531
-198
-416
-664
-407
-366
-656
-471
-358
-779
-747
-460
-735
-948
-659
-715
-1098
-865
-591
-944
-967
-620
-870
-1038
-650
-741
-1089
-747
-570
-991
-1035
-761
-808
-951
-613
-618
-989
-694
-655
-1055
-803
-422
-779
-962
-458
-463
-837
-597
-489
-814
-704
-389
-602
-797
-490
-497
-793
-568
-422
-787
-776
-380
-646
-850
-372
-465
-849
-608
-398
-702
-635
-236
-426
-601
-310
-371
-621
-245
12
-384
-360
71
-125
-369
-103
-171
-539
-391
-244
-612
-663
-420
-555
-681
-441
-446
-708
-541
-344
-610
-618
-462
-755
-460
1008
2522
3539
4004
3301
1801
816
572
159
-305
-312
-443
-819
-693
-444
-784
-797
-489
-729
-921
-595
-508
-789
-685
-452
-648
-612
-333
-599
-733
-398
-402
-661
-503
-299
-551
-487
-129
-346
-595
-311
-211
-440
-266
-6
-315
-377
16
-126
-341
36
133
-222
-133
112
-175
-234
221
69
-245
154
220
-200
-70
125
-237
-238
84
-182
-393
-54
-34
-394
-219
57
-289
-395
-1
-127
-403
-69
-11
-325
-106
-17
-384
-223
109
-103
-322
63
161
-290
-134
107
-218
-154
215
-42
-256
100
129
-208
-39
246
-103
-259
138
-7
-376
-29
137
-233
-85
169
-131
-171
164
14
-250
108
92
-362
-141
112
-266
-290
158
11
-241
34
99
-184
66
455
140
99
529
361
66
362
402
27
202
427
-78
-196
269
33
-329
17
55
-273
-31
224
-41
-64
90
-246
-132
1159
2587
3754
4693
4193
2519
1553
1257
725
353
412
175
-221
-74
165
-152
-290
59
-100
-313
58
63
-327
-114
196
-109
-223
38
-41
-162
128
145
-219
16
262
-170
-117
339
76
-197
168
220
-94
133
445
73
-22
432
230
-42
416
446
65
291
495
158
137
463
266
34
467
582
143
216
425
151
124
392
151
-131
222
221
-145
81
320
-31
-113
231
45
-200
130
285
-76
-10
278
-44
-137
275
182
-93
169
239
-74
78
348
-25
-60
416
177
-137
198
248
-58
99
321
0
-32
340
134
-167
138
268
-105
-43
246
-39
-79
220
-10
-240
119
252
-173
-54
337
66
70
463
300
90
444
501
34
141
523
249
264
714
378
59
383
319
-69
-1
125
-129
-176
30
-146
-306
48
98
-312
-217
97
-115
-279
-179
-197
397
1987
3553
4336
4194
3280
1998
1091
952
727
158
79
57
-129
26
82
-304
-489
-184
-268
-513
-222
-178
-499
-276
102
-194
-343
78
1
-266
-42
-21
-301
-219
-16
-165
-239
31
10
-263
16
162
-269
-241
231
48
-187
191
127
-144
247
347
-123
60
324
35
106
474
358
71
320
436
12
24
296
8
-118
233
49
-254
120
208
-137
-97
130
-62
-211
149
123
-258
21
329
39
-3
171
-71
-136
311
299
-121
126
428
53
103
516
235
87
500
388
11
333
492
47
209
535
235
169
507
411
81
274
500
194
167
484
199
33
445
341
4
346
532
131
207
568
216
-95
327
415
34
264
407
26
240
651
363
204
588
494
155
485
801
446
474
859
569
395
706
589
166
271
353
-152
2
459
39
-234
288
318
-136
143
337
-34
-52
122
56
763
2528
3944
4540
4383
3305
1886
1080
1007
630
123
329
134
-392
-123
63
-279
-240
56
-201
-387
16
-75
-550
-197
100
-334
-214
189
-251
-469
80
32
-320
20
198
-184
-228
66
-93
-152
273
160
-228
81
351
-11
-6
318
110
19
381
264
-1
293
416
103
105
532
340
63
556
515
45
307
485
8
-7
339
26
-63
371
121
-222
168
305
-96
-38
258
-31
-206
209
202
-195
-2
250
-42
15
298
2
-98
236
181
-77
52
217
-24
15
327
11
-243
250
312
-140
31
235
-215
-466
-254
-614
-873
-437
-480
-862
-673
-480
-948
-939
-463
-673
-869
-530
-611
-976
-709
-555
-902
-761
-421
-631
-770
-409
-488
-836
-498
-206
-504
-491
-105
-449
-778
-371
-464
-944
-759
-589
-1031
-1036
-701
-983
-1180
-751
-824
-1218
-892
-724
-1037
-945
-820
-1161
-736
952
2533
3518
3751
2711
1163
379
408
-20
-657
-508
-562
-986
-820
-611
-886
-898
-597
-735
-937
-614
-571
-911
-665
-416
-777
-841
-549
-709
-839
-535
-616
-912
-629
-420
-804
-766
-325
-519
-764
-347
-322
-763
-494
-194
-567
-449
-18
-295
-499
-139
-152
-577
-311
34
-491
-517
28
-195
-381
-32
-142
-425
-221
-115
-338
-265
39
-242
-536
-135
-118
-445
-138
32
-367
-297
66
-301
-583
7
28
-428
-131
62
-302
-315
41
-141
-305
28
-62
-275
-9
118
-252
-254
136
-205
-420
68
45
-359
-234
-41
-346
-307
47
-194
-455
-84
-40
-436
-247
33
-259
-353
-66
-235
-474
-124
-94
-436
-231
-18
-271
-311
2
-43
-331
-107
72
-180
-9
265
-43
-99
235
28
-301
-103
-80
-466
-408
-194
-523
-552
-244
-501
-725
-393
-349
-681
-575
-367
-725
-873
-168
698
1942
3793
4297
3025
1960
1196
254
83
170
-324
-606
-419
-424
-752
-672
-550
-955
-811
-351
-658
-865
-525
-495
-821
-762
-468
-691
-784
-493
-729
-892
-471
-483
-887
-734
-463
-772
-890
-560
-807
-1022
-589
-624
-977
-821
-571
-877
-946
-517
-756
-1100
-672
-669
-1141
-837
-592
-1065
-1035
-606
-855
-1118
-834
-825
-1175
-1034
-879
-1361
-1326
-894
-1278
-1595
-1171
-1192
-1597
-1356
-1111
-1495
-1546
-1170
-1423
-1679
-1331
-1344
-1617
-1434
-1320
-1667
-1703
-1372
-1510
-1711
-1397
-1369
-1718
-1483
-1258
-1629
-1621
-1277
-1424
-1714
-1540
-1404
-1630
-1531
-1248
-1576
-1670
-1230
-1480
-1789
-1423
-1399
-1687
-1501
-1308
-1672
-1737
-1361
-1471
-1688
-1409
-1374
-1698
-1430
-1060
-1342
-1472
-1079
-1193
-1494
-1103
-927
-1339
-1169
-681
-1040
-1232
-863
-1136
-1448
-1163
-1212
-1564
-1441
-1207
-1498
-1657
-1270
-1331
-1631
-1289
-1190
-1595
-1429
-1240
-1643
-1088
504
1720
2764
3350
2471
968
187
-148
-686
-923
-839
-1215
-1570
-1249
-1135
-1592
-1468
-1161
-1483
-1517
-1170
-1278
-1565
-1221
-1008
-1355
-1115
-738
-1141
-1325
-887
-1057
-1498
-1127
-932
-1316
-1182
-846
-1162
-1324
-858
-985
-1229
-782
-773
-1127
-951
-649
-852
-929
-586
-695
-934
-692
-535
-824
-979
-498
-533
-821
-405
-539
-880
-514
-440
-832
-681
-507
-938
-885
-451
-588
-800
-459
-382
-990
-823
-280
-563
-733
-426
-456
-658
-287
-218
-683
-435
-96
-450
-427
-9
-140
-438
-168
-5
-351
-218
93
-309
-388
107
-17
-318
-62
53
-179
-41
190
-125
-250
153
45
-278
68
117
-272
-79
85
-200
-100
218
90
-60
195
171
-197
65
451
144
35
371
258
9
314
629
236
109
693
515
249
613
340
-50
280
236
-176
33
240
-107
-202
183
87
-213
89
194
-106
-68
-8
-23
902
2658
3964
4559
4392
3286
1882
1233
1211
682
275
454
153
-225
61
271
-136
-154
246
-89
-132
303
100
-82
298
301
-108
124
472
22
-133
463
321
-46
400
528
135
329
576
206
191
590
470
222
509
601
276
367
489
-11
-92
392
159
-282
65
339
57
82
344
57
-88
339
179
-185
200
302
16
262
524
209
182
504
321
143
382
519
247
336
700
417
280
666
553
296
643
776
352
472
868
582
423
760
736
240
285
493
105
51
224
34
-55
242
147
-243
103
302
-149
-116
188
-88
-212
206
98
-260
48
207
-243
-210
185
-40
-205
108
31
-211
66
171
-197
-119
274
49
-78
342
213
-151
190
443
115
267
676
398
338
616
304
3
272
275
-169
-69
268
2
-95
213
57
-237
-25
124
-187
-83
130
-414
-194
1157
2268
3457
4694
4281
2619
1688
1277
706
358
316
-40
-442
-192
-79
-503
-410
-117
-472
-582
-125
-143
-511
-279
-109
-466
-384
-45
-315
-433
-18
-38
-404
-198
-1
-423
-317
80
-262
-334
146
67
-227
29
177
-150
-71
305
41
-129
310
287
-137
107
382
-50
49
441
123
-15
419
407
-7
207
391
8
71
361
78
-60
209
149
-103
121
246
-131
-41
321
26
-186
266
244
-67
299
481
90
228
572
205
120
589
481
216
574
687
320
407
710
454
324
749
683
303
616
770
319
396
779
539
392
775
674
310
567
747
338
419
759
515
392
691
740
463
746
958
507
605
986
719
646
1108
1011
679
980
1099
631
589
938
640
374
735
579
153
473
617
200
267
587
342
155
503
494
57
86
423
939
2367
4154
4793
4313
3511
2318
1166
1064
1045
313
154
404
26
-186
165
93
-206
79
185
-258
-166
269
7
-191
201
126
-250
51
309
-146
-116
362
55
-77
425
288
-100
191
431
135
170
512
268
9
488
512
75
327
493
198
333
630
320
211
627
572
209
450
699
282
369
739
256
98
588
527
165
380
544
76
137
539
201
-12
388
373
106
219
418
257
167
521
286
-25
413
480
168
419
599
327
440
693
465
307
732
796
429
748
953
533
569
875
664
468
774
746
382
672
873
331
484
997
600
430
845
719
452
754
730
324
529
858
506
277
817
957
555
753
910
563
668
1056
891
700
1099
1103
621
871
1047
545
600
923
559
239
513
539
172
378
588
174
214
568
299
178
450
112
-70
1033
2418
3537
4772
4893
3548
2341
1776
1207
682
621
578
69
-32
363
108
-181
158
121
-177
127
235
-115
-16
254
-31
-181
132
145
-105
68
285
-42
-20
320
94
-59
276
290
-46
116
466
152
94
492
266
87
436
427
147
376
482
154
268
581
435
251
497
525
242
452
671
339
283
589
383
141
404
415
57
244
513
94
78
391
170
72
369
305
0
170
353
22
80
462
162
-21
361
337
50
225
402
147
165
433
230
6
276
377
64
216
514
142
18
398
227
-29
334
385
-18
160
408
31
34
445
195
-85
290
261
-126
157
442
57
-88
324
307
88
483
394
-74
306
570
283
306
597
469
331
624
553
190
384
484
48
-11
243
24
-227
114
138
-257
-70
198
-142
-231
254
11
-562
-47
971
1935
3523
4863
4221
2861
2154
1160
557
789
412
-189
-106
-24
-338
-302
-37
-317
-521
-99
-90
-459
-263
-8
-285
-378
-38
-219
-490
-81
7
-387
-236
52
-242
-276
137
-111
-391
69
104
-234
-34
152
-127
-89
266
89
-101
207
262
-95
85
435
0
-44
371
170
32
332
338
4
172
421
62
9
306
78
-155
163
151
-272
-9
254
-239
-233
200
-14
-176
189
111
-303
-43
201
-195
-89
314
20
-247
91
212
-120
60
305
-56
-53
277
83
-108
105
81
-166
74
248
-93
-41
272
22
-175
176
141
-169
4
154
-121
-98
196
1
-116
187
147
-205
48
239
-229
-126
306
13
-135
346
271
-110
139
376
113
165
516
289
127
458
301
-145
209
417
-208
-212
181
-167
-396
11
-18
-385
-147
52
-342
-376
16
-349
-712
85
1133
2239
3922
4746
3537
2237
1678
837
343
407
90
-411
-278
-102
-471
-539
-173
-345
-644
-238
-211
-643
-363
-100
-527
-572
-168
-317
-541
-219
-166
-532
-270
57
-354
-489
-143
-224
-389
-20
58
-359
-233
97
-173
-314
89
29
-240
123
160
-196
21
185
-130
-86
203
-4
-237
133
279
-67
15
212
-358
-657
-190
-321
-579
-164
-179
-630
-474
-386
-823
-860
-501
-550
-753
-380
-288
-650
-407
-135
-436
-427
-106
-279
-459
-173
-134
-398
-157
103
-243
-252
86
-150
-320
44
29
-315
-135
94
-222
-252
41
-213
-374
59
72
-339
-154
170
-207
-410
-19
-106
-378
-31
40
-403
-173
260
-143
-209
328
89
-223
132
76
-324
-207
26
-277
-410
-219
-448
-691
-543
-576
-918
-859
-643
-854
-926
-700
-907
-1216
-926
-849
-1343
-1205
-1016
-1392
-760
875
2247
3192
3476
2475
983
213
45
-365
-740
-638
-917
-1249
-916
-918
-1273
-1090
-928
-1244
-1285
-932
-1037
-1274
-961
-910
-1248
-1054
-733
-1048
-1149
-715
-882
-1185
-769
-713
-1107
-848
-601
-917
-919
-593
-672
-929
-681
-497
-833
-685
-383
-743
-731
-287
-436
-713
-382
-307
-715
-482
-235
-619
-616
-228
-383
-652
-326
-333
-782
-576
-295
-713
-820
-389
-555
-825
-481
-544
-791
-594
-583
-817
-789
-427
-582
-897
-550
-386
-746
-701
-324
-558
-668
-298
-452
-605
-230
-235
-514
-297
-77
-324
-365
-85
-197
-429
-130
-27
-359
-243
-62
-315
-372
-12
-106
-437
3
133
-348
-170
141
-263
-433
63
-88
-347
87
135
-149
-47
240
27
-40
448
265
-21
386
457
51
134
417
10
-206
105
-106
-403
-44
-41
-474
-215
22
-352
-370
-68
-210
-386
-282
-295
22
1381
3144
4134
4110
3432
2132
858
705
644
-64
-267
-89
-374
-565
-331
-480
-681
-328
-334
-746
-417
-128
-631
-658
-200
-384
-643
-295
-216
-568
-454
-167
-455
-531
-105
-243
-511
-118
-48
-526
-394
-15
-238
-294
22
-125
-319
29
40
-342
-68
274
-28
-144
218
82
-223
132
177
-163
40
309
-25
-190
136
49
-258
-48
19
-335
-217
43
-268
-400
-43
-96
-386
-132
-61
-394
-233
72
-302
-460
-5
-144
-352
57
-47
-472
-176
61
-277
-260
62
-78
-290
-4
35
-346
-114
231
-174
-240
121
-136
-308
61
98
-275
-131
72
-310
-240
42
-186
-299
36
43
-352
-140
96
-260
-250
142
10
-247
106
160
-243
-4
312
-4
-62
449
424
-84
140
341
-140
-34
249
-243
-484
-155
-211
-498
-265
-143
-537
-407
-29
-351
-375
-110
-540
-562
600
1970
3158
4328
4229
2699
1519
1049
609
156
66
-117
-633
-426
-103
-524
-609
-330
-525
-740
-325
-171
-608
-519
-220
-505
-625
-289
-370
-605
-312
-185
-548
-503
-168
-454
-492
-23
-231
-512
-137
-2
-366
-234
42
-313
-373
94
-7
-316
17
63
-332
-42
269
-186
-204
220
68
-143
140
210
-191
-90
185
-148
-284
-66
-178
-313
-46
-60
-426
-272
-19
-315
-376
-29
-181
-433
-206
-239
-500
-316
-57
-362
-470
-122
-270
-441
-168
-153
-452
-304
46
-241
-369
-30
-189
-426
-81
-21
-453
-275
26
-393
-406
123
-84
-462
-174
-44
-368
-287
47
-236
-388
19
-139
-498
-173
-30
-375
-263
-14
-336
-374
123
-17
-328
31
-19
-510
-290
3
-434
-545
-89
-294
-697
-430
-546
-1083
-1060
-900
-1197
-1436
-1152
-1156
-1590
-1277
-987
-1484
-1435
-1098
-1425
-1475
-1128
-1575
-1782
-677
561
1745
3196
3351
1734
550
137
-524
-936
-889
-1119
-1522
-1461
-1460
-1651
-1555
-1238
-1371
-1689
-1384
-1320
-1655
-1453
-1152
-1497
-1586
-1166
-1394
-1561
-1111
-1122
-1429
-1069
-734
-1246
-1485
-1110
-1180
-1451
-1115
-889
-1276
-1142
-772
-1132
-1147
-693
-851
-1169
-827
-676
-1062
-905
-629
-911
-928
-556
-748
-979
-549
-541
-935
-714
-453
-833
-969
-606
-752
-1028
-757
-707
-985
-826
-593
-887
-990
-588
-668
-966
-635
-578
-975
-801
-481
-844
-865
-360
-634
-889
-499
-502
-831
-649
-327
-614
-697
-281
-400
-678
-404
-315
-687
-528
-167
-548
-681
-226
-348
-691
-368
-275
-668
-497
-241
-663
-767
-276
-490
-874
-430
-309
-734
-548
-195
-494
-528
-135
-235
-502
-208
-65
-368
-143
223
-56
-80
346
141
-277
-116
-53
-423
-408
-163
-489
-599
-243
-406
-588
-273
-268
-639
-412
-24
-477
-833
-205
580
1638
3544
4688
3849
2615
1763
594
235
597
96
-386
-90
-124
-519
-339
-108
-428
-484
-121
-217
-456
-210
-208
-504
-242
101
-276
-406
15
-73
-326
21
121
-241
-61
221
-121
-207
173
174
-15
252
394
-25
108
558
170
-5
519
422
109
394
471
170
386
690
363
259
603
551
273
529
633
162
255
571
204
29
428
314
-17
329
390
-5
137
379
54
-30
325
244
66
303
266
-10
231
442
112
16
408
403
117
340
407
43
272
525
166
125
493
429
62
374
619
221
317
602
350
343
721
542
235
660
725
258
516
757
378
390
795
652
294
599
670
348
608
949
645
524
977
842
547
967
1045
645
899
1158
710
636
1000
877
486
618
674
188
290
658
364
283
605
234
-153
201
210
-106
-17
83
276
1360
3079
4392
4642
4098
3135
1778
1118
1205
693
347
513
159
-85
230
218
-187
-42
320
-25
-166
262
91
-176
183
247
-77
54
334
24
-58
405
234
-136
221
378
-78
90
488
100
22
433
304
86
412
454
69
295
656
307
170
629
536
205
573
576
170
491
696
285
377
711
430
100
398
573
123
223
524
109
9
393
256
-8
274
307
-50
111
361
46
11
336
147
-112
205
255
-167
60
396
65
26
416
257
-35
251
288
-15
151
367
77
36
344
122
-50
327
247
-156
44
307
30
0
303
154
-118
147
230
-211
32
360
-55
-74
312
119
-209
120
180
-175
103
381
69
20
377
200
-105
358
562
125
266
666
319
97
436
275
-91
124
137
-263
-165
89
-192
-296
3
-139
-367
-55
27
-272
-235
-193
-239
660
2443
3793
4348
4113
2892
1469
878
852
368
-5
139
-184
-554
-221
-139
-553
-446
-183
-433
-489
-184
-351
-602
-186
-73
-515
-363
-47
-378
-484
-93
-201
-492
-186
-53
-432
-297
69
-320
-388
130
-40
-348
52
172
-303
-124
324
4
-131
278
117
-183
188
224
-149
104
412
131
49
386
237
-131
105
223
-161
-119
183
-128
-274
109
-116
-415
-14
48
-326
-179
113
-163
-316
-34
-195
-349
26
22
-321
-169
93
-257
-291
128
-59
-327
2
37
-334
-125
82
-242
-337
-45
-126
-320
-141
-291
-605
-423
-315
-754
-804
-417
-723
-1086
-792
-902
-1276
-1027
-817
-1123
-1161
-883
-1089
-1260
-920
-901
-1319
-1109
-766
-1106
-1074
-653
-874
-1169
-787
-751
-1091
-715
-484
-872
-761
-473
-793
-1016
-699
-734
-1108
-997
-872
-1175
-1236
-887
-1035
-1354
-1015
-891
-1240
-1087
-865
-1130
-1340
-1129
-480
646
2499
3862
3301
2132
1322
182
-344
-111
-564
-1082
-883
-900
-1312
-1197
-945
-1280
-1290
-906
-1109
-1314
-996
-903
-1194
-1013
-759
-1168
-1178
-737
-887
-1190
-855
-631
-1019
-947
-636
-944
-972
-574
-704
-979
-616
-438
-819
-669
-358
-663
-718
-322
-428
-749
-332
-179
-709
-487
-56
-402
-572
-177
-220
-497
-232
-193
-585
-509
-156
-501
-719
-280
-463
-770
-436
-325
-626
-541
-231
-556
-742
-332
-414
-701
-433
-267
-532
-410
-86
-350
-524
-145
-184
-456
-103
45
-344
-256
68
-213
-306
124
-41
-335
41
33
-358
-157
94
-180
-243
20
-157
-333
43
88
-342
-195
57
-237
-237
87
-61
-266
-54
-35
-208
-68
86
-195
-246
195
66
-306
156
365
-52
122
428
168
182
610
517
241
459
526
125
195
434
12
-38
310
30
-289
7
226
-116
-64
283
-27
-131
248
-42
-516
145
1249
2201
3824
4966
3975
2612
2073
1162
527
696
465
-86
-9
162
-234
-283
116
-45
-360
-27
90
-327
-182
144
-200
-296
117
-12
-275
4
78
-197
-12
285
-55
-145
249
102
-208
142
270
-129
21
313
10
6
389
213
-11
410
410
-69
177
482
157
109
472
369
84
408
555
91
227
542
154
64
391
153
-117
198
130
-182
89
155
-217
-71
298
49
-238
73
208
-147
-50
255
-12
-92
311
228
-126
219
547
171
214
528
232
172
612
540
208
512
612
211
301
581
327
233
599
504
250
542
579
197
376
626
216
152
598
436
125
464
439
91
393
675
285
129
542
452
159
500
656
318
405
600
377
417
753
643
446
819
943
442
423
799
489
235
529
255
-115
336
333
-215
173
466
-55
19
408
102
-85
138
-35
112
1499
3203
4270
4628
4127
2823
1494
1119
1118
548
248
246
-173
-262
94
-111
-427
-105
-21
-412
-186
67
-302
-277
14
-77
-276
-61
93
-316
-223
176
-205
-370
88
-13
-281
17
107
-221
-63
249
-100
-113
328
135
-106
207
297
-2
134
455
172
59
339
171
76
540
576
149
341
616
275
80
345
215
-142
143
272
-116
-103
185
64
-82
176
81
-234
67
192
-265
-176
283
-78
-338
107
-11
-329
13
113
-200
-92
165
-79
-192
183
20
-219
172
133
-314
-47
260
-107
-114
197
-28
-305
63
236
-188
-63
240
-203
-360
88
28
-197
109
99
-296
-124
133
-249
-324
151
-15
-318
117
191
-156
120
331
-22
-43
290
272
18
10
113
-211
-416
-311
-732
-826
-474
-928
-1190
-747
-788
-1239
-1150
-878
-1115
-1228
-968
-1009
-1293
-1104
-1132
-1598
-986
458
1683
3056
3788
2664
1132
484
8
-579
-715
-724
-1164
-1287
-1022
-1344
-1596
-1116
-1061
-1536
-1352
-1010
-1309
-1293
-967
-1200
-1427
-1132
-1023
-1324
-1189
-852
-1152
-1336
-938
-971
-1286
-938
-781
-1190
-1031
-716
-1080
-1189
-729
-767
-1070
-826
-639
-932
-803
-541
-873
-834
-400
-621
-955
-526
-331
-785
-636
-329
-743
-754
-378
-653
-858
-548
-580
-895
-616
-292
-604
-686
-386
-518
-829
-444
-297
-837
-678
-318
-666
-809
-477
-504
-717
-412
-263
-663
-520
-104
-350
-483
-117
-269
-601
-253
-187
-544
-321
-53
-438
-586
-160
-262
-640
-346
-172
-522
-436
-162
-433
-499
-195
-352
-617
-336
-189
-532
-472
-166
-453
-571
-120
-214
-509
-126
-16
-417
-300
28
-228
-298
200
36
-225
260
250
-242
-114
161
-258
-410
-100
-353
-515
-266
-279
-575
-526
-245
-440
-517
-227
-372
-686
-618
-496
-166
1153
2909
3893
4043
3339
1950
818
643
519
-111
-201
-45
-372
-531
-249
-363
-648
-251
-126
-647
-513
-112
-443
-484
-31
-201
-397
-39
-2
-329
-145
96
-277
-427
-82
-172
-419
-36
54
-380
-179
161
-134
-314
-9
-84
-356
42
241
-137
-12
278
16
26
373
248
1
318
482
90
176
484
145
57
392
185
-59
177
128
-204
-50
214
-130
-276
152
6
-339
-24
13
-307
-75
132
-173
-199
136
6
-300
47
195
-186
-92
211
-42
-205
181
160
-116
187
305
-135
36
422
46
-111
349
243
-129
191
261
-216
-86
363
25
-205
207
146
-121
178
295
-102
-18
341
63
-55
212
-6
-78
346
389
75
190
387
171
248
586
423
284
613
586
126
203
440
47
-70
322
117
-244
83
123
-254
-127
146
-92
-240
117
24
-370
-242
132
829
2334
4077
4598
3853
2969
1746
623
767
740
-12
-45
97
-375
-425
18
-161
-516
-195
-87
-446
-230
24
-344
-423
-32
-151
-401
-111
-45
-374
-202
109
-312
-433
-29
-170
-403
-42
29
-410
-164
162
-216
-220
167
84
-138
156
254
-147
-7
291
30
-34
263
187
-84
185
254
-89
186
387
39
8
255
3
-265
62
80
-210
-60
92
-212
-332
76
-86
-480
-25
73
-395
-184
70
-303
-260
55
-145
-385
-108
2
-343
-123
154
-270
-333
89
-66
-300
58
127
-293
-162
155
-73
-100
274
148
-158
138
252
-67
71
316
-35
-41
405
176
-126
232
291
-107
100
394
-22
-47
441
292
-20
354
533
201
241
512
402
354
694
590
328
597
554
241
471
584
163
43
365
177
-156
249
326
-165
-44
287
-5
-127
297
124
-437
-69
748
1569
3173
4696
4521
3398
2652
1537
619
877
616
-129
-56
125
-216
-247
13
-273
-468
-94
-32
-386
-210
90
-324
-483
-49
-138
-405
-105
10
-410
-298
146
-182
-307
113
-105
-407
30
113
-320
-158
242
-112
-289
256
188
-128
180
323
-55
68
459
138
64
293
-22
-283
-116
-87
-386
-297
12
-217
-308
2
-116
-329
-16
-83
-489
-230
-194
-723
-713
-425
-596
-707
-294
-173
-548
-318
-27
-416
-361
52
-199
-439
-26
70
-322
-133
109
-217
-340
-210
-385
-718
-552
-389
-730
-718
-429
-659
-795
-450
-595
-902
-567
-530
-958
-849
-511
-709
-840
-552
-678
-906
-606
-554
-886
-736
-480
-841
-860
-415
-573
-785
-489
-512
-842
-569
-162
-490
-612
-158
-292
-701
-482
-360
-717
-650
-541
-925
-990
-668
-745
-1051
-761
-627
-1008
-861
-531
-793
-1073
-899
-801
-247
1476
3035
3627
3444
2494
1109
179
231
-115
-837
-667
-675
-1189
-1043
-689
-1099
-1272
-832
-930
-1238
-901
-770
-1264
-1047
-527
-935
-1127
-701
-868
-1113
-685
-641
-1024
-794
-540
-861
-893
-489
-633
-869
-504
-416
-680
-578
-331
-538
-651
-253
-302
-595
-266
-186
-576
-410
-42
-319
-508
-101
-96
-319
-62
-3
-372
-281
-5
-426
-583
-116
-249
-619
-332
-312
-705
-430
-145
-474
-513
-169
-266
-543
-306
-246
-587
-432
-106
-387
-523
-227
-334
-532
-237
-111
-445
-353
-53
-351
-500
-100
-199
-488
-139
-75
-495
-360
-18
-325
-417
-71
-379
-612
-126
-48
-470
-374
-86
-365
-430
-117
-314
-505
-117
-17
-380
-294
13
-207
-290
59
-79
-347
76
267
-125
-2
344
-48
-157
296
68
-335
-115
-53
-393
-272
14
-352
-556
-116
-188
-579
-243
-147
-585
-319
-222
-619
251
1874
3075
4075
4257
3003
1489
937
804
239
-120
35
-251
-574
-198
-213
-723
-471
-89
-462
-538
-30
-139
-496
-116
79
-296
-76
230
-241
-301
211
70
-278
-19
45
-377
-259
62
-205
-160
186
20
-206
147
312
-152
-16
347
5
-99
364
271
-152
224
400
75
344
642
258
141
586
454
74
425
451
-13
231
459
41
-13
398
187
-140
208
342
-67
-67
224
43
44
376
213
-57
196
343
60
134
412
102
80
504
327
22
315
573
169
169
586
242
123
532
351
68
330
451
122
210
479
91
89
596
347
9
365
488
76
125
510
167
-62
391
280
-35
289
396
4
39
318
140
204
607
404
99
396
482
184
336
597
385
359
648
505
213
415
501
107
128
305
-52
-171
182
85
-224
7
112
-162
-61
156
-119
-337
-109
229
936
2536
4225
4524
3702
2854
1661
721
842
580
-42
56
48
-367
-234
26
-361
-475
-115
-170
-383
-137
-95
-462
-291
-42
-356
-391
50
-78
-387
-45
-25
-382
-136
100
-270
-224
111
-175
-326
41
134
-158
-34
241
-105
-186
201
147
-54
245
354
-120
39
393
-4
-22
399
261
19
304
398
-12
55
350
23
-154
190
54
-247
72
144
-237
-85
194
-198
-282
180
46
-228
19
39
-314
-132
187
-162
-219
142
-14
-312
59
236
-186
-43
248
-50
-151
311
230
-161
242
476
52
51
415
166
59
544
320
-76
365
347
-49
312
527
104
94
457
198
-48
313
389
48
177
422
110
84
554
453
145
475
571
201
357
737
514
306
720
780
338
606
752
171
255
544
52
-127
320
158
-178
147
196
-172
-47
252
-47
-107
175
-190
-116
1226
2669
3775
4656
4296
2749
1621
1239
837
350
257
115
-347
-229
41
-336
-418
-56
-220
-506
-173
-31
-444
-309
23
-314
-410
-31
-119
-362
-69
-47
-401
-166
28
-294
-214
174
11
-297
38
156
-247
-49
291
-20
-79
284
178
-23
280
362
71
208
424
140
74
468
363
55
435
588
132
195
473
135
-20
348
233
-167
114
280
-92
1
317
29
-171
183
93
-235
109
259
-167
-10
311
-64
-103
282
124
-174
98
258
-71
-115
-40
-325
-277
69
-272
-610
-219
-268
-770
-576
-358
-657
-705
-471
-539
-810
-609
-473
-821
-714
-431
-774
-908
-543
-641
-920
-645
-526
-877
-748
-468
-753
-709
-293
-500
-820
-537
-406
-783
-584
-121
-497
-564
-150
-426
-713
-440
-400
-691
-579
-426
-784
-865
-540
-738
-1041
-772
-704
-1090
-962
-557
-1002
-1300
-763
-223
796
2650
3906
3430
2375
1542
389
-171
82
-335
-961
-764
-721
-1150
-1027
-725
-987
-1117
-798
-876
-1131
-861
-743
-1040
-995
-801
-1025
-1041
-645
-818
-1076
-624
-597
-1022
-780
-483
-839
-931
-537
-621
-862
-552
-430
-736
-597
-322
-605
-673
-189
-384
-728
-213
-185
-630
-437
-136
-426
-568
-110
-136
-469
-214
-164
-634
-483
-106
-486
-624
-289
-541
-744
-296
-375
-808
-531
-303
-624
-686
-350
-531
-795
-308
-277
-693
-443
-200
-632
-656
-156
-342
-641
-264
-162
-551
-408
-87
-376
-559
-189
-231
-571
-229
-141
-656
-466
-49
-324
-471
-183
-280
-569
-267
-119
-515
-457
-186
-431
-537
-200
-283
-569
-253
-214
-582
-287
0
-338
-362
-43
-253
-514
-100
77
-240
26
333
-31
-217
97
4
-376
-98
-58
-523
-376
-182
-508
-514
-167
-331
-612
-290
-188
-542
-450
-369
-738
-211
1397
2749
3843
4502
3525
1958
1287
1027
499
105
233
-45
-466
-193
-71
-432
-308
-26
-408
-419
58
-154
-457
-9
70
-413
-270
47
-112
-226
60
43
-427
-191
69
-426
-342
61
-221
-325
-2
-164
-435
4
192
-283
-134
251
-95
-205
205
67
-228
182
296
-167
-93
242
91
22
315
196
-68
217
300
-100
1
251
-78
-184
210
105
-306
-3
173
-186
-12
219
-121
-166
202
59
-201
117
160
-162
-50
188
-25
-22
370
211
-84
176
282
-86
52
403
82
-56
230
56
-164
193
295
-73
3
260
49
-121
146
152
-105
162
298
-79
-14
307
30
-109
371
220
-245
159
340
-72
96
393
48
52
472
349
162
438
485
113
356
705
301
316
820
517
68
456
512
7
126
361
-67
-183
262
109
-269
14
133
-252
-128
224
-73
-327
-130
113
895
2608
4170
4431
3752
2816
1522
674
846
601
-28
39
78
-353
-364
-1
-255
-461
-45
-136
-469
-103
-34
-527
-339
106
-174
-355
-21
-115
-428
-188
-34
-284
-169
83
-195
-298
91
-54
-382
65
220
-218
-57
293
7
-66
273
82
-93
274
303
-58
127
435
44
-105
411
376
42
345
404
-16
39
311
29
-159
225
145
-277
-42
136
-316
-238
181
-88
-218
72
-64
-350
-122
47
-272
-179
149
-199
-331
31
-114
-253
66
64
-249
-175
146
-78
-218
228
36
-342
7
115
-285
-153
230
-128
-271
137
-67
-365
-70
67
-197
-205
107
-165
-354
75
-130
-399
-9
64
-289
-170
116
-274
-396
98
53
-171
69
150
-108
-33
223
-45
-94
352
238
13
342
353
-23
73
230
-120
-302
-50
-171
-460
-113
-104
-560
-286
-33
-387
-352
-44
-236
-596
-388
255
1137
2777
4398
4395
3329
2488
1359
449
628
489
-228
-258
35
-376
-636
-204
-329
-752
-369
-175
-567
-446
-170
-472
-592
-215
-298
-577
-309
-177
-493
-415
-92
-360
-499
-166
-326
-571
-226
-172
-578
-390
-71
-373
-433
-75
-205
-463
-28
33
-484
-188
109
-351
-308
96
-35
-283
-36
78
-315
-192
156
-279
-359
91
-165
-482
-226
-213
-514
-348
-136
-465
-603
-307
-455
-678
-488
-511
-718
-500
-266
-584
-649
-276
-333
-651
-425
-324
-655
-460
-198
-557
-600
-198
-384
-603
-233
-223
-564
-399
-120
-411
-573
-212
-281
-620
-383
-275
-637
-530
-241
-494
-641
-264
-310
-693
-446
-320
-654
-546
-241
-540
-755
-302
-349
-670
-274
-184
-619
-511
-164
-307
-373
12
-64
-500
-259
-97
-540
-479
-231
-643
-858
-562
-595
-771
-515
-500
-851
-759
-586
-816
-853
-601
-950
-1404
-613
553
1501
3115
4017
2777
1386
758
-139
-589
-375
-702
-1373
-1323
-1069
-1440
-1644
-1261
-1355
-1772
-1496
-1334
-1777
-1692
-1383
-1788
-1844
-1412
-1611
-1885
-1599
-1554
-1969
-1896
-1606
-1875
-1957
-1664
-1753
-1977
-1834
-1788
-2011
-1876
-1582
-1852
-2023
-1624
-1728
-2111
-1708
-1531
-1978
-1835
-1573
-1832
-1916
-1646
-1675
-1937
-1653
-1528
-1918
-1849
-1613
-1908
-2043
-1723
-1877
-2182
-1964
-1915
-2191
-2033
-1769
-2125
-2316
-1900
-1908
-2273
-2093
-1932
-2202
-2076
-1840
-2112
-2196
-1840
-1933
-2293
-1966
-1781
-2176
-2034
-1732
-1996
-2154
-1874
-1907
-2196
-1849
-1701
-2145
-2030
-1751
-2041
-2174
-1797
-1920
-2233
-1896
-1858
-2213
-2093
-1815
-2102
-2214
-1792
-1969
-2300
-1944
-1820
-2265
-2232
-1859
-2089
-2190
-1814
-1957
-2179
-1739
-1686
-2168
-1948
-1560
-1864
-1962
-1522
-1585
-2002
-1782
-1649
-2149
-2040
-1730
-2200
-2310
-1907
-2092
-2408
-2087
-1974
-2321
-2252
-1915
-2158
-2283
-1937
-2296
-2528
-1444
-40
1120
2430
2625
1008
-249
-561
-1193
-1733
-1689
-1804
-2236
-2153
-1941
-2285
-2341
-1967
-2113
-2468
-2145
-1963
-2306
-2149
-1803
-2078
-2241
-1861
-1944
-2267
-1888
-1710
-2117
-1924
-1545
-1862
-1950
-1531
-1605
-1913
-1549
-1369
-1771
-1621
-1291
-1537
-1605
-1150
-1200
-1573
-1218
-1023
-1391
-1283
-964
-1179
-1315
-1003
-999
-1156
-855
-748
-1096
-953
-611
-936
-1084
-689
-769
-1075
-827
-714
-1070
-934
-656
-985
-1001
-523
-648
-993
-642
-522
-904
-710
-423
-691
-791
-414
-329
-690
-478
-220
-563
-521
-153
-252
-333
62
-33
-406
-49
231
-127
-12
443
224
138
596
564
272
649
809
460
715
1040
741
703
1148
992
678
1137
1279
938
1029
1216
1000
1076
1515
1373
1174
1564
1624
1262
1501
1874
1604
1556
1970
1857
1539
1776
1851
1431
1488
1723
1375
1242
1559
1474
1146
1431
1590
1180
1261
1505
1225
1101
1231
1174
1604
3029
4551
5453
5560
4714
3380
2386
2099
1833
1429
1381
1309
967
1028
1331
1074
829
1091
1058
811
1126
1278
903
1052
1430
1147
1039
1497
1398
948
1235
1431
1072
1260
1613
1232
1117
1633
1441
1131
1566
1641
1202
1339
1726
1423
1369
1816
1691
1380
1670
1842
1512
1591
1886
1571
1467
1874
1715
1473
1882
1980
1481
1528
1861
1509
1326
1692
1473
1087
1474
1623
1300
1406
1664
1358
1135
1502
1432
1167
1532
1587
1098
1295
1615
1240
1174
1551
1465
1143
1425
1554
1180
1318
1625
1349
1217
1588
1412
1061
1447
1616
1201
1256
1671
1407
1002
1329
1397
1046
1311
1493
1100
1108
1387
1224
1150
1388
1288
1033
1265
1366
1011
1072
1358
1074
948
1318
1171
888
1143
1218
931
1173
1499
1141
993
1364
1317
1031
1302
1489
1188
1280
1632
1277
1029
1454
1366
938
1115
1131
644
778
1093
764
621
1000
998
648
868
980
674
663
713
799
1675
3423
4771
5299
5150
3992
2580
1886
1815
1361
829
949
849
495
606
702
433
470
705
422
246
687
599
208
567
719
237
411
804
376
254
660
543
259
533
691
355
419
656
412
350
716
660
312
596
834
405
436
880
678
475
817
796
419
674
967
551
531
833
537
514
959
787
378
605
763
388
357
661
425
174
515
504
64
280
531
89
53
457
239
-27
353
369
30
269
427
139
236
508
129
-119
268
211
-71
135
233
-1
86
321
21
-107
268
162
-217
-46
80
-233
-223
29
-211
-363
-23
-147
-459
-85
57
-380
-298
13
-304
-421
-33
-176
-488
-186
2
-383
-374
-6
-213
-283
90
-63
-345
-69
121
-134
-29
276
21
-32
295
125
-252
-38
150
-331
-424
-120
-396
-587
-199
-287
-727
-395
-189
-612
-476
-138
-576
-874
-424
123
1058
2878
4252
3882
2782
1927
858
245
420
-23
-661
-484
-405
-750
-687
-436
-727
-920
-560
-616
-914
-587
-407
-820
-777
-390
-652
-965
-540
-486
-872
-533
-365
-745
-682
-410
-650
-770
-401
-458
-737
-416
-252
-639
-549
-224
-462
-584
-275
-387
-594
-264
-188
-558
-472
-150
-361
-539
-227
-260
-565
-226
-116
-592
-523
-244
-517
-698
-426
-491
-804
-588
-427
-833
-782
-404
-718
-904
-500
-572
-894
-610
-508
-919
-786
-511
-836
-887
-502
-643
-872
-572
-545
-894
-776
-522
-794
-832
-483
-602
-939
-696
-539
-968
-892
-526
-821
-982
-600
-690
-1092
-813
-640
-1092
-957
-589
-975
-1055
-695
-783
-1032
-967
-841
-1129
-1084
-647
-922
-1077
-563
-672
-1051
-764
-577
-854
-728
-444
-667
-675
-388
-584
-949
-811
-783
-1268
-1267
-924
-1263
-1477
-1081
-1122
-1441
-1174
-1021
-1424
-1315
-924
-1296
-1649
-1120
-306
727
2496
3544
2816
1700
824
-211
-673
-494
-895
-1408
-1177
-1143
-1584
-1550
-1272
-1476
-1592
-1266
-1358
-1688
-1339
-1127
-1582
-1517
-1170
-1413
-1515
-1271
-1282
-1465
-1272
-1128
-1517
-1388
-1028
-1317
-1415
-1072
-1130
-1389
-1096
-899
-1225
-1131
-790
-1063
-1173
-795
-888
-1185
-899
-755
-1127
-1099
-780
-969
-1162
-774
-800
-1179
-834
-676
-1139
-1084
-764
-1081
-1279
-871
-930
-1352
-1144
-924
-1251
-1247
-921
-1187
-1368
-966
-967
-1265
-1070
-878
-1150
-1105
-802
-1129
-1251
-786
-864
-1168
-944
-729
-1020
-1031
-624
-788
-1013
-683
-697
-1017
-735
-550
-905
-913
-653
-775
-937
-645
-593
-922
-763
-576
-957
-881
-492
-839
-982
-568
-676
-947
-702
-581
-911
-801
-417
-657
-734
-334
-397
-709
-478
-223
-489
-444
-28
-196
-419
-164
-252
-632
-552
-356
-693
-787
-459
-673
-893
-582
-676
-1018
-624
-488
-991
-861
-516
-961
-1045
85
1234
2409
3942
3891
2246
1281
757
99
-208
-227
-487
-876
-724
-624
-1016
-982
-559
-852
-1054
-568
-678
-1100
-737
-439
-831
-824
-463
-678
-834
-449
-622
-1018
-554
-257
-698
-702
-255
-518
-751
-311
-336
-722
-464
-108
-420
-467
-143
-263
-279
-55
-173
-440
-234
53
-232
-275
28
-163
-299
85
110
-260
-139
28
-356
-301
87
-196
-446
-93
-83
-487
-241
0
-440
-425
-12
-222
-475
-102
-119
-588
-131
189
-369
-348
21
-138
-358
-61
-26
-378
-98
143
-213
-175
169
-28
-206
64
20
-256
-23
81
-236
-53
241
-38
-214
124
126
-277
-110
152
-233
-267
163
-48
-305
-7
9
-237
26
268
-145
-181
181
-103
-306
71
71
-218
110
386
-45
21
423
156
56
457
452
144
405
559
158
121
332
208
-90
44
184
-241
-143
190
-166
-163
211
-55
-330
71
164
-429
-394
466
1190
2537
4463
4795
3644
2788
1839
858
940
938
321
145
195
-163
-318
30
8
-389
-178
151
-234
-277
77
-142
-304
17
89
-242
-74
197
-153
-132
212
33
-225
18
74
-220
39
265
-143
-150
342
150
-120
366
367
-17
252
461
107
153
523
300
86
371
430
193
395
623
278
238
597
356
4
420
532
90
250
411
-26
-51
421
217
-81
352
357
-74
172
470
135
143
539
375
183
577
587
140
392
712
366
379
754
553
283
667
780
313
453
819
533
425
753
568
328
756
775
391
578
781
496
456
793
647
378
633
638
292
526
808
473
405
739
555
327
718
699
297
484
743
548
402
768
857
535
743
876
596
846
1136
542
352
745
321
-15
293
189
-94
39
8
-294
-194
-32
-221
-356
-95
-39
-405
-215
55
-486
-672
80
816
1828
3655
4661
3752
2646
1906
740
409
654
19
-520
-143
-92
-561
-338
-133
-629
-633
-90
-349
-702
-215
-116
-526
-376
-131
-497
-559
-104
-249
-515
-117
-73
-481
-263
79
-234
-413
-28
-82
-333
21
49
-292
-91
163
-30
-56
295
144
-217
127
281
-75
68
377
89
5
390
278
-25
286
368
-36
165
414
-20
-82
328
73
-196
120
106
-194
-41
206
-145
-246
254
166
-147
143
187
-239
-44
294
-120
-128
337
158
-91
223
262
-165
65
446
142
70
305
123
-62
257
322
-56
90
389
0
-59
368
78
-107
380
285
-99
187
375
54
96
387
150
-24
320
306
-7
201
464
209
173
494
278
115
602
696
282
436
800
421
277
607
354
36
270
287
-172
-105
289
-8
-171
247
88
-206
100
175
-120
-70
-15
-23
1091
2872
4098
4440
3849
2741
1417
883
1059
414
-79
218
-30
-373
-134
-112
-310
-164
15
-251
-318
70
-135
-478
-20
143
-273
-150
148
-249
-345
210
-3
-368
95
207
-183
-67
194
-53
-111
270
167
-90
237
354
30
176
428
111
60
503
319
27
450
488
38
191
547
250
161
616
376
-25
310
403
-7
123
409
29
-69
266
194
-95
141
321
-87
38
321
-76
-85
346
188
-130
136
302
-79
58
428
91
32
415
298
95
322
312
-24
161
471
86
-5
451
255
-58
245
278
-37
107
348
39
-66
314
182
-117
190
283
-14
78
311
45
-35
376
211
-37
357
513
199
199
458
298
229
603
545
254
616
780
310
447
742
255
81
408
102
-187
239
269
-169
-48
244
-13
-118
194
92
-163
10
-56
-165
947
2665
3831
4461
4141
2810
1480
1022
968
423
162
305
-61
-306
66
-1
-405
-49
91
-392
-234
133
-162
-330
47
15
-345
-100
114
-239
-169
173
-53
-193
135
66
-143
179
288
-38
68
322
45
8
412
288
-43
352
480
-26
188
582
301
222
506
368
118
448
597
238
355
703
389
131
494
444
16
249
475
120
55
302
16
-135
336
277
-13
242
324
-20
108
426
-38
-179
401
286
-55
259
281
-135
35
427
155
8
423
333
29
287
395
36
59
426
201
-26
306
177
-77
307
362
-29
51
364
102
-166
246
294
-71
149
293
-73
-43
277
58
-109
262
233
-88
150
264
-23
129
528
247
-42
398
356
55
418
599
308
385
660
364
187
536
345
-80
162
244
-147
-79
221
-175
-339
184
17
-301
43
146
-233
-410
-10
643
1793
3592
4627
4063
3145
2211
953
605
798
294
-214
-50
-32
-395
-237
-60
-401
-383
-62
-329
-493
-82
-180
-509
-141
140
-305
-309
127
-201
-380
29
-162
-482
-19
118
-371
-216
176
-168
-325
142
98
-294
9
302
-110
-58
241
-43
-94
262
164
-232
64
344
-87
-30
386
148
-36
298
178
-210
177
363
-182
-155
177
-83
-198
5
-102
-275
-93
85
-189
-249
108
-25
-120
279
101
-238
197
442
13
-30
314
133
-105
245
269
-43
282
491
141
205
500
186
13
361
292
39
277
410
45
2
392
320
71
294
291
-30
257
449
-12
201
561
113
38
359
247
11
178
471
159
76
470
263
139
575
534
222
527
640
299
408
796
686
395
502
312
-68
140
231
-129
-174
-6
-286
-517
-161
-239
-683
-346
-52
-250
-161
46
-270
-642
-426
-186
426
2072
3728
4122
3496
2586
1336
421
549
391
-396
-425
-267
-667
-751
-567
-737
-872
-570
-587
-982
-849
-547
-739
-752
-427
-648
-856
-463
-495
-876
-637
-433
-678
-686
-465
-527
-747
-464
-300
-659
-535
-236
-559
-617
-177
-343
-545
-220
-229
-447
-190
20
-393
-469
-35
-219
-467
-93
-57
-384
-163
79
-320
-445
-70
-202
-502
-167
-135
-617
-439
-153
-471
-501
-206
-449
-647
-266
-329
-635
-377
-192
-510
-525
-162
-375
-604
-238
-254
-624
-419
-226
-507
-453
-193
-421
-625
-251
-230
-641
-417
-175
-525
-536
-188
-380
-665
-355
-308
-704
-529
-344
-768
-708
-340
-648
-907
-481
-484
-1050
-769
-393
-818
-838
-401
-649
-941
-492
-528
-976
-682
-285
-582
-731
-284
-411
-805
-505
-528
-1009
-883
-771
-1251
-1371
-1044
-1258
-1591
-1278
-1207
-1650
-1528
-1229
-1686
-1760
-1443
-1884
-1800
-415
1047
2151
2888
2296
547
-535
-733
-1206
-1770
-1833
-1989
-2511
-2440
-2168
-2614
-2680
-2324
-2614
-2835
-2523
-2600
-2931
-2734
-2573
-2865
-2867
-2692
-2944
-3114
-2826
-2774
-3122
-3061
-2807
-3086
-3222
-2860
-2997
-3359
-3056
-2950
-3313
-3167
-2881
-3230
-3356
-3007
-3200
-3424
-3168
-3228
-3527
-3374
-3170
-3450
-3544
-3244
-3464
-3758
-3389
-3355
-3789
-3672
-3446
-3793
-3916
-3721
-3970
-4171
-3787
-3845
-4244
-3966
-3782
-4204
-4238
-3837
-4064
-4318
-3966
-3952
-4275
-4081
-3799
-4146
-4166
-3765
-3983
-4221
-3867
-3766
-4118
-3930
-3645
-4025
-3980
-3546
-3855
-4025
-3511
-3502
-3910
-3684
-3368
-3629
-3644
-3344
-3403
-3574
-3331
-3209
-3551
-3399
-2977
-3265
-3412
-2970
-3110
-3430
-2978
-2772
-3154
-2925
-2576
-2881
-2813
-2488
-2669
-2787
-2371
-2214
-2504
-2338
-2033
-2273
-2394
-2084
-2313
-2640
-2276
-2274
-2730
-2473
-2190
-2609
-2557
-2157
-2424
-2653
-2249
-2156
-2442
-2360
-2335
-2394
-1461
293
1674
2247
1960
859
-555
-1053
-895
-1494
-1942
-1687
-1879
-2219
-1942
-1866
-2163
-1945
-1748
-2054
-1983
-1613
-1755
-2018
-1708
-1584
-1927
-1723
-1380
-1645
-1708
-1378
-1544
-1728
-1335
-1262
-1619
-1431
-1062
-1377
-1453
-983
-1159
-1452
-986
-902
-1219
-947
-802
-1076
-1076
-760
-728
-987
-790
-657
-977
-779
-426
-738
-859
-460
-589
-866
-505
-474
-953
-783
-381
-771
-852
-369
-639
-877
-430
-468
-844
-562
-300
-615
-620
-249
-376
-598
-274
-223
-574
-389
-49
-301
-374
80
50
-356
-74
228
-40
83
490
279
110
535
550
202
463
744
464
549
893
592
440
923
887
607
979
1113
718
884
1232
937
808
1244
1235
944
1306
1456
1144
1359
1668
1376
1280
1672
1614
1402
1786
1951
1603
1629
1812
1445
1185
1505
1430
1017
1182
1275
833
869
1273
1026
807
1178
1056
645
1050
1308
760
573
1156
1924
3187
4989
5746
4977
4141
3277
2036
1880
2149
1310
922
1434
1208
836
1062
1069
705
847
1114
722
684
1204
1082
751
1093
1222
874
1100
1458
1061
976
1413
1305
1098
1365
1477
1177
1067
1258
1016
927
1417
1234
809
1196
1330
847
1002
1338
1065
985
1193
1011
700
991
1184
852
964
1199
839
748
1068
855
532
680
745
463
490
717
266
-59
221
11
-290
41
64
-477
-341
113
-238
-394
77
-109
-585
-169
42
-479
-421
-33
-413
-608
-55
-144
-594
-312
-215
-620
-520
-263
-443
-527
-268
-488
-890
-504
-333
-735
-621
-336
-680
-854
-519
-656
-918
-654
-624
-850
-704
-523
-778
-936
-539
-604
-1012
-688
-593
-1073
-878
-477
-814
-846
-365
-542
-855
-516
-465
-808
-543
-223
-499
-589
-243
-298
-570
-307
-278
-798
-801
-533
-858
-993
-670
-750
-990
-714
-526
-847
-841
-574
-769
-972
-792
-558
208
1852
3419
3863
3333
2442
1062
110
334
159
-509
-482
-435
-800
-788
-498
-646
-795
-501
-537
-842
-611
-407
-680
-626
-423
-660
-658
-339
-393
-628
-377
-232
-570
-447
-125
-366
-517
-253
-244
-410
-95
56
-329
-361
-232
-509
-649
-335
-414
-779
-525
-322
-722
-652
-192
-450
-687
-342
-374
-643
-324
-133
-529
-530
-311
-616
-596
-126
-308
-754
-504
-213
-548
-474
-94
-455
-627
-188
-258
-608
-306
-51
-415
-328
18
-320
-437
43
22
-281
-15
143
-219
-181
208
-25
-248
156
194
-132
58
266
13
96
348
-21
-64
443
318
-1
363
598
148
177
679
349
92
578
474
131
504
632
250
328
756
579
322
833
882
503
740
937
703
876
1194
921
917
1337
1165
753
1043
1207
824
887
1141
821
710
1040
949
786
1098
1256
959
1011
1342
1186
937
1251
1728
2559
4399
6053
6024
4985
4037
2908
2296
2554
2213
1530
1629
1828
1481
1486
1815
1575
1407
1767
1743
1468
1718
1937
1553
1582
2069
1803
1533
1938
1978
1606
1869
2096
1635
1792
2230
1881
1755
2161
2086
1794
2072
2273
1925
1974
2384
2109
1900
2274
2233
1994
2278
2494
2048
1953
2494
2373
2081
2456
2469
2166
2291
2442
2296
2184
2299
2159
2000
2336
2293
1860
2084
2278
1927
2013
2346
2069
1900
2298
2212
1894
2238
2339
1987
2072
2345
2128
1964
2305
2297
1972
2236
2393
1998
2275
2691
2245
2066
2484
2445
2115
2232
2325
2029
2022
2294
2104
1883
2244
2220
1803
2041
2223
1827
1854
2167
1827
1647
2218
2183
1713
2036
2207
1880
2007
2269
1998
1747
2213
2335
1902
2151
2494
2102
1994
2339
2034
1693
1959
1876
1584
1822
1910
1588
1657
1939
1674
1382
1756
1863
1513
1687
1727
1330
1953
3461
4709
5827
6147
4944
3469
2876
2680
2101
1776
2020
1591
1137
1628
1668
1225
1407
1658
1298
1241
1612
1408
1232
1643
1577
1157
1394
1606
1261
1324
1632
1344
1200
1522
1465
1151
1414
1665
1318
1323
1684
1545
1358
1622
1594
1284
1529
1795
1503
1476
1762
1524
1349
1672
1620
1369
1585
1739
1435
1454
1777
1537
1358
1644
1560
1208
1330
1524
1222
1229
1545
1251
1038
1406
1451
1084
1174
1404
1055
1105
1491
1220
987
1267
1321
1018
1257
1571
1134
1099
1527
1260
1041
1353
1280
1065
1306
1428
1101
1082
1435
1211
987
1381
1405
1020
1149
1393
1103
1021
1320
1198
996
1264
1315
993
1123
1432
1235
1185
1565
1468
1064
1412
1641
1317
1588
1884
1472
1459
1847
1486
1206
1595
1557
1140
1181
1341
967
902
1309
1111
801
1115
1228
808
968
1288
813
572
1119
1807
2850
4620
5603
4849
3829
2971
1866
1442
1526
1038
688
995
907
462
590
901
623
440
808
709
420
724
758
434
650
772
467
498
752
679
436
757
913
542
696
920
583
573
969
831
620
952
987
705
1042
1219
772
788
1153
1011
833
1181
1199
848
933
1076
889
951
1316
1109
784
1207
1228
698
910
1103
630
682
1112
865
560
887
912
450
660
1001
628
619
935
591
352
772
905
559
717
1117
738
537
961
803
531
944
1025
716
948
1083
838
920
1139
987
886
1170
1159
863
966
1101
892
892
1162
1014
821
1121
1133
766
933
1171
867
776
1042
971
809
1132
1233
840
1024
1391
1020
933
1341
1262
996
1248
1444
1216
1246
1389
1159
1094
1253
1008
671
871
947
579
787
983
504
499
951
796
543
943
808
114
527
1713
2614
3990
5417
4901
3580
2948
2068
1244
1182
1095
598
374
690
475
140
626
543
95
376
609
305
264
638
422
69
475
646
201
296
632
252
48
585
582
178
538
685
224
399
747
378
275
677
630
397
650
679
379
622
906
598
456
833
722
362
697
881
491
600
916
514
405
862
687
374
608
645
290
367
631
342
179
520
455
96
363
490
126
316
598
185
91
506
406
138
352
485
189
242
556
298
48
433
479
180
477
566
141
314
637
250
93
488
405
104
354
404
5
255
580
157
114
471
284
5
277
369
36
151
402
35
-28
417
240
-33
319
478
178
220
451
269
282
630
461
217
634
700
189
323
579
160
-45
223
93
-216
-2
59
-258
-77
239
-55
-239
112
81
-368
-312
262
1009
2445
4223
4593
3705
2854
1682
642
787
713
-111
-143
109
-322
-397
-113
-277
-459
-166
-54
-449
-339
-1
-400
-550
-94
-138
-463
-162
21
-378
-292
29
-254
-317
72
-86
-381
-77
50
-288
-235
76
-38
-107
166
130
-46
167
217
-154
-37
387
75
-37
392
140
-146
316
460
56
156
369
57
-57
224
123
-232
7
219
-173
-218
130
-58
-281
111
8
-393
-17
37
-327
-100
116
-217
-324
100
47
-316
-30
17
-354
-73
156
-94
-194
-9
50
-204
-23
158
-211
-100
135
-196
-277
106
14
-378
-102
94
-380
-277
194
-153
-314
54
-133
-452
-112
92
-300
-350
-26
-131
-251
97
123
-227
-4
226
-118
25
444
166
33
352
141
-241
18
112
-407
-367
-43
-377
-537
-216
-266
-607
-398
-153
-543
-557
-266
-746
-1211
-639
174
1110
2696
3169
1789
549
-243
-1319
-1848
-1845
-2368
-2988
-2849
-2796
-3362
-3478
-3111
-3404
-3662
-3249
-3409
-3828
-3628
-3536
-3870
-3848
-3571
-3894
-4033
-3559
-3818
-4268
-3850
-3668
-4106
-4071
-3701
-4076
-4273
-3719
-3765
-4125
-3852
-3698
-4022
-3951
-3618
-3854
-4044
-3634
-3672
-3983
-3637
-3583
-4010
-3877
-3543
-3747
-3878
-3552
-3595
-3901
-3619
-3473
-3849
-3800
-3553
-3844
-4040
-3669
-3750
-4135
-3786
-3582
-4037
-4036
-3824
-4288
-4482
-4006
-4012
-4281
-3850
-3612
-3952
-3831
-3496
-3737
-3963
-3562
-3463
-3760
-3489
-3289
-3649
-3613
-3285
-3496
-3651
-3232
-3239
-3601
-3339
-3135
-3445
-3327
-2976
-3271
-3443
-3049
-3042
-3340
-3135
-2933
-3229
-3140
-2840
-3115
-3226
-2831
-2892
-3270
-2879
-2534
-2902
-2801
-2511
-2761
-2806
-2407
-2336
-2587
-2327
-2058
-2395
-2465
-2183
-2451
-2671
-2335
-2452
-2808
-2506
-2360
-2751
-2692
-2366
-2553
-2679
-2346
-2398
-2679
-2380
-2344
-2819
-2278
-853
386
1669
2418
1446
-85
-697
-1092
-1708
-1874
-1784
-2176
-2460
-2041
-2126
-2513
-2106
-1979
-2381
-2278
-1967
-2111
-2180
-1815
-1893
-2235
-1971
-1726
-2008
-1978
-1620
-1856
-2019
-1598
-1602
-1913
-1552
-1335
-1764
-1591
-1263
-1566
-1550
-1117
-1253
-1535
-1140
-955
-1343
-1182
-804
-1136
-1225
-844
-831
-1048
-800
-561
-960
-931
-474
-723
-952
-582
-635
-953
-575
-382
-957
-893
-422
-643
-784
-380
-411
-769
-467
-291
-704
-611
-255
-411
-491
-156
-189
-434
-129
-15
-343
-144
238
-9
-141
222
249
-44
173
413
128
123
469
289
145
471
372
208
494
665
259
339
864
592
424
766
673
357
633
872
530
587
883
610
524
965
894
541
855
1154
894
916
1259
1036
797
1213
1320
1027
1241
1469
1154
1184
1501
1225
908
1230
1248
620
822
1212
742
744
1051
835
793
1101
1030
756
963
929
689
1551
3033
4212
5324
5439
4106
2818
2252
2017
1543
1248
1339
914
586
977
937
569
902
1053
612
755
1093
799
642
983
1019
655
845
1032
636
779
1145
890
604
1014
1172
736
942
1122
748
887
1291
1075
797
1108
1254
928
1011
1266
1046
1057
1398
1149
854
1341
1358
860
1159
1378
1025
1151
1452
1099
856
1327
1331
781
1037
1306
825
819
1123
848
746
1098
1046
739
909
1065
608
750
1325
933
696
1137
997
631
922
1100
799
823
1152
896
672
1175
1094
623
961
1271
948
910
1196
939
717
1028
1053
716
852
1103
754
730
1139
852
563
991
980
613
888
1051
603
604
1007
869
644
926
918
561
784
1034
587
582
1147
926
721
1077
929
735
1007
1196
1009
990
1370
1129
815
1152
1002
457
642
829
376
465
857
588
334
552
592
378
576
723
350
166
543
977
1804
3605
4997
4865
3948
3007
1732
1155
1501
897
324
652
387
-7
327
434
76
74
408
214
-71
356
490
60
236
506
121
103
518
302
-9
377
451
-60
122
618
374
249
609
442
168
561
626
215
416
703
378
382
771
538
300
700
756
403
610
874
527
479
849
732
474
768
779
380
633
837
416
353
681
502
188
556
672
275
522
695
190
238
670
344
168
686
629
261
509
658
307
347
655
484
313
599
630
327
498
636
340
444
782
535
283
653
753
343
423
660
345
408
650
350
374
708
626
293
474
708
287
269
575
252
93
477
510
154
283
638
467
436
744
553
315
678
800
577
680
857
670
566
907
731
323
574
578
183
325
496
162
158
436
262
14
354
404
-27
239
409
-151
60
1288
2318
3574
5032
4559
2849
2045
1443
801
719
708
244
-170
181
235
-225
-32
200
-246
-293
187
32
-220
109
133
-202
-28
214
-127
-132
223
-60
-257
161
218
-108
24
215
25
-22
256
180
-104
332
466
-44
172
468
127
146
510
351
99
331
417
116
276
490
173
204
556
438
155
412
489
23
161
448
86
11
342
148
-156
233
324
-144
3
311
-55
-95
321
135
-101
166
232
-66
62
302
-11
-86
248
141
-85
252
291
-92
133
321
17
7
253
151
-133
151
350
-116
-75
242
-65
-101
255
17
-257
127
171
-174
-19
106
-183
-185
171
36
-159
190
208
-131
98
387
51
-11
384
305
76
399
516
102
266
532
-15
-70
268
-118
-347
48
46
-357
-208
58
-253
-296
65
-140
-389
-147
-311
-530
407
1930
3151
4202
4327
2942
1501
1042
776
135
-24
82
-402
-539
-142
-320
-689
-376
-208
-567
-487
-211
-427
-542
-226
-360
-616
-218
-159
-657
-444
-46
-438
-524
-139
-287
-522
-241
-292
-556
-228
-3
-371
-408
22
-178
-479
-26
31
-444
-198
161
-235
-326
51
-105
-371
-96
97
-246
-245
109
-179
-395
-40
-215
-519
-184
-179
-595
-406
-139
-558
-619
-228
-465
-761
-420
-319
-660
-545
-238
-587
-768
-335
-496
-754
-380
-343
-701
-541
-303
-681
-716
-265
-441
-793
-405
-311
-834
-675
-321
-687
-824
-450
-617
-938
-644
-513
-860
-781
-552
-924
-994
-584
-712
-989
-733
-700
-1079
-944
-670
-956
-968
-530
-708
-1111
-762
-562
-943
-767
-379
-786
-899
-406
-647
-986
-687
-728
-1188
-1154
-917
-1267
-1410
-1040
-1244
-1618
-1270
-1212
-1585
-1395
-1160
-1453
-1721
-1560
-1167
-392
1283
2844
2854
2016
1144
-115
-868
-619
-1065
-1820
-1607
-1578
-1996
-1938
-1721
-1976
-2196
-1872
-1907
-2290
-2000
-1896
-2263
-2052
-1836
-2183
-2279
-1937
-2109
-2398
-2047
-2022
-2404
-2191
-2023
-2375
-2357
-2069
-2217
-2491
-2192
-2063
-2518
-2387
-2063
-2408
-2473
-2037
-2193
-2571
-2258
-2119
-2514
-2419
-2118
-2364
-2499
-2201
-2258
-2515
-2266
-2229
-2641
-2475
-2240
-2640
-2740
-2398
-2570
-2921
-2599
-2509
-2945
-2787
-2497
-2869
-2952
-2569
-2765
-3011
-2737
-2706
-3019
-2912
-2652
-2949
-3085
-2807
-2932
-3209
-2944
-2930
-3264
-2974
-2789
-3282
-3327
-3012
-3327
-3572
-3284
-3298
-3681
-3657
-3496
-3806
-3922
-3673
-3901
-4142
-3816
-3884
-4340
-4143
-3873
-4277
-4500
-4235
-4332
-4651
-4438
-4305
-4793
-4787
-4395
-4716
-4829
-4370
-4550
-4972
-4638
-4510
-4944
-4721
-4403
-4833
-4848
-4385
-4731
-5125
-4690
-4718
-5278
-5161
-4918
-5320
-5439
-5107
-5298
-5554
-5258
-5246
-5676
-5568
-5206
-5492
-5969
-5672
-4905
-4026
-2325
-912
-1268
-2215
-3124
-4533
-5134
-4743
-5142
-5756
-5557
-5379
-5776
-5850
-5348
-5488
-5711
-5327
-5298
-5440
-5152
-5031
-5309
-5170
-4875
-5090
-5037
-4600
-4727
-4931
-4518
-4408
-4702
-4433
-4157
-4439
-4338
-3892
-4083
-4317
-3758
-3554
-3978
-3749
-3412
-3757
-3755
-3359
-3518
-3775
-3589
-3484
-3755
-3701
-3348
-3540
-3704
-3386
-3485
-3766
-3506
-3463
-3908
-3845
-3571
-3966
-4187
-3797
-4022
-4592
-4343
-4193
-4696
-4657
-4471
-4930
-4890
-4403
-4465
-4632
-4277
-4011
-4188
-3978
-3712
-3949
-3903
-3479
-3453
-3636
-3336
-3175
-3419
-3245
-2986
-3142
-3102
-2655
-2766
-3108
-2618
-2394
-2799
-2635
-2215
-2381
-2443
-2068
-2176
-2443
-2065
-1883
-2208
-2082
-1729
-1861
-1914
-1571
-1591
-1803
-1525
-1389
-1708
-1540
-1178
-1421
-1337
-843
-1008
-1306
-976
-725
-972
-764
-338
-650
-671
-207
-404
-654
-292
-266
-721
-561
-331
-850
-884
-329
-454
-732
-396
-341
-683
-511
-204
-436
-639
-358
115
1069
2796
4225
4173
3271
2348
1177
580
788
355
-296
-31
67
-375
-271
65
-227
-419
-71
-228
-542
-199
-102
-441
-331
-97
-383
-547
-211
-321
-723
-471
-337
-751
-676
-364
-736
-905
-429
-604
-1024
-700
-603
-970
-885
-666
-999
-1212
-853
-917
-1285
-982
-881
-1354
-1254
-908
-1218
-1336
-902
-1038
-1384
-1069
-973
-1480
-1437
-1109
-1483
-1618
-1174
-1290
-1674
-1436
-1336
-1700
-1579
-1317
-1666
-1738
-1314
-1435
-1735
-1449
-1324
-1710
-1626
-1337
-1599
-1653
-1326
-1397
-1632
-1367
-1245
-1575
-1423
-1165
-1432
-1489
-1170
-1237
-1551
-1342
-1156
-1597
-1763
-1499
-1691
-1788
-1299
-1264
-1589
-1318
-1153
-1416
-1243
-984
-1260
-1348
-994
-1008
-1257
-1140
-1085
-1334
-1162
-800
-1075
-1348
-1085
-1043
-1055
-682
-777
-1187
-895
-622
-1045
-1195
-852
-978
-1327
-1132
-964
-1301
-1370
-962
-1073
-1298
-1011
-953
-1173
-1015
-813
-1196
-1303
-629
155
1474
3302
3888
2886
1846
1020
89
-71
47
-576
-881
-444
-595
-984
-608
-474
-870
-688
-450
-733
-679
-313
-325
-569
-398
-227
-541
-362
36
-300
-438
24
36
-246
43
181
-131
10
344
119
-16
459
437
57
432
614
211
452
850
513
359
784
747
394
705
906
607
721
1026
795
649
1014
964
613
793
1021
690
650
1003
769
633
1047
978
654
982
1167
805
898
1259
1086
988
1372
1298
1078
1394
1502
1236
1315
1644
1522
1413
1774
1729
1367
1685
1920
1558
1639
1888
1670
1592
1915
1806
1508
1925
1898
1327
1512
1874
1626
1490
1807
1826
1607
1821
1915
1586
1708
1920
1663
1687
2098
2029
1758
2083
2170
1767
1936
2328
2102
2012
2394
2311
1961
2165
2297
1874
1912
2178
1797
1617
1944
1902
1584
1748
1904
1514
1619
2021
1749
1580
1729
1519
1655
2988
4560
5621
6231
5672
4213
3116
2800
2573
2008
1916
1919
1483
1582
1858
1484
1301
1693
1621
1284
1647
1802
1337
1418
1810
1573
1497
1837
1644
1364
1663
1822
1495
1575
1899
1618
1481
1891
1793
1477
1767
1946
1648
1675
1983
1774
1649
2108
2014
1521
1908
2210
1779
1780
2089
1906
1744
2083
2009
1695
2000
2154
1821
1843
2073
1775
1572
1902
1894
1548
1778
1942
1403
1539
1989
1621
1509
1889
1763
1513
1751
1752
1452
1588
1875
1605
1514
1888
1817
1528
1704
1887
1615
1661
1962
1673
1516
1890
1801
1459
1673
1879
1605
1618
1934
1710
1415
1781
1888
1416
1606
1876
1474
1497
1752
1475
1492
1894
1695
1353
1635
1868
1540
1415
1800
1696
1445
1892
1893
1463
1719
1956
1757
1858
2121
1938
1772
2015
1905
1555
1727
1815
1349
1236
1602
1442
1243
1562
1491
1159
1355
1591
1248
1238
1620
1172
851
1986
3356
4398
5808
6044
4573
3496
2909
2170
1855
1892
1521
1086
1321
1326
969
1099
1343
1067
903
1293
1248
918
1209
1411
986
945
1254
1152
1107
1351
1314
980
1181
1452
1026
1016
1471
1301
1035
1401
1505
1042
1221
1647
1328
1254
1589
1362
1279
1658
1571
1237
1455
1647
1294
1367
1700
1434
1380
1792
1642
1249
1505
1699
1298
1245
1572
1316
1089
1422
1293
1055
1343
1325
1017
1145
1440
1243
1084
1377
1292
1028
1265
1394
1130
1067
1360
1382
1138
1369
1384
979
1220
1532
1204
1079
1443
1263
979
1385
1369
1034
1289
1430
1120
1196
1482
1203
1080
1417
1302
1043
1308
1369
1008
1055
1325
1174
1039
1342
1317
1002
1180
1344
1041
1051
1402
1202
1044
1455
1471
1126
1244
1427
1245
1318
1697
1519
1344
1754
1569
1114
1452
1584
1056
1051
1372
1102
904
1173
1129
841
1067
1044
395
387
708
416
40
236
820
1658
3286
4997
4965
3768
2903
1876
1021
1255
1045
210
295
483
37
-15
313
146
-80
212
255
-67
175
351
-74
29
400
146
10
364
331
-37
219
467
86
109
474
290
130
444
437
125
300
591
308
334
751
502
328
720
680
354
573
815
504
456
852
614
347
819
875
509
700
878
543
544
812
555
357
652
638
224
351
692
399
341
674
443
195
520
560
259
494
680
299
318
604
369
324
669
614
294
482
678
291
279
703
507
247
617
610
237
423
621
263
202
607
433
143
512
519
98
234
476
190
45
372
243
-43
275
313
-109
14
333
77
74
403
179
-75
214
263
1
230
402
45
42
310
77
-165
3
-130
-479
-340
-193
-540
-663
-346
-569
-884
-520
-570
-951
-731
-578
-1021
-1292
-666
277
1395
3169
3924
2688
1422
690
-191
-505
-465
-1068
-1514
-1241
-1325
-1711
-1533
-1435
-1815
-1904
-1558
-1693
-2063
-1744
-1656
-2055
-1917
-1744
-2046
-2020
-1761
-2029
-2305
-1963
-1916
-2356
-2229
-1984
-2289
-2271
-1924
-2209
-2466
-2139
-2194
-2506
-2279
-2099
-2458
-2528
-2221
-2363
-2588
-2376
-2388
-2671
-2493
-2331
-2697
-2748
-2434
-2662
-2887
-2557
-2624
-3055
-2845
-2719
-3214
-3256
-2940
-3185
-3461
-3111
-3143
-3578
-3326
-3158
-3556
-3487
-3202
-3483
-3598
-3185
-3190
-3623
-3477
-3257
-3701
-3751
-3324
-3582
-3988
-3686
-3541
-3865
-3753
-3517
-3948
-4042
-3701
-3914
-4048
-3706
-3741
-4129
-3935
-3665
-4089
-4166
-3743
-3912
-4124
-3777
-3767
-4108
-3931
-3744
-4015
-4016
-3703
-3882
-4099
-3731
-3672
-3928
-3719
-3532
-3797
-3841
-3450
-3577
-3796
-3332
-3302
-3631
-3383
-3228
-3578
-3602
-3358
-3591
-3860
-3627
-3623
-3918
-3691
-3472
-3802
-3810
-3481
-3615
-3817
-3428
-3424
-4010
-3599
-2573
-1561
5
1386
924
-591
-1322
-2030
-2682
-2631
-2771
-3240
-3293
-3046
-3241
-3417
-3135
-3087
-3344
-3199
-2922
-3179
-3210
-2751
-2872
-3052
-2573
-2541
-2823
-2514
-2227
-2510
-2539
-2171
-2278
-2383
-1990
-1932
-2241
-2075
-1782
-1998
-1999
-1527
-1598
-1848
-1460
-1369
-1686
-1373
-1102
-1495
-1440
-958
-1156
-1447
-1037
-933
-1202
-886
-655
-980
-1014
-735
-938
-1230
-941
-862
-1192
-1024
-683
-930
-997
-657
-787
-1000
-683
-567
-807
-631
-424
-735
-740
-267
-394
-659
-278
-207
-493
-261
-28
-272
-254
79
-57
-227
106
132
-152
90
268
-20
27
361
176
-43
299
364
61
185
385
155
148
445
330
138
478
481
68
305
554
170
104
499
351
82
425
551
213
336
529
134
32
285
69
-197
113
226
-127
-142
33
-249
-410
-95
-323
-812
-590
-455
-786
-635
-383
-735
-790
-403
-533
-691
-432
-627
-817
181
1696
2873
3964
4176
2867
1521
985
693
202
7
60
-409
-514
-153
-364
-572
-225
-209
-510
-215
44
-253
-258
106
-40
-290
89
279
-25
166
586
249
98
605
610
336
631
785
461
640
987
747
681
1062
980
790
1206
1297
1001
1245
1543
1284
1239
1567
1495
1304
1642
1830
1487
1564
1988
1719
1545
2036
1873
1530
1935
2034
1687
1911
2174
1838
1814
2227
2108
1856
2201
2243
1930
2161
2365
2059
2077
2528
2332
2023
2442
2585
2309
2463
2775
2489
2416
2859
2675
2428
2804
2917
2592
2730
2984
2656
2624
3061
2957
2643
2997
3204
2830
2905
3218
2932
2790
3192
3107
2773
3068
3203
2861
3055
3345
3029
2978
3325
3194
2960
3306
3370
2984
3210
3479
3161
3212
3608
3480
3226
3546
3643
3395
3636
3808
3547
3658
3984
3775
3513
3760
3772
3333
3350
3555
3281
3216
3464
3321
3181
3450
3599
3282
3216
3627
3393
3019
3640
4541
5573
7263
8318
7379
6225
5616
4403
3905
4246
3752
3229
3397
3213
2784
2852
2985
2673
2616
2951
2779
2529
2860
3000
2673
2764
3063
2768
2616
3028
2951
2686
3103
3147
2680
2950
3261
2850
2894
3359
3159
2792
3182
3416
3027
3238
3605
3279
3204
3587
3456
3143
3455
3661
3314
3479
3779
3355
3357
3849
3680
3349
3649
3799
3406
3474
3719
3365
3253
3574
3439
3179
3429
3525
3145
3269
3658
3317
3170
3575
3419
3132
3513
3622
3208
3318
3620
3302
3197
3593
3417
3082
3478
3653
3282
3330
3618
3336
3135
3543
3500
3199
3459
3498
3055
3149
3516
3204
3051
3414
3254
2912
3135
3232
2905
3004
3256
2889
2732
3163
3082
2739
3003
3038
2665
2815
3060
2786
2734
3057
2937
2656
2914
2997
2633
2822
3085
2702
2709
3116
2855
2493
2753
2730
2198
2178
2389
2063
1872
2168
2058
1674
1959
2104
1604
1671
2019
1554
1231
1958
2856
3936
5623
6311
5126
3900
3178
2205
1789
1856
1275
812
1168
1083
582
708
946
582
398
743
560
220
538
593
111
124
458
208
2
317
159
-189
101
153
-273
-184
122
-219
-429
-62
-229
-609
-205
-79
-553
-451
-174
-507
-683
-353
-502
-824
-535
-518
-932
-824
-611
-1000
-1110
-731
-907
-1282
-1066
-968
-1440
-1493
-1195
-1553
-1810
-1479
-1600
-2003
-1798
-1823
-2193
-1946
-1738
-2139
-2259
-1908
-2114
-2469
-2183
-2128
-2538
-2447
-2124
-2466
-2764
-2325
-2404
-2870
-2537
-2395
-2904
-2841
-2455
-2808
-3045
-2698
-2832
-3206
-2949
-2865
-3284
-3179
-2906
-3337
-3499
-3035
-3197
-3612
-3424
-3387
-3758
-3757
-3620
-4143
-4447
-4243
-4776
-5354
-5283
-5544
-6088
-6167
-6100
-6607
-7065
-7002
-7235
-7670
-7571
-7536
-7987
-7844
-7519
-8162
-8421
-8017
-8334
-8628
-8356
-8364
-8752
-8727
-8430
-8750
-8919
-8480
-8522
-8862
-8634
-8491
-8881
-8905
-8611
-8313
-7169
-5250
-4113
-4442
-5354
-6321
-7427
-7818
-7654
-8242
-8682
-8361
-8473
-8784
-8544
-8465
-8746
-8560
-8164
-8443
-8645
-8221
-8230
-8501
-8138
-7905
-8307
-8159
-7690
-7988
-8118
-7654
-7596
-7797
-7451
-7262
-7586
-7390
-7002
-7233
-7331
-6859
-6784
-7008
-6637
-6469
-6844
-6613
-6229
-6511
-6578
-6193
-6233
-6437
-6093
-5953
-6299
-6098
-5774
-6003
-6000
-5704
-5796
-5923
-5546
-5460
-5812
-5625
-5256
-5409
-5394
-4911
-4937
-5218
-4774
-4461
-4698
-4359
-3954
