-183
-91
-20
21
26
-6
-70
-159
-261
-361
-443
-494
-506
-474
-398
-287
-155
-19
102
191
234
222
157
47
-92
-239
-373
-476
-531
-532
-478
-380
-254
-117
8
106
164
175
141
73
-17
-111
-195
-254
-279
-266
-218
-141
-47
50
137
203
241
247
220
167
95
14
-67
-138
-190
-217
-216
-188
-135
-64
15
95
163
212
233
221
177
105
15
-82
-171
-237
-266
-252
-192
-91
40
186
329
451
536
573
559
497
397
274
145
30
-54
-95
-87
-30
68
194
332
462
567
633
651
618
540
426
291
154
31
-62
-114
-120
-83
-10
86
190
286
360
399
399
358
282
182
72
-33
-119
-175
-194
-176
-125
-52
29
104
158
180
166
117
35
-67
-177
-278
-358
-408
-420
-396
-341
-262
-173
-87
-19
23
32
5
-53
-137
-234
-331
-415
-475
-500
-487
-436
-355
-252
-140
-34
52
105
117
86
15
-88
-211
-338
-452
-539
-586
-587
-542
-457
-343
-217
-95
4
66
81
49
-27
-132
-249
-358
-440
-478
-465
-397
-282
-133
29
185
317
409
454
451
407
336
254
179
126
109
134
203
314
462
638
835
1043
1255
1464
1666
1855
2028
2185
2325
2447
2556
2653
2744
2830
2913
2991
3060
3111
3135
3120
3060
2947
2781
2565
2312
2039
1765
1510
1293
1128
1021
970
967
996
1040
1077
1091
1067
998
884
732
556
372
198
51
-58
-119
-132
-102
-41
39
119
183
216
211
162
72
-51
-195
-343
-477
-582
-644
-656
-616
-532
-415
-281
-151
-40
36
67
50
-11
-106
-219
-334
-433
-503
-535
-524
-475
-398
-304
-210
-129
-76
-59
-81
-137
-220
-317
-414
-496
-551
-572
-555
-502
-422
-327
-232
-150
-94
-72
-88
-139
-218
-314
-414
-504
-573
-611
-613
-580
-517
-430
-331
-232
-145
-81
-49
-51
-89
-158
-251
-355
-458
-545
-606
-630
-614
-559
-470
-361
-244
-135
-51
-3
3
-33
-106
-205
-314
-416
-498
-545
-553
-520
-451
-359
-256
-158
-82
-35
-25
-51
-109
-190
-281
-369
-441
-486
-498
-474
-419
-339
-243
-145
-57
7
40
37
-4
-76
-170
-272
-369
-445
-490
-498
-467
-401
-310
-208
-109
-27
26
45
27
-24
-100
-188
-276
-351
-403
-426
-415
-372
-302
-213
-115
-19
64
124
156
155
123
63
-16
-103
-187
-254
-296
-307
-283
-227
-148
-57
35
113
166
186
171
122
49
-36
-119
-185
-223
-225
-187
-114
-15
99
211
307
373
401
388
335
253
152
49
-40
-103
-129
-112
-54
40
157
282
401
498
560
580
555
488
390
274
158
57
-12
-38
-17
48
150
274
403
518
603
647
646
603
526
431
334
254
203
191
218
283
372
472
569
647
696
709
683
623
535
431
321
218
132
71
40
41
72
129
204
288
369
436
483
500
484
435
358
262
158
61
-17
-65
-75
-47
16
105
205
302
379
425
429
389
310
202
78
-44
-148
-222
-256
-246
-197
-118
-23
72
152
202
214
186
119
22
-91
-207
-309
-386
-428
-431
-397
-331
-244
-149
-56
20
73
97
91
58
5
-59
-126
-184
-229
-253
-254
-234
-197
-148
-97
-50
-15
2
-3
-28
-70
-124
-183
-238
-282
-307
-310
-291
-251
-197
-138
-81
-35
-8
-5
-26
-68
-128
-197
-267
-328
-371
-391
-383
-346
-283
-202
-111
-23
53
105
125
109
58
-23
-125
-233
-334
-412
-455
-455
-412
-328
-214
-86
40
144
211
230
196
112
-11
-157
-306
-437
-532
-578
-570
-509
-405
-276
-140
-17
74
124
126
84
7
-91
-193
-284
-353
-389
-390
-359
-302
-228
-148
-73
-13
25
38
22
-19
-82
-157
-236
-307
-358
-382
-372
-327
-249
-147
-34
75
166
225
242
216
151
56
-55
-166
-262
-329
-362
-356
-316
-249
-166
-77
4
67
108
121
109
75
24
-35
-92
-140
-171
-178
-159
-113
-42
45
142
238
325
394
438
456
448
420
381
344
320
321
357
433
547
695
865
1044
1214
1361
1472
1540
1565
1554
1519
1476
1443
1436
1465
1536
1645
1781
1931
2073
2191
2268
2295
2269
2194
2081
1948
1811
1691
1602
1554
1553
1598
1680
1788
1906
2019
2113
2177
2204
2193
2146
2071
1980
1885
1799
1733
1694
1687
1712
1762
1827
1898
1961
2006
2022
2002
1947
1861
1750
1626
1501
1390
1302
1246
1226
1241
1287
1353
1427
1497
1550
1576
1568
1523
1443
1334
1206
1069
937
819
724
655
612
590
579
571
553
515
450
358
242
110
-26
-149
-248
-309
-326
-301
-237
-148
-48
44
113
144
130
68
-37
-175
-333
-494
-640
-757
-832
-859
-836
-766
-660
-531
-395
-271
-174
-118
-109
-151
-239
-362
-502
-643
-763
-847
-883
-864
-794
-683
-545
-399
-268
-168
-113
-109
-156
-245
-363
-490
-607
-699
-753
-760
-722
-645
-542
-429
-324
-243
-198
-195
-234
-309
-409
-520
-626
-711
-766
-781
-755
-692
-600
-494
-388
-296
-232
-204
-218
-274
-364
-477
-600
-719
-818
-886
-915
-903
-854
-775
-680
-583
-499
-441
-417
-433
-486
-568
-670
-777
-875
-951
-996
-1002
-971
-906
-815
-711
-609
-521
-458
-427
-432
-472
-541
-629
-724
-813
-885
-930
-943
-922
-871
-796
-707
-616
-534
-473
-439
-438
-469
-526
-602
-686
-766
-831
-870
-877
-849
-787
-701
-600
-497
-408
-344
-317
-330
-382
-466
-570
-678
-774
-842
-871
-857
-799
-707
-594
-476
-370
-291
-249
-249
-287
-355
-441
-530
-607
-659
-677
-659
-606
-527
-433
-338
-255
-195
-168
-176
-220
-291
-379
-471
-552
-610
-636
-626
-580
-506
-413
-316
-228
-162
-127
-125
-156
-213
-287
-365
-435
-489
-517
-517
-489
-437
-367
-288
-208
-135
-77
-40
-27
-40
-77
-135
-206
-283
-356
-414
-448
-454
-430
-375
-298
-208
-117
-38
18
42
31
-17
-93
-188
-288
-379
-448
-484
-483
-443
-370
-272
-164
-61
23
77
91
66
3
-87
-191
-295
-382
-441
-464
-446
-392
-309
-211
-112
-27
30
50
29
-31
-123
-236
-353
-458
-538
-581
-579
-533
-450
-339
-216
-99
-6
49
58
16
-73
-195
-335
-472
-587
-662
-686
-653
-568
-444
-298
-151
-25
60
93
68
-10
-132
-280
-435
-576
-686
-752
-769
-737
-664
-563
-447
-336
-242
-178
-150
-162
-208
-281
-369
-457
-532
-582
-599
-580
-528
-450
-358
-265
-184
-128
-105
-119
-167
-241
-331
-426
-512
-579
-617
-624
-599
-545
-470
-384
-296
-216
-154
-118
-111
-135
-187
-261
-349
-438
-517
-576
-605
-601
-563
-497
-413
-325
-245
-189
-165
-179
-230
-312
-412
-516
-606
-669
-694
-676
-616
-521
-406
-285
-175
-92
-47
-44
-84
-160
-260
-369
-472
-555
-608
-625
-606
-555
-481
-395
-309
-234
-181
-155
-158
-189
-245
-317
-396
-472
-534
-574
-586
-567
-517
-443
-353
-258
-171
-103
-66
-66
-104
-179
-280
-397
-515
-618
-693
-731
-726
-680
-599
-494
-381
-275
-192
-143
-134
-166
-233
-326
-429
-524
-596
-632
-626
-579
-496
-391
-280
-182
-112
-81
-95
-150
-238
-344
-450
-540
-602
-625
-610
-559
-482
-392
-306
-235
-192
-181
-204
-258
-335
-425
-517
-600
-662
-696
-699
-668
-608
-525
-427
-324
-229
-150
-97
-76
-90
-135
-205
-293
-385
-469
-535
-573
-577
-546
-486
-403
-310
-223
-155
-117
-118
-159
-238
-343
-461
-574
-665
-722
-734
-699
-622
-513
-388
-266
-164
-96
-73
-97
-163
-262
-377
-492
-589
-655
-680
-661
-601
-509
-399
-286
-187
-113
-76
-78
-120
-195
-291
-396
-495
-577
-630
-648
-630
-578
-499
-404
-305
-214
-144
-102
-95
-122
-180
-260
-351
-438
-510
-556
-568
-545
-490
-411
-319
-227
-149
-98
-81
-101
-157
-240
-340
-442
-531
-596
-626
-615
-568
-489
-390
-284
-187
-113
-72
-71
-109
-180
-275
-379
-478
-559
-611
-628
-608
-556
-479
-390
-301
-225
-170
-146
-153
-190
-251
-328
-408
-480
-533
-559
-553
-517
-454
-373
-285
-205
-143
-110
-112
-150
-218
-307
-406
-499
-575
-622
-634
-611
-556
-477
-389
-304
-235
-192
-179
-199
-248
-317
-396
-474
-540
-584
-599
-583
-537
-465
-375
-276
-181
-99
-39
-9
-12
-48
-113
-200
-297
-392
-472
-525
-545
-526
-471
-388
-289
-188
-100
-40
-17
-36
-95
-187
-297
-412
-514
-588
-624
-615
-564
-477
-366
-249
-140
-57
-10
-7
-48
-128
-235
-354
-468
-561
-622
-642
-619
-557
-465
-359
-253
-162
-98
-69
-77
-118
-186
-269
-354
-429
-484
-513
-514
-487
-440
-378
-309
-244
-188
-150
-134
-143
-175
-229
-298
-376
-454
-522
-571
-593
-585
-546
-482
-401
-314
-235
-175
-143
-144
-176
-232
-301
-370
-426
-459
-462
-434
-378
-303
-221
-143
-80
-42
-36
-62
-120
-203
-303
-411
-515
-604
-667
-694
-682
-631
-546
-436
-313
-195
-95
-29
-5
-25
-87
-179
-286
-392
-479
-534
-549
-522
-457
-367
-267
-173
-101
-61
-58
-92
-158
-245
-339
-427
-497
-540
-549
-525
-470
-393
-302
-207
-119
-48
-1
18
6
-34
-97
-177
-263
-345
-410
-449
-455
-425
-360
-269
-164
-58
32
91
109
85
19
-79
-191
-298
-380
-422
-415
-357
-254
-121
23
156
258
314
315
262
165
38
-97
-220
-310
-354
-345
-282
-175
-39
106
241
347
410
420
377
288
163
22
-118
-238
-323
-362
-351
-292
-195
-73
59
182
282
346
367
344
280
184
71
-43
-145
-219
-256
-253
-210
-135
-39
64
157
228
265
263
222
146
48
-61
-166
-253
-315
-343
-339
-304
-249
-182
-116
-63
-32
-29
-55
-110
-187
-278
-371
-455
-521
-561
-570
-546
-495
-421
-337
-254
-185
-139
-125
-146
-201
-284
-383
-488
-584
-658
-701
-706
-672
-604
-512
-410
-311
-231
-183
-174
-206
-275
-371
-479
-582
-664
-711
-713
-670
-585
-470
-341
-216
-110
-40
-12
-29
-86
-171
-270
-365
-442
-487
-493
-456
-381
-277
-156
-34
77
163
215
230
208
156
84
6
-63
-106
-109
-59
50
218
442
709
1006
1311
1606
1871
2090
2255
2360
2409
2412
2381
2333
2283
2243
2219
2215
2223
2235
2235
2210
2146
2034
1872
1664
1422
1162
903
667
471
327
240
211
228
279
345
406
448
455
422
348
240
106
-40
-182
-305
-399
-456
-473
-452
-401
-328
-249
-175
-119
-91
-96
-136
-208
-303
-410
-516
-608
-675
-708
-705
-665
-596
-508
-415
-330
-266
-232
-234
-273
-343
-434
-534
-626
-699
-741
-746
-712
-643
-549
-445
-344
-263
-213
-201
-231
-298
-394
-505
-615
-710
-779
-812
-808
-769
-702
-616
-524
-436
-364
-314
-292
-298
-330
-385
-454
-529
-600
-657
-693
-700
-678
-629
-558
-474
-392
-323
-280
-268
-293
-349
-430
-521
-609
-680
-723
-731
-704
-648
-572
-490
-413
-353
-319
-314
-338
-385
-447
-515
-578
-628
-657
-661
-637
-588
-519
-439
-357
-283
-229
-202
-207
-245
-310
-394
-486
-573
-642
-683
-689
-661
-602
-522
-432
-347
-278
-235
-223
-242
-290
-357
-435
-511
-576
-620
-637
-625
-586
-527
-455
-379
-309
-255
-222
-215
-233
-273
-330
-396
-463
-520
-562
-582
-577
-547
-494
-424
-344
-263
-189
-134
-105
-104
-135
-192
-269
-354
-436
-500
-536
-536
-498
-426
-330
-223
-120
-36
16
31
6
-51
-130
-217
-297
-355
-381
-369
-320
-239
-137
-27
77
159
209
218
186
117
20
-93
-204
-297
-356
-373
-343
-268
-157
-25
111
232
321
369
371
328
250
150
43
-55
-131
-174
-181
-152
-91
-8
88
186
271
337
376
384
363
315
248
173
102
46
14
13
44
105
186
279
369
444
493
509
489
437
360
270
179
101
49
28
45
95
176
278
387
489
571
621
634
606
538
440
325
209
107
30
-11
-9
34
112
211
320
422
501
547
551
510
427
311
174
32
-98
-198
-257
-265
-221
-129
-2
142
284
400
473
489
444
343
197
26
-148
-300
-412
-468
-466
-410
-311
-188
-62
45
119
148
129
67
-26
-136
-245
-337
-399
-423
-407
-354
-274
-179
-84
-2
56
82
72
29
-43
-131
-226
-316
-387
-430
-438
-411
-352
-269
-171
-72
16
79
110
103
58
-18
-115
-221
-321
-400
-448
-458
-428
-362
-269
-162
-56
34
94
116
94
32
-65
-182
-304
-414
-495
-536
-529
-476
-385
-268
-144
-32
50
90
80
22
-75
-195
-320
-430
-508
-543
-530
-472
-381
-271
-160
-66
-1
25
9
-44
-126
-225
-325
-413
-478
-511
-508
-472
-408
-323
-229
-138
-62
-10
12
1
-41
-109
-193
-283
-367
-433
-472
-478
-450
-390
-306
-207
-107
-18
48
82
80
41
-31
-127
-234
-339
-427
-487
-510
-495
-442
-359
-259
-155
-64
2
32
24
-21
-97
-192
-291
-381
-449
-485
-483
-444
-373
-277
-171
-66
23
85
112
99
45
-44
-158
-284
-407
-509
-578
-603
-579
-507
-397
-265
-129
-9
78
120
110
51
-47
-168
-293
-402
-480
-516
-508
-458
-375
-274
-170
-80
-13
19
13
-27
-96
-184
-280
-371
-445
-493
-507
-485
-430
-347
-248
-145
-52
16
50
43
-6
-89
-198
-316
-426
-512
-561
-563
-520
-435
-320
-191
-67
36
101
123
97
30
-68
-181
-294
-390
-455
-482
-467
-415
-335
-239
-141
-53
13
49
53
24
-30
-101
-179
-253
-315
-355
-369
-355
-314
-253
-179
-102
-33
18
45
40
7
-52
-127
-207
-279
-330
-351
-335
-285
-204
-104
0
94
164
201
198
157
87
-3
-98
-183
-244
-274
-267
-225
-155
-65
31
123
197
244
259
239
188
111
18
-79
-167
-234
-268
-264
-219
-136
-26
98
219
320
385
405
378
305
199
75
-47
-147
-211
-228
-197
-119
-5
128
266
392
489
547
562
535
472
381
275
171
82
20
-7
6
57
138
237
339
426
484
500
471
396
284
150
12
-109
-198
-242
-235
-179
-83
35
156
260
329
350
319
237
114
-32
-184
-319
-422
-477
-482
-438
-355
-248
-136
-38
30
57
39
-23
-120
-238
-362
-477
-569
-631
-655
-642
-596
-525
-439
-347
-260
-186
-132
-103
-100
-123
-168
-231
-303
-374
-437
-482
-504
-499
-467
-413
-342
-264
-192
-133
-96
-88
-109
-157
-223
-299
-374
-435
-473
-479
-452
-393
-306
-200
-89
15
100
157
181
169
127
62
-12
-84
-138
-164
-154
-106
-21
92
221
356
482
592
681
751
807
861
927
1016
1141
1305
1509
1745
1999
2253
2490
2690
2838
2925
2945
2903
2804
2662
2490
2303
2113
1932
1768
1628
1514
1424
1354
1299
1252
1204
1147
1072
977
859
723
573
421
279
159
71
24
17
47
102
168
227
265
270
234
159
50
-78
-209
-326
-414
-462
-466
-428
-358
-267
-171
-86
-24
5
-3
-49
-128
-231
-347
-463
-566
-643
-686
-689
-651
-575
-471
-352
-235
-134
-66
-41
-62
-126
-224
-341
-459
-557
-623
-647
-624
-561
-468
-358
-250
-159
-97
-72
-84
-132
-209
-302
-401
-492
-566
-613
-628
-608
-555
-474
-373
-265
-162
-76
-20
0
-20
-77
-164
-267
-371
-459
-518
-537
-512
-448
-353
-242
-131
-37
22
38
8
-65
-171
-295
-417
-520
-588
-609
-581
-506
-395
-264
-130
-14
68
105
93
34
-63
-185
-314
-434
-528
-584
-596
-562
-489
-384
-261
-136
-24
62
111
119
84
13
-84
-192
-295
-378
-426
-431
-393
-316
-212
-98
9
91
134
132
83
-5
-118
-238
-345
-424
-462
-453
-399
-310
-199
-82
22
99
139
137
97
27
-62
-155
-237
-296
-322
-312
-267
-191
-96
9
108
192
249
274
264
222
153
67
-25
-111
-177
-216
-222
-192
-128
-39
67
175
274
352
400
415
396
351
289
219
155
107
82
83
111
160
224
294
358
408
438
443
423
380
320
251
183
126
89
79
101
154
234
334
442
545
631
689
711
694
640
556
453
346
247
171
127
122
157
229
330
448
568
676
759
806
811
772
695
589
469
351
252
186
162
183
245
336
441
542
621
666
668
627
548
445
332
229
148
102
95
127
189
271
359
437
492
516
503
455
378
280
176
78
-1
-52
-68
-48
2
75
159
241
309
354
369
353
307
236
148
53
-42
-126
-194
-241
-264
-260
-232
-183
-118
-45
28
90
133
149
133
85
12
-78
-171
-251
-306
-326
-304
-244
-156
-53
47
125
167
165
117
30
-83
-204
-312
-389
-422
-406
-343
-240
-115
16
133
221
269
272
231
154
55
-51
-150
-229
-278
-292
-272
-222
-150
-67
16
87
137
160
152
113
49
-32
-123
-210
-283
-331
-347
-328
-275
-192
-91
15
113
189
230
231
188
107
-3
-126
-245
-345
-409
-427
-397
-322
-212
-83
47
160
240
275
261
202
106
-11
-133
-244
-328
-375
-379
-343
-273
-182
-83
10
84
127
136
109
52
-28
-119
-208
-281
-327
-339
-314
-254
-168
-65
40
134
204
240
236
193
116
16
-92
-192
-272
-319
-327
-294
-224
-129
-22
83
171
228
246
223
162
72
-36
-146
-243
-310
-338
-322
-260
-160
-32
108
243
355
430
457
433
363
256
128
-4
-116
-193
-222
-197
-118
7
163
332
498
644
758
835
876
887
878
862
852
858
890
953
1045
1164
1303
1453
1603
1741
1856
1939
1984
1989
1957
1895
1815
1732
1660
1616
1609
1647
1727
1842
1975
2110
2226
2305
2336
2313
2241
2129
1997
1864
1751
1675
1648
1673
1746
1854
1982
2111
2221
2296
2327
2310
2246
2146
2022
1891
1768
1668
1601
1573
1581
1621
1682
1750
1811
1854
1868
1849
1797
1718
1622
1520
1424
1345
1291
1266
1269
1294
1334
1379
1417
1437
1431
1393
1321
1215
1080
924
757
589
434
301
201
140
118
133
176
239
305
363
399
403
372
307
213
101
-15
-122
-209
-266
-292
-288
-259
-215
-167
-126
-99
-94
-113
-153
-211
-279
-349
-413
-462
-492
-498
-480
-441
-386
-324
-263
-212
-182
-176
-199
-250
-324
-412
-502
-580
-636
-659
-646
-593
-508
-401
-286
-178
-91
-38
-26
-55
-121
-212
-316
-416
-496
-543
-550
-516
-445
-346
-236
-128
-39
17
33
5
-64
-165
-284
-405
-513
-594
-637
-637
-594
-516
-413
-299
-191
-103
-48
-34
-64
-137
-243
-373
-511
-643
-754
-833
-871
-867
-822
-745
-645
-537
-436
-354
-302
-287
-308
-359
-430
-508
-576
-620
-630
-602
-536
-442
-335
-233
-153
-112
-120
-179
-285
-424
-579
-729
-850
-928
-950
-913
-820
-683
-519
-347
-190
-65
14
38
6
-76
-196
-337
-482
-612
-710
-765
-772
-731
-650
-541
-420
-303
-207
-144
-119
-134
-186
-264
-355
-445
-519
-567
-580
-556
-497
-410
-306
-200
-105
-35
2
-1
-42
-116
-211
-312
-404
-471
-503
-491
-436
-343
-225
-95
29
131
198
224
207
151
65
-36
-139
-230
-296
-330
-328
-293
-230
-151
-65
14
75
109
113
87
35
-34
-110
-180
-234
-263
-260
-224
-158
-68
34
138
232
306
351
361
336
279
195
95
-10
-108
-186
-233
-243
-213
-148
-56
48
150
232
281
286
246
166
58
-60
-168
-245
-276
-255
-182
-66
77
223
353
445
486
471
401
288
147
-2
-141
-251
-318
-339
-312
-243
-144
-31
81
177
244
274
263
214
136
39
-61
-149
-213
-243
-235
-190
-117
-25
72
159
222
252
245
200
124
25
-82
-184
-268
-324
-344
-326
-272
-189
-88
16
112
184
223
222
180
101
-5
-125
-243
-344
-416
-449
-439
-389
-305
-202
-92
8
87
132
140
110
46
-41
-138
-233
-312
-364
-381
-362
-306
-222
-118
-9
91
170
214
218
179
100
-9
-133
-255
-356
-421
-438
-401
-313
-186
-36
114
243
329
361
333
248
118
-38
-198
-337
-437
-486
-479
-419
-319
-195
-68
43
120
154
140
81
-11
-124
-240
-340
-412
-443
-430
-374
-284
-174
-58
46
124
165
162
118
38
-65
-177
-283
-368
-419
-431
-403
-338
-247
-142
-38
51
115
144
136
94
23
-65
-157
-240
-302
-334
-332
-294
-226
-136
-38
55
130
174
180
147
77
-23
-138
-256
-360
-437
-477
-474
-430
-350
-243
-125
-12
82
145
169
151
95
9
-95
-202
-296
-367
-404
-404
-367
-300
-213
-120
-33
34
72
78
51
-4
-76
-153
-224
-276
-304
-302
-271
-218
-152
-82
-19
28
50
46
16
-36
-105
-182
-258
-323
-369
-390
-383
-345
-283
-201
-109
-19
57
110
132
117
68
-9
-104
-204
-294
-363
-400
-403
-370
-309
-229
-142
-60
5
45
57
39
-6
-70
-143
-216
-278
-320
-335
-320
-274
-203
-112
-14
78
152
196
201
163
85
-25
-153
-280
-390
-466
-497
-477
-410
-306
-181
-55
54
127
154
130
61
-43
-165
-285
-384
-447
-462
-429
-350
-237
-106
23
132
205
231
206
134
24
-107
-243
-366
-460
-513
-522
-486
-415
-320
-215
-115
-32
24
48
39
3
-54
-122
-191
-252
-296
-318
-315
-288
-240
-177
-107
-41
14
49
56
35
-13
-82
-162
-243
-312
-359
-375
-357
-309
-237
-154
-72
-5
34
38
6
-59
-149
-251
-350
-431
-484
-498
-471
-405
-307
-190
-68
44
132
185
197
167
99
2
-112
-227
-329
-407
-452
-460
-431
-373
-293
-203
-116
-44
5
25
17
-19
-75
-142
-209
-265
-301
-310
-289
-240
-169
-84
2
76
126
144
123
65
-24
-136
-255
-365
-450
-501
-509
-474
-402
-301
-188
-79
13
75
98
82
30
-49
-143
-237
-318
-374
-400
-390
-348
-279
-192
-100
-14
56
101
114
94
43
-32
-124
-221
-312
-383
-426
-435
-407
-346
-258
-156
-52
37
100
126
112
58
-27
-131
-239
-334
-404
-439
-433
-390
-316
-225
-130
-45
16
45
39
-1
-70
-159
-254
-344
-417
-463
-477
-454
-399
-319
-221
-119
-27
46
89
97
70
11
-69
-158
-243
-309
-346
-348
-313
-246
-157
-58
38
115
161
169
136
65
-35
-152
-270
-374
-448
-484
-475
-423
-336
-228
-113
-9
67
106
101
54
-28
-130
-239
-337
-410
-449
-449
-409
-339
-247
-145
-49
32
87
110
102
64
3
-73
-154
-227
-282
-311
-309
-276
-215
-133
-42
46
117
160
170
144
87
9
-78
-159
-219
-248
-237
-188
-105
0
114
220
302
348
352
311
232
126
5
-112
-210
-274
-298
-276
-213
-115
3
128
242
332
390
410
393
344
273
191
112
49
10
1
22
71
140
217
292
351
387
394
369
315
240
154
71
2
-41
-52
-29
26
104
197
292
377
440
475
477
448
391
314
227
141
67
12
-16
-16
13
67
137
212
281
334
360
354
313
240
143
33
-75
-169
-237
-270
-263
-221
-149
-60
31
111
167
187
168
111
22
-87
-200
-302
-379
-419
-418
-375
-299
-201
-98
-5
61
90
78
26
-58
-162
-272
-371
-449
-498
-513
-497
-454
-394
-327
-261
-205
-165
-142
-139
-154
-185
-226
-274
-323
-366
-397
-411
-405
-376
-326
-260
-185
-110
-46
0
20
13
-20
-72
-132
-186
-224
-236
-215
-161
-77
26
134
234
311
359
372
353
312
264
228
224
269
376
550
788
1079
1403
1739
2060
2344
2572
2731
2819
2840
2805
2731
2634
2533
2440
2364
2309
2273
2248
2227
2198
2153
2082
1982
1852
1693
1511
1314
1112
916
739
588
472
394
356
353
375
413
452
481
486
461
402
312
199
72
-54
-167
-254
-308
-326
-310
-268
-211
-152
-103
-73
-70
-97
-154
-235
-330
-429
-521
-596
-645
-663
-646
-597
-520
-424
-323
-228
-153
-109
-104
-139
-213
-316
-436
-555
-657
-727
-754
-736
-674
-579
-466
-354
-258
-195
-175
-200
-266
-363
-475
-588
-683
-748
-772
-752
-690
-596
-480
-358
-245
-155
-100
-86
-114
-180
-274
-383
-493
-588
-657
-690
-684
-641
-568
-476
-379
-290
-223
-187
-189
-227
-296
-387
-488
-585
-664
-714
-725
-696
-628
-529
-411
-287
-175
-89
-40
-34
-72
-150
-254
-371
-481
-568
-619
-626
-588
-509
-403
-287
-178
-95
-52
-56
-108
-201
-319
-444
-556
-638
-677
-667
-610
-515
-397
-275
-166
-88
-48
-51
-95
-172
-269
-372
-469
-546
-597
-615
-602
-559
-493
-411
-321
-234
-156
-97
-62
-56
-79
-129
-199
-282
-365
-438
-488
-506
-490
-436
-352
-245
-130
-21
66
119
129
94
19
-87
-209
-329
-428
-492
-507
-472
-391
-276
-143
-14
92
158
173
135
49
-71
-207
-338
-444
-509
-523
-483
-394
-267
-117
40
184
300
375
404
383
317
217
96
-31
-146
-234
-283
-284
-238
-149
-30
103
231
336
402
422
393
321
217
102
-5
-85
-123
-109
-43
67
207
355
491
594
648
647
590
485
350
204
70
-32
-87
-88
-35
63
193
334
468
575
643
662
634
563
462
344
226
125
52
17
24
72
153
258
373
483
575
638
664
651
599
515
411
299
194
110
56
39
60
116
199
296
392
473
525
540
511
441
336
209
75
-48
-145
-201
-210
-170
-88
23
147
262
353
402
402
351
258
134
-2
-129
-230
-291
-303
-268
-192
-90
22
126
206
249
251
213
141
45
-59
-158
-241
-300
-328
-328
-301
-256
-199
-137
-78
-28
8
27
28
10
-24
-73
-132
-195
-257
-310
-350
-371
-371
-350
-312
-264
-213
-168
-138
-127
-140
-173
-222
-278
-330
-370
-387
-378
-341
-281
-204
-123
-49
6
33
28
-12
-80
-168
-263
-352
-420
-457
-455
-413
-334
-229
-110
7
106
171
192
167
95
-12
-141
-272
-387
-469
-506
-492
-431
-331
-208
-81
28
103
133
115
51
-47
-163
-280
-377
-440
-460
-435
-370
-275
-164
-53
40
105
133
123
77
4
-85
-179
-265
-332
-372
-381
-358
-306
-233
-146
-57
23
83
115
112
75
5
-89
-197
-304
-397
-463
-492
-479
-425
-338
-228
-111
-3
80
130
139
107
40
-51
-153
-252
-332
-384
-401
-382
-329
-251
-160
-68
12
69
94
82
34
-45
-144
-249
-347
-423
-467
-471
-434
-360
-261
-150
-44
42
95
108
81
17
-74
-178
-279
-366
-426
-453
-445
-406
-343
-266
-187
-115
-61
-30
-27
-51
-99
-164
-237
-307
-365
-401
-408
-384
-330
-252
-160
-66
15
74
98
84
32
-54
-162
-278
-387
-474
-527
-537
-504
-430
-326
-205
-83
24
101
136
126
72
-20
-136
-261
-377
-468
-519
-522
-478
-393
-280
-156
-41
50
102
106
64
-18
-124
-239
-344
-422
-461
-456
-406
-320
-208
-87
27
121
182
205
187
133
51
-50
-155
-252
-330
-379
-393
-370
-313
-230
-129
-24
71
145
188
195
167
109
32
-51
-126
-180
-203
-191
-145
-70
20
114
197
257
285
278
238
171
89
4
-71
-123
-145
-134
-89
-17
74
171
262
334
377
387
361
304
223
130
37
-43
-97
-117
-101
-47
37
141
252
356
440
492
505
478
414
320
210
97
-3
-79
-122
-124
-89
-20
71
171
264
337
377
377
332
246
126
-15
-161
-295
-401
-466
-483
-452
-376
-269
-148
-31
63
118
125
79
-13
-141
-287
-432
-556
-644
-683
-669
-605
-504
-379
-248
-128
-38
14
20
-17
-92
-193
-304
-410
-496
-549
-562
-533
-466
-372
-263
-157
-71
-19
-11
-52
-136
-253
-388
-519
-627
-694
-708
-663
-564
-424
-260
-95
49
153
206
202
145
48
-72
-194
-299
-369
-395
-372
-304
-199
-73
58
177
272
334
359
350
316
269
226
203
216
278
397
573
803
1076
1375
1682
1976
2236
2447
2599
2686
2712
2685
2620
2532
2437
2348
2274
2218
2179
2148
2117
2071
2001
1899
1762
1593
1400
1196
995
813
663
554
489
467
478
510
548
578
587
565
509
420
304
171
34
-95
-206
-290
-343
-361
-350
-313
-260
-201
-143
-96
-66
-58
-74
-113
-169
-238
-309
-374
-425
-454
-459
-437
-391
-329
-259
-191
-138
-108
-107
-138
-198
-283
-380
-480
-568
-634
-669
-666
-627
-555
-458
-350
-245
-157
-99
-80
-103
-166
-261
-376
-492
-594
-665
-695
-677
-613
-510
-384
-251
-131
-40
10
10
-36
-124
-239
-365
-484
-580
-642
-661
-635
-569
-473
-359
-243
-139
-63
-23
-27
-74
-157
-268
-391
-509
-606
-666
-680
-646
-567
-454
-324
-199
-96
-35
-26
-71
-163
-289
-429
-560
-660
-713
-710
-651
-544
-404
-253
-110
3
74
94
64
-10
-114
-234
-352
-454
-528
-566
-565
-529
-463
-379
-289
-203
-135
-90
-76
-93
-138
-204
-281
-359
-426
-473
-493
-481
-439
-372
-287
-196
-110
-39
10
29
18
-22
-86
-166
-250
-328
-388
-423
-427
-397
-336
-253
-156
-60
22
76
95
74
16
-72
-176
-279
-363
-416
-425
-386
-303
-187
-53
78
188
261
287
263
196
98
-14
-119
-198
-237
-228
-171
-72
52
184
306
401
455
462
420
338
226
100
-23
-129
-204
-237
-224
-168
-73
49
186
323
444
536
588
593
554
476
370
252
139
47
-10
-24
7
79
181
300
418
518
588
618
606
553
468
362
251
149
71
26
21
58
132
234
353
472
578
655
694
688
636
547
429
300
175
71
4
-19
5
71
169
282
391
478
527
528
476
376
242
90
-58
-182
-265
-296
-270
-192
-75
62
198
310
383
404
372
290
173
36
-98
-212
-290
-323
-309
-252
-164
-59
46
136
198
225
214
166
88
-10
-115
-214
-296
-350
-369
-351
-296
-212
-106
7
112
194
241
246
203
118
0
-137
-273
-388
-466
-495
-471
-396
-282
-144
-4
120
210
254
248
196
107
-4
-122
-230
-313
-361
-372
-344
-284
-203
-112
-22
53
104
126
114
71
2
-83
-173
-256
-320
-355
-356
-322
-257
-170
-74
17
92
139
152
130
77
2
-85
-170
-241
-289
-307
-294
-251
-186
-109
-30
39
88
109
97
53
-19
-111
-211
-307
-384
-431
-441
-409
-337
-233
-108
21
138
228
279
283
239
154
39
-92
-220
-328
-403
-434
-419
-362
-273
-165
-55
42
111
144
136
90
14
-82
-181
-270
-337
-371
-370
-332
-263
-171
-68
32
115
172
194
177
124
39
-66
-176
-276
-350
-388
-383
-333
-246
-134
-15
94
176
216
209
155
62
-55
-177
-287
-367
-406
-397
-342
-251
-136
-15
96
181
231
238
204
133
36
-74
-181
-272
-334
-361
-350
-301
-223
-127
-26
66
138
178
183
151
88
3
-92
-183
-258
-305
-319
-297
-243
-163
-70
23
105
164
194
189
153
90
10
-76
-155
-217
-254
-262
-239
-188
-119
-41
37
102
146
159
141
92
17
-74
-170
-257
-323
-358
-355
-312
-234
-130
-13
102
198
262
285
263
197
98
-23
-149
-262
-347
-392
-389
-339
-246
-124
12
143
251
318
335
298
210
84
-61
-206
-327
-407
-433
-399
-312
-183
-33
116
241
323
350
321
241
124
-11
-145
-258
-334
-365
-350
-293
-206
-104
-1
87
149
176
169
130
64
-16
-100
-174
-229
-257
-252
-216
-151
-63
38
143
238
314
363
378
359
309
234
147
59
-13
-59
-69
-36
37
142
265
387
487
550
561
517
422
289
136
-14
-137
-217
-241
-207
-123
-2
137
275
394
482
531
541
517
467
400
327
257
197
153
127
123
139
176
228
289
352
408
448
464
453
415
357
286
217
164
139
150
201
287
397
515
624
707
750
745
691
594
465
322
182
64
-19
-56
-44
13
106
220
339
446
527
571
570
526
442
330
203
77
-33
-116
-163
-170
-138
-75
10
104
192
262
302
304
265
188
81
-43
-170
-283
-366
-407
-401
-347
-254
-136
-11
101
181
216
196
125
11
-128
-271
-396
-483
-519
-497
-421
-302
-158
-9
124
223
273
272
221
129
13
-111
-225
-313
-363
-369
-333
-260
-160
-49
60
151
214
243
234
194
131
56
-15
-70
-97
-89
-45
32
135
253
373
484
573
635
665
668
648
615
583
565
576
633
744
913
1140
1419
1735
2069
2397
2696
2945
3126
3233
3264
3228
3142
3026
2903
2793
2709
2658
2638
2640
2648
2645
2612
2535
2408
2229
2006
1751
1485
1226
996
811
680
607
588
614
668
733
791
825
824
781
697
577
435
283
137
12
-83
-140
-160
-146
-105
-48
12
65
99
110
94
51
-15
-97
-185
-269
-339
-389
-410
-399
-357
-288
-203
-111
-27
38
74
73
35
-38
-135
-243
-345
-426
-473
-476
-434
-352
-240
-115
5
103
164
179
146
73
-30
-145
-256
-345
-400
-415
-390
-331
-249
-159
-74
-8
31
38
12
-42
-117
-204
-292
-372
-434
-472
-481
-457
-404
-324
-228
-126
-31
44
86
88
47
-34
-144
-270
-391
-490
-549
-560
-520
-434
-315
-181
-53
50
112
126
91
13
-93
-211
-321
-408
-460
-468
-432
-357
-254
-137
-20
82
156
194
192
151
80
-11
-110
-201
-273
-315
-324
-297
-239
-161
-74
8
73
113
119
92
36
-43
-134
-224
-301
-355
-378
-364
-316
-238
-140
-33
69
151
204
219
194
132
43
-60
-160
-241
-290
-298
-262
-187
-84
31
143
233
290
306
283
224
142
52
-33
-100
-138
-144
-120
-70
-3
71
143
205
251
278
285
274
249
212
169
123
81
48
30
31
57
107
180
271
370
466
545
595
607
577
506
404
286
171
78
23
17
64
157
284
424
556
659
716
720
670
578
458
331
218
136
99
111
170
268
390
520
641
741
809
841
836
799
736
657
573
492
426
379
359
366
400
455
525
599
666
716
738
727
682
607
511
408
311
235
191
187
221
288
377
473
559
621
649
636
583
497
389
273
163
75
18
0
20
74
153
245
336
412
462
476
450
388
294
180
60
-50
-137
-191
-203
-174
-110
-18
86
190
278
339
365
353
305
229
135
34
-61
-141
-195
-220
-216
-184
-131
-65
3
63
106
125
116
81
22
-51
-128
-196
-244
-263
-248
-199
-121
-27
71
156
214
235
213
150
53
-62
-180
-285
-359
-394
-385
-333
-246
-136
-20
88
172
226
243
223
170
93
2
-94
-181
-253
-302
-323
-316
-280
-222
-147
-65
14
79
123
137
121
75
4
-80
-167
-242
-295
-317
-305
-260
-189
-104
-18
55
105
123
108
62
-5
-84
-162
-227
-270
-286
-273
-235
-179
-113
-47
10
51
68
61
31
-20
-84
-154
-218
-268
-295
-293
-260
-198
-115
-18
78
160
214
232
210
151
62
-42
-146
-233
-289
-305
-277
-209
-111
2
115
210
274
299
281
226
139
36
-71
-166
-236
-274
-274
-237
-168
-76
28
131
222
291
331
339
315
264
194
118
47
-4
-26
-8
52
151
282
434
591
738
862
953
1007
1026
1018
997
977
973
996
1053
1146
1272
1420
1579
1734
1870
1979
2052
2087
2085
2052
1996
1929
1863
1811
1782
1785
1823
1894
1993
2108
2226
2330
2407
2444
2435
2379
2285
2165
2038
1921
1831
1782
1778
1816
1888
1977
2066
2138
2176
2173
2127
2043
1931
1806
1687
1587
1520
1492
1504
1549
1618
1698
1777
1841
1879
1884
1855
1792
1704
1597
1484
1375
1280
1207
1163
1149
1163
1201
1252
1305
1348
1368
1355
1299
1198
1054
876
676
469
275
109
-14
-87
-108
-82
-19
65
154
230
278
288
257
185
82
-42
-171
-290
-385
-446
-468
-450
-398
-324
-239
-160
-99
-68
-74
-118
-194
-294
-404
-509
-593
-645
-659
-632
-570
-483
-386
-294
-224
-186
-188
-231
-309
-411
-522
-625
-705
-751
-755
-717
-642
-539
-423
-308
-210
-139
-102
-101
-134
-194
-272
-355
-432
-492
-528
-536
-514
-466
-398
-319
-240
-172
-126
-110
-128
-179
-261
-363
-475
-582
-671
-731
-754
-738
-688
-610
-517
-424
-344
-292
-276
-298
-359
-450
-561
-678
-786
-873
-929
-947
-927
-871
-788
-691
-591
-504
-440
-406
-405
-437
-496
-570
-649
-719
-768
-788
-774
-726
-651
-558
-458
-366
-295
-255
-253
-292
-366
-469
-588
-708
-813
-891
-929
-922
-872
-784
-670
-545
-426
-330
-269
-250
-275
-338
-428
-531
-629
-707
-752
-757
-721
-650
-554
-446
-343
-257
-200
-178
-193
-240
-313
-400
-491
-574
-639
-678
-689
-670
-626
-563
-487
-410
-341
-288
-258
-254
-276
-319
-375
-436
-490
-527
-540
-523
-477
-406
-317
-223
-134
-63
-18
-5
-25
-73
-141
-218
-293
-352
-387
-392
-366
-310
-232
-144
-57
14
60
73
50
-5
-87
-182
-276
-356
-408
-425
-402
-341
-250
-142
-31
66
136
169
160
109
24
-84
-198
-304
-386
-432
-434
-392
-311
-200
-75
47
150
220
246
224
156
51
-79
-215
-340
-436
-489
-491
-442
-346
-217
-69
77
202
290
332
322
261
159
29
-112
-245
-354
-426
-453
-436
-378
-292
-192
-94
-12
40
57
36
-20
-99
-190
-277
-348
-390
-399
-372
-314
-232
-140
-49
27
77
96
80
31
-43
-135
-234
-326
-403
-455
-477
-468
-428
-366
-289
-208
-136
-84
-58
-66
-107
-176
-264
-360
-450
-518
-555
-552
-509
-428
-321
-200
-83
14
77
97
71
4
-95
-212
-331
-434
-507
-541
-531
-481
-400
-300
-197
-108
-46
-21
-37
-93
-181
-289
-403
-507
-588
-634
-640
-606
-536
-439
-329
-218
-121
-49
-12
-14
-53
-124
-218
-321
-418
-497
-544
-552
-518
-447
-346
-231
-116
-20
42
60
30
-44
-153
-282
-411
-523
-603
-637
-624
-565
-470
-354
-233
-124
-42
4
11
-20
-83
-167
-259
-345
-414
-456
-468
-450
-405
-342
-270
-201
-146
-114
-108
-131
-179
-245
-317
-386
-440
-471
-472
-443
-386
-308
-218
-129
-52
1
23
8
-42
-124
-229
-348
-465
-568
-643
-682
-678
-630
-545
-432
-305
-180
-74
-1
29
13
-47
-143
-259
-379
-483
-558
-592
-580
-524
-433
-321
-206
-106
-34
-3
-15
-70
-156
-261
-367
-460
-524
-553
-544
-500
-428
-342
-256
-180
-125
-99
-103
-135
-189
-258
-333
-403
-462
-501
-516
-505
-468
-410
-337
-258
-183
-122
-85
-79
-108
-170
-257
-357
-458
-542
-597
-612
-585
-518
-421
-309
-198
-108
-51
-37
-67
-137
-236
-347
-453
-537
-588
-597
-562
-488
-385
-267
-151
-51
20
51
39
-14
-100
-209
-326
-436
-524
-578
-591
-561
-493
-396
-283
-168
-68
3
35
25
-27
-113
-220
-334
-438
-517
-560
-560
-519
-442
-342
-232
-132
-57
-18
-21
-66
-146
-250
-361
-462
-539
-582
-583
-544
-471
-374
-268
-166
-82
-25
-1
-12
-54
-120
-202
-287
-367
-430
-470
-482
-465
-422
-358
-282
-204
-135
-83
-56
-59
-92
-151
-228
-314
-397
-466
-512
-529
-515
-472
-405
-324
-242
-170
-118
-95
-104
-146
-214
-298
-386
-464
-520
-543
-530
-480
-401
-304
-201
-109
-39
-3
-7
-50
-126
-226
-338
-445
-533
-589
-604
-576
-504
-398
-268
-130
0
106
173
194
163
85
-30
-167
-308
-434
-526
-572
-567
-512
-415
-291
-158
-36
57
108
109
61
-28
-147
-277
-400
-498
-560
-576
-546
-476
-376
-262
-152
-61
-2
18
-4
-63
-151
-253
-354
-439
-496
-516
-497
-442
-359
-260
-159
-71
-8
21
12
-32
-106
-197
-291
-374
-433
-460
-450
-406
-334
-247
-156
-75
-18
8
1
-39
-104
-185
-270
-346
-404
-438
-443
-418
-367
-295
-211
-124
-44
21
63
77
59
9
-68
-165
-270
-371
-453
-504
-515
-482
-407
-297
-168
-38
73
149
176
149
72
-45
-184
-323
-442
-523
-553
-529
-457
-349
-224
-100
2
69
91
68
6
-84
-188
-288
-371
-425
-444
-427
-376
-301
-212
-122
-41
20
54
57
29
-26
-101
-186
-272
-345
-398
-423
-416
-378
-313
-230
-140
-54
15
55
60
29
-35
-123
-222
-316
-391
-435
-438
-398
-321
-217
-101
10
101
160
179
158
102
23
-67
-151
-218
-258
-266
-242
-192
-124
-48
26
86
128
145
138
108
59
-2
-67
-127
-174
-200
-201
-174
-121
-44
50
151
247
330
389
416
409
369
300
211
113
19
-58
-110
-129
-112
-61
16
110
207
294
361
397
399
367
307
230
147
74
21
-1
11
56
129
217
308
388
444
467
456
412
343
261
179
110
65
49
64
106
166
233
295
341
363
356
322
265
191
112
35
-31
-79
-107
-111
-94
-58
-9
45
98
142
169
174
153
106
37
-48
-141
-229
-302
-352
-371
-359
-317
-254
-179
-104
-41
-2
8
-14
-65
-140
-229
-319
-399
-456
-483
-473
-429
-356
-262
-162
-70
-1
35
29
-20
-106
-220
-343
-459
-549
-600
-602
-553
-459
-332
-190
-52
62
137
163
137
65
-43
-169
-294
-400
-471
-495
-469
-395
-283
-146
-1
133
242
314
341
325
268
183
86
-6
-76
-107
-85
-3
142
346
600
889
1195
1498
1778
2020
2211
2346
2426
2459
2458
2439
2421
2415
2433
2478
2543
2616
2681
2719
2712
2643
2506
2305
2050
1762
1465
1185
947
769
661
623
646
710
793
871
921
927
880
781
637
463
275
94
-64
-183
-257
-284
-269
-221
-156
-88
-33
-4
-10
-52
-128
-231
-347
-461
-559
-627
-658
-646
-596
-515
-415
-313
-222
-155
-121
-125
-165
-237
-331
-436
-539
-628
-693
-727
-725
-690
-626
-540
-443
-346
-264
-206
-180
-188
-231
-301
-389
-482
-566
-630
-666
-667
-634
-573
-492
-403
-317
-246
-198
-180
-194
-238
-305
-387
-471
-546
-602
-631
-630
-597
-539
-463
-382
-307
-252
-225
-232
-274
-343
-430
-522
-604
-662
-687
-673
-620
-535
-429
-316
-212
-130
-82
-75
-109
-179
-277
-390
-502
-600
-671
-708
-707
-670
-604
-519
-428
-345
-282
-245
-242
-270
-327
-401
-484
-563
-626
-663
-668
-639
-579
-493
-391
-284
-184
-103
-51
-33
-52
-105
-184
-281
-383
-477
-551
-595
-603
-573
-510
-424
-325
-228
-148
-96
-79
-99
-153
-232
-325
-416
-491
-538
-549
-523
-463
-378
-282
-188
-112
-64
-51
-74
-129
-206
-292
-373
-437
-474
-477
-445
-383
-299
-204
-111
-31
25
51
44
5
-59
-140
-227
-309
-374
-413
-418
-387
-323
-230
-120
-6
99
182
229
237
204
136
44
-56
-148
-217
-248
-236
-181
-92
20
138
244
322
363
362
321
248
155
59
-24
-83
-106
-89
-35
52
162
281
396
492
559
588
577
525
440
334
221
117
37
-6
-7
39
124
238
366
489
591
658
682
662
604
517
415
315
230
173
152
170
223
307
410
521
626
712
767
785
762
698
600
481
353
234
140
81
66
96
165
261
366
464
539
576
570
522
438
331
217
113
34
-11
-16
18
84
168
256
334
390
414
400
350
271
172
65
-35
-117
-171
-190
-174
-126
-54
32
122
202
263
295
294
259
190
94
-18
-135
-245
-333
-388
-403
-373
-302
-198
-75
48
153
223
246
216
135
14
-129
-274
-397
-479
-507
-475
-390
-264
-118
26
142
214
229
184
85
-50
-202
-345
-458
-523
-531
-479
-378
-241
-89
57
175
248
269
236
153
32
-108
-250
-377
-471
-523
-528
-488
-409
-303
-186
-74
17
74
88
59
-11
-110
-225
-338
-432
-490
-505
-474
-399
-292
-168
-45
60
133
166
155
103
18
-85
-192
-289
-363
-409
-421
-400
-350
-280
-199
-117
-45
9
38
39
11
-41
-110
-188
-264
-327
-366
-375
-353
-301
-224
-133
-40
42
101
127
117
70
-8
-107
-213
-313
-392
-440
-448
-415
-345
-248
-136
-25
68
131
152
128
60
-44
-170
-301
-420
-509
-556
-554
-504
-411
-292
-162
-42
51
102
104
56
-33
-152
-282
-406
-504
-563
-573
-533
-449
-330
-194
-58
58
140
174
158
91
-17
-153
-296
-427
-526
-581
-581
-527
-425
-292
-145
-8
100
163
172
127
33
-93
-235
-371
-485
-559
-587
-567
-503
-407
-292
-174
-70
8
51
54
19
-48
-137
-236
-329
-404
-449
-460
-433
-375
-294
-201
-110
-35
14
29
9
-43
-123
-218
-318
-412
-488
-540
-561
-551
-510
-444
-359
-264
-169
-84
-20
17
21
-6
-62
-137
-221
-302
-365
-401
-404
-373
-313
-233
-148
-71
-16
8
-4
-49
-122
-210
-297
-369
-414
-422
-391
-322
-224
-110
7
111
189
230
230
188
110
6
-111
-223
-316
-377
-395
-368
-299
-198
-78
43
146
216
241
218
149
45
-77
-200
-304
-374
-398
-375
-305
-201
-77
51
167
255
306
316
285
220
131
32
-62
-140
-189
-201
-174
-111
-19
90
201
299
371
407
403
359
284
191
94
7
-57
-89
-87
-52
11
92
180
261
326
368
381
364
317
246
160
68
-16
-82
-120
-123
-90
-24
64
161
250
313
336
309
232
111
-42
-210
-373
-512
-613
-666
-669
-625
-544
-439
-325
-216
-126
-64
-37
-49
-96
-173
-271
-379
-481
-564
-618
-632
-606
-541
-447
-339
-234
-150
-101
-97
-139
-221
-330
-448
-555
-633
-669
-654
-592
-492
-371
-246
-134
-52
-8
-8
-48
-120
-211
-306
-393
-459
-498
-505
-479
-423
-343
-248
-148
-51
33
94
126
125
91
27
-55
-145
-227
-287
-311
-289
-221
-109
36
200
365
515
636
724
778
810
833
866
929
1034
1191
1401
1653
1934
2221
2493
2727
2906
3019
3061
3033
2943
2803
2627
2432
2232
2039
1862
1707
1578
1473
1389
1320
1259
1197
1127
1045
948
837
715
588
465
354
262
194
153
135
137
150
168
181
182
167
131
76
5
-78
-166
-251
-324
-379
-411
-415
-393
-346
-282
-212
-148
-101
-82
-97
-149
-233
-339
-455
-563
-648
-697
-703
-662
-583
-475
-355
-239
-144
-83
-63
-85
-144
-229
-329
-428
-513
-571
-594
-580
-531
-455
-361
-265
-180
-119
-90
-99
-145
-223
-320
-423
-517
-589
-627
-626
-588
-517
-424
-322
-227
-152
-107
-100
-130
-192
-276
-372
-463
-539
-588
-603
-582
-529
-449
-355
-259
-176
-116
-87
-94
-136
-205
-291
-381
-461
-518
-542
-529
-480
-398
-296
-186
-83
0
52
67
42
-18
-107
-210
-314
-405
-471
-503
-497
-454
-381
-289
-191
-102
-36
-2
-6
-50
-126
-224
-330
-427
-504
-547
-550
-511
-435
-332
-214
-97
2
71
101
88
34
-52
-159
-270
-371
-445
-480
-471
-416
-324
-205
-78
42
135
189
196
156
74
-38
-163
-283
-381
-443
-461
-433
-365
-266
-152
-38
59
128
161
155
113
45
-38
-122
-193
-240
-253
-229
-170
-82
24
137
240
322
373
387
364
308
229
137
47
-29
-78
-93
-72
-16
68
172
284
391
481
545
576
572
533
465
377
282
191
119
75
67
97
162
256
366
478
579
654
694
694
658
591
504
414
333
276
251
264
314
394
491
594
686
755
792
789
747
672
572
462
356
269
213
195
219
281
371
477
582
671
729
747
720
654
555
438
317
210
131
91
93
136
213
311
416
511
581
614
604
552
460
339
204
71
-42
-123
-160
-150
-95
-3
112
233
341
422
463
458
407
320
207
86
-27
-117
-172
-186
-159
-100
-17
77
166
237
280
288
262
204
124
32
-60
-139
-195
-220
-212
-171
-104
-18
73
157
221
256
256
220
152
61
-40
-138
-218
-268
-283
-260
-201
-117
-18
80
165
223
249
239
195
123
36
-55
-137
-198
-230
-228
-192
-126
-39
58
154
235
290
308
288
231
143
36
-74
-173
-244
-276
-264
-210
-121
-11
103
203
272
301
285
229
140
31
-80
-179
-253
-295
-301
-272
-215
-140
-57
25
95
146
172
170
139
84
10
-73
-156
-225
-272
-286
-262
-203
-113
-4
108
208
279
310
294
232
133
12
-114
-226
-306
-344
-334
-277
-185
-71
47
151
226
261
254
207
128
30
-72
-163
-231
-266
-265
-229
-163
-76
19
110
185
235
254
240
192
118
27
-71
-164
-240
-287
-300
-275
-215
-125
-17
95
198
278
326
336
307
244
156
56
-43
-129
-189
-216
-209
-168
-99
-13
80
167
237
282
295
276
230
164
88
15
-41
-70
-66
-28
42
134
238
338
421
478
501
492
454
400
342
296
276
292
353
456
597
765
946
1124
1285
1416
1507
1556
1564
1539
1491
1435
1385
1357
1360
1401
1481
1595
1734
1883
2027
2148
2235
2277
2272
2223
2139
2032
1920
1818
1741
1698
1696
1734
1804
1896
1995
2089
2162
2205
2212
2184
2123
2040
1946
1856
1782
1734
1719
1738
1787
1860
1944
2026
2094
2135
2142
2112
2046
1951
1835
1712
1595
1496
1425
1388
1387
1419
1478
1552
1629
1695
1737
1747
1719
1654
1556
1436
1307
1182
1075
997
952
942
961
997
1036
1063
1064
1030
956
844
701
540
378
232
116
41
13
30
85
165
254
336
394
415
395
331
230
103
-36
-169
-281
-360
-399
-394
-351
-281
-195
-110
-39
6
19
-2
-55
-133
-225
-319
-403
-468
-506
-513
-488
-435
-358
-267
-172
-82
-7
43
63
52
11
-55
-135
-219
-293
-346
-368
-356
-309
-235
-145
-51
32
91
116
102
49
-35
-141
-253
-357
-438
-487
-496
-465
-398
-304
-195
-88
5
70
96
78
19
-76
-197
-329
-454
-557
-626
-653
-634
-575
-486
-381
-276
-184
-120
-93
-105
-153
-230
-324
-422
-509
-575
-609
-607
-570
-502
-414
-317
-227
-156
-116
-114
-153
-229
-332
-450
-566
-664
-728
-750
-724
-654
-549
-423
-294
-180
-95
-51
-51
-93
-168
-262
-361
-448
-510
-536
-523
-474
-395
-298
-197
-106
-38
-3
-5
-44
-113
-203
-301
-391
-462
-502
-505
-470
-403
-312
-211
-114
-35
14
25
-1
-61
-146
-243
-336
-414
-463
-476
-452
-392
-302
-193
-78
30
121
185
217
214
180
119
42
-42
-121
-183
-220
-225
-195
-134
-47
55
159
252
321
359
360
324
257
170
76
-11
-78
-117
-119
-87
-24
59
151
238
308
351
360
334
277
197
106
17
-56
-104
-117
-95
-40
41
136
231
311
364
382
362
306
220
118
15
-75
-139
-166
-152
-96
-6
109
233
350
447
512
534
513
451
358
247
133
33
-39
-73
-64
-15
68
170
277
372
439
466
449
388
291
173
48
-65
-150
-195
-193
-145
-57
58
183
302
398
457
473
443
374
276
164
54
-39
-102
-128
-113
-61
19
116
214
299
361
391
385
343
271
178
76
-23
-107
-168
-198
-195
-160
-100
-23
61
141
205
244
253
230
178
102
14
-73
-148
-198
-215
-194
-138
-52
51
157
250
316
342
325
264
167
46
-79
-191
-273
-310
-297
-235
-132
-3
131
250
334
370
349
277
162
21
-123
-247
-334
-369
-346
-270
-153
-11
133
260
353
400
396
346
257
145
24
-90
-182
-243
-265
-249
-196
-114
-11
100
208
300
364
392
380
330
246
137
19
-92
-179
-229
-234
-194
-112
0
124
242
337
394
404
365
284
171
43
-81
-185
-253
-277
-255
-188
-86
37
163
275
359
401
397
345
253
131
-6
-139
-251
-327
-359
-341
-278
-178
-55
71
184
268
311
310
265
184
80
-28
-126
-198
-233
-226
-177
-92
16
133
243
331
386
401
374
308
210
94
-26
-138
-229
-288
-307
-286
-228
-141
-36
71
168
241
280
279
240
167
72
-32
-130
-206
-250
-253
-216
-144
-48
58
158
236
282
291
260
196
110
16
-71
-139
-178
-181
-151
-91
-12
75
157
221
258
264
235
177
96
3
-90
-170
-225
-248
-232
-179
-94
12
125
232
315
365
373
339
270
176
73
-23
-96
-136
-137
-101
-35
49
136
212
265
288
275
230
158
70
-26
-115
-189
-240
-263
-255
-219
-157
-77
13
103
182
241
272
270
234
167
78
-24
-123
-204
-256
-270
-242
-175
-76
41
159
261
332
361
344
284
189
75
-44
-151
-231
-273
-273
-231
-156
-57
52
154
237
289
303
278
218
132
32
-65
-145
-194
-204
-172
-101
-3
108
213
294
336
330
273
173
44
-96
-226
-326
-381
-384
-334
-239
-114
23
153
257
324
345
323
263
176
75
-22
-104
-161
-187
-179
-141
-79
-1
82
159
223
265
280
266
222
153
64
-36
-135
-221
-281
-307
-293
-237
-145
-27
103
225
322
379
386
340
247
121
-20
-154
-260
-322
-332
-290
-202
-83
48
171
268
323
332
294
215
106
-16
-134
-235
-304
-335
-324
-274
-193
-91
18
119
198
247
258
231
171
87
-9
-101
-174
-217
-222
-191
-126
-40
55
143
209
244
243
206
140
55
-37
-120
-184
-220
-223
-193
-135
-57
30
115
186
232
246
225
169
85
-18
-126
-224
-299
-340
-340
-297
-216
-110
8
119
207
259
270
237
166
68
-44
-154
-247
-313
-343
-335
-291
-215
-117
-9
99
194
266
308
313
281
214
119
9
-102
-200
-270
-300
-286
-227
-132
-15
107
213
287
316
294
225
120
-5
-131
-237
-308
-333
-310
-244
-148
-37
70
156
209
221
192
126
36
-66
-164
-243
-294
-307
-281
-217
-124
-10
109
220
311
371
393
374
318
232
128
21
-72
-140
-171
-162
-113
-32
70
177
274
347
383
380
337
262
167
68
-19
-81
-106
-90
-33
57
167
283
387
465
503
497
445
354
236
107
-15
-112
-170
-179
-138
-49
75
221
369
501
603
661
671
635
558
454
338
226
131
69
45
64
121
211
321
438
548
636
693
709
685
623
532
422
311
212
140
103
108
153
231
328
431
521
584
609
590
528
429
308
179
62
-27
-75
-76
-30
56
169
293
407
494
540
536
480
380
248
100
-44
-166
-251
-290
-282
-230
-147
-46
56
141
196
214
190
129
39
-69
-181
-282
-361
-409
-422
-399
-345
-268
-179
-89
-9
50
83
85
57
3
-68
-145
-217
-274
-308
-312
-285
-230
-154
-67
20
94
145
167
154
108
37
-50
-141
-222
-281
-308
-298
-251
-169
-64
52
165
263
332
367
364
325
259
178
94
24
-19
-24
14
96
220
377
556
746
935
1113
1276
1421
1548
1663
1772
1882
1997
2121
2254
2397
2543
2685
2816
2927
3009
3054
3058
3016
2929
2799
2633
2439
2228
2016
1814
1636
1492
1387
1319
1282
1266
1257
1239
1201
1132
1028
891
731
560
394
250
141
75
56
78
132
202
272
324
346
328
268
172
49
-86
-216
-323
-396
-425
-410
-355
-273
-177
-85
-15
21
17
-30
-113
-219
-335
-442
-526
-575
-581
-545
-472
-373
-260
-149
-55
10
37
23
-31
-120
-231
-351
-465
-557
-615
-629
-598
-523
-416
-289
-159
-45
38
76
65
6
-94
-220
-355
-480
-578
-638
-652
-618
-543
-439
-320
-205
-108
-42
-18
-36
-95
-184
-291
-400
-496
-564
-595
-583
-529
-441
-331
-214
-106
-22
25
30
-8
-83
-183
-294
-400
-486
-542
-558
-533
-472
-384
-283
-183
-96
-36
-9
-20
-66
-142
-237
-338
-432
-508
-555
-567
-544
-487
-406
-309
-210
-121
-53
-15
-10
-40
-97
-173
-257
-336
-398
-434
-440
-416
-366
-297
-222
-152
-96
-65
-61
-84
-131
-195
-266
-333
-387
-420
-426
-404
-356
-287
-205
-121
-43
17
53
58
31
-23
-99
-185
-269
-338
-380
-387
-357
-292
-198
-88
24
121
189
220
207
154
68
-40
-152
-252
-325
-360
-351
-301
-215
-106
13
125
216
277
301
287
242
174
95
18
-42
-78
-82
-53
6
87
181
275
355
410
433
418
368
288
189
85
-8
-79
-113
-105
-54
36
154
287
416
527
605
641
633
583
500
398
292
198
131
103
117
173
266
383
509
627
724
786
804
778
713
620
514
410
328
278
269
303
374
470
576
675
750
790
788
746
670
572
466
369
290
240
223
238
281
344
421
500
573
634
677
697
692
659
602
521
425
322
223
140
82
60
74
123
199
288
373
438
470
460
407
319
208
92
-11
-85
-120
-112
-65
10
100
188
258
300
306
277
217
134
41
-51
-130
-186
-214
-211
-179
-121
-45
39
121
189
235
251
235
185
110
15
-86
-181
-257
-303
-315
-291
-235
-155
-62
30
107
159
178
161
110
32
-60
-153
-232
-284
-299
-273
-206
-107
11
131
235
307
336
315
244
134
-2
-145
-273
-369
-423
-428
-384
-301
-190
-68
46
137
196
213
189
128
39
-66
-172
-264
-328
-355
-339
-280
-184
-63
68
189
283
334
332
273
165
19
-146
-306
-440
-530
-563
-536
-454
-331
-184
-34
97
193
241
238
186
94
-23
-149
-266
-358
-412
-421
-385
-308
-202
-81
36
134
198
217
189
118
14
-107
-225
-325
-390
-410
-383
-313
-212
-96
20
117
182
208
193
138
53
-49
-154
-249
-322
-361
-364
-328
-258
-163
-56
51
142
204
228
209
148
52
-65
-188
-300
-384
-427
-423
-373
-283
-168
-43
71
157
202
200
154
70
-39
-155
-261
-342
-387
-391
-354
-284
-192
-91
7
89
146
174
173
144
92
24
-52
-131
-203
-264
-307
-330
-330
-306
-262
-202
-135
-68
-13
22
32
14
-30
-93
-165
-235
-289
-320
-318
-285
-223
-140
-51
33
99
134
133
94
21
-79
-192
-303
-397
-461
-485
-465
-401
-303
-185
-63
46
125
161
149
89
-7
-125
-247
-353
-427
-458
-441
-379
-281
-161
-38
75
161
211
221
190
126
37
-64
-164
-248
-305
-325
-304
-242
-144
-22
111
235
335
394
403
359
268
140
-6
-148
-266
-343
-370
-345
-275
-171
-53
61
153
211
229
208
155
79
-5
-85
-149
-188
-197
-175
-127
-56
30
122
210
286
341
369
367
337
282
211
137
71
25
8
27
79
160
256
354
438
495
515
495
437
351
250
150
68
13
-5
14
66
143
232
319
392
441
460
447
403
335
252
162
76
4
-48
-73
-69
-39
15
83
155
219
263
278
259
202
114
2
-119
-234
-329
-392
-415
-398
-345
-266
-176
-91
-24
14
16
-17
-80
-164
-256
-346
-420
-472
-493
-483
-443
-380
-301
-216
-135
-68
-24
-8
-21
-64
-129
-209
-292
-365
-418
-442
-433
-393
-328
-247
-163
-90
-40
-21
-36
-82
-153
-238
-323
-394
-440
-454
-434
-382
-305
-214
-121
-39
23
58
63
39
-6
-64
-125
-177
-210
-217
-194
-143
-65
33
139
246
344
426
487
528
554
573
597
638
709
820
978
1184
1432
1711
2007
2300
2570
2797
2966
3063
3085
3033
2916
2749
2550
2340
2135
1953
1805
1694
1621
1577
1553
1535
1509
1464
1393
1292
1163
1012
848
685
532
400
296
226
189
180
193
217
243
260
258
232
178
98
-2
-114
-226
-327
-404
-448
-455
-424
-362
-279
-189
-107
-47
-20
-31
-81
-163
-268
-381
-486
-570
-622
-636
-611
-552
-467
-369
-272
-187
-126
-96
-101
-139
-206
-294
-393
-490
-576
-639
-673
-674
-642
-581
-500
-409
-322
-250
-204
-191
-213
-267
-344
-432
-517
-583
-619
-616
-574
-497
-395
-283
-178
-99
-58
-62
-111
-200
-316
-441
-557
-647
-698
-703
-661
-579
-471
-352
-239
-148
-89
-70
-93
-152
-238
-339
-440
-527
-589
-620
-615
-577
-512
-428
-338
-255
-189
-149
-139
-161
-209
-276
-352
-426
-486
-525
-537
-519
-474
-410
-333
-256
-187
-136
-113
-120
-158
-224
-310
-404
-495
-568
-613
-621
-588
-517
-414
-293
-170
-63
14
50
38
-19
-112
-228
-349
-457
-537
-576
-569
-518
-431
-319
-200
-88
0
53
65
35
-32
-126
-234
-340
-429
-488
-508
-485
-422
-328
-214
-98
6
84
126
125
83
7
-90
-193
-289
-364
-406
-411
-377
-310
-219
-114
-10
82
150
187
192
166
115
49
-19
-78
-117
-127
-105
-52
26
118
213
297
358
385
374
325
244
140
26
-83
-173
-230
-246
-219
-150
-47
78
211
335
436
502
526
508
451
366
267
169
88
35
20
44
105
193
295
398
485
546
573
564
522
452
366
277
198
139
108
109
141
200
275
358
435
497
534
540
513
456
375
279
181
92
23
-17
-23
5
63
142
229
312
378
416
419
385
316
220
106
-13
-122
-210
-268
-291
-279
-234
-164
-81
4
80
134
162
158
124
66
-9
-88
-160
-212
-238
-233
-200
-144
-76
-9
44
72
68
30
-41
-133
-236
-337
-420
-475
-493
-472
-415
-329
-224
-114
-13
65
111
117
83
10
-92
-211
-334
-444
-528
-573
-574
-530
-447
-338
-217
-103
-11
42
50
11
-69
-178
-298
-411
-498
-546
-546
-499
-413
-300
-179
-68
16
61
60
14
-69
-175
-289
-395
-478
-527
-537
-509
-446
-359
-258
-158
-69
-2
36
43
19
-31
-101
-182
-263
-334
-389
-420
-423
-398
-351
-288
-218
-153
-103
-76
-77
-108
-163
-237
-320
-398
-460
-495
-498
-467
-408
-326
-234
-144
-70
-23
-9
-32
-89
-171
-267
-362
-443
-495
-512
-490
-432
-345
-241
-137
-47
14
38
20
-36
-122
-228
-338
-436
-511
-554
-559
-526
-461
-374
-275
-178
-96
-38
-12
-22
-67
-142
-236
-338
-431
-504
-543
-543
-500
-419
-310
-188
-71
24
82
94
57
-23
-135
-264
-391
-497
-569
-597
-579
-518
-423
-308
-189
-81
3
52
62
33
-29
-115
-212
-308
-389
-445
-469
-457
-411
-339
-252
-161
-80
-21
7
-1
-43
-114
-202
-295
-378
-436
-458
-436
-372
-269
-140
1
135
246
318
342
316
244
138
17
-100
-192
-242
-238
-175
-59
98
280
464
632
767
855
895
891
850
789
726
678
659
677
737
835
964
1110
1259
1395
1505
1579
1611
1601
1555
1483
1396
1309
1236
1190
1179
1206
1267
1358
1466
1578
1678
1752
1792
1792
1752
1678
1579
1470
1365
1279
1221
1199
1216
1268
1347
1443
1541
1630
1698
1737
1742
1714
1654
1571
1474
1372
1279
1204
1154
1132
1141
1175
1228
1288
1342
1378
1385
1355
1287
1185
1058
920
788
677
602
570
582
632
707
791
866
911
915
868
769
624
446
250
58
-113
-246
-328
-354
-322
-239
-118
23
166
288
372
403
374
284
142
-34
-225
-405
-553
-652
-692
-670
-597
-487
-361
-243
-152
-103
-104
-155
-248
-367
-495
-613
-706
-761
-775
-746
-682
-594
-496
-404
-329
-282
-268
-290
-342
-417
-503
-587
-657
-703
-717
-698
-646
-569
-476
-378
-289
-219
-178
-169
-195
-249
-324
-410
-494
-565
-614
-633
-622
-582
-521
-447
-374
-311
-270
-257
-274
-321
-390
-473
-559
-637
-696
-730
-736
-714
-670
-611
-547
-489
-446
-425
-431
-465
-524
-602
-689
-777
-853
-908
-934
-924
-879
-801
-698
-582
-467
-367
-298
-269
-287
-351
-454
-586
-728
-861
-967
-1029
-1037
-991
-896
-766
-619
-477
-361
-288
-267
-299
-377
-488
-611
-726
-814
-861
-860
-811
-723
-610
-490
-380
-294
-243
-233
-262
-323
-405
-496
-583
-655
-705
-726
-719
-687
-633
-567
-496
-429
-374
-337
-321
-329
-357
-400
-451
-500
-537
-555
-549
-517
-460
-386
-305
-226
-164
-125
-117
-141
-195
-272
-359
-444
-513
-556
-565
-537
-475
-385
-279
-169
-70
7
52
61
34
-22
-98
-184
-265
-331
-371
-381
-359
-309
-238
-155
-69
8
66
99
101
74
21
-52
-134
-216
-284
-330
-345
-327
-276
-199
-104
-5
87
158
199
204
174
112
27
-70
-165
-248
-308
-338
-335
-301
-243
-169
-92
-22
29
54
46
7
-59
-144
-234
-318
-381
-413
-409
-367
-292
-194
-88
11
88
131
134
96
23
-73
-179
-276
-351
-393
-397
-363
-297
-211
-120
-40
15
37
20
-33
-118
-223
-336
-442
-527
-580
-595
-570
-508
-416
-305
-189
-83
3
56
71
48
-11
-96
-197
-299
-390
-459
-496
-499
-468
-411
-335
-250
-168
-97
-48
-23
-24
-50
-98
-161
-230
-299
-358
-400
-418
-409
-373
-314
-239
-158
-83
-26
4
0
-38
-107
-196
-292
-380
-444
-476
-469
-424
-351
-262
-173
-99
-54
-46
-76
-140
-229
-327
-420
-496
-543
-557
-537
-487
-416
-333
-251
-177
-121
-88
-80
-97
-136
-192
-258
-327
-388
-434
-458
-457
-430
-379
-311
-235
-163
-105
-71
-65
-89
-138
-204
-276
-342
-390
-414
-407
-371
-312
-238
-160
-90
-38
-11
-14
-47
-107
-188
-278
-368
-446
-502
-526
-514
-467
-388
-286
-173
-66
23
80
97
70
3
-95
-210
-326
-425
-493
-520
-501
-440
-345
-230
-113
-11
61
94
83
30
-58
-165
-278
-380
-456
-497
-498
-461
-392
-304
-210
-124
-60
-26
-28
-64
-131
-217
-312
-403
-476
-523
-537
-517
-464
-386
-291
-193
-103
-33
8
13
-16
-77
-161
-256
-349
-427
-480
-501
-488
-444
-377
-297
-218
-150
-103
-81
-85
-111
-152
-200
-245
-281
-302
-304
-288
-256
-212
-163
-113
-69
-36
-19
-22
-45
-89
-151
-226
-304
-377
-434
-467
-468
-433
-366
-273
-167
-60
30
89
108
81
11
-95
-223
-355
-476
-567
-618
-622
-580
-500
-392
-274
-160
-67
-4
21
7
-42
-116
-204
-292
-367
-419
-442
-432
-393
-330
-254
-175
-106
-55
-33
-41
-78
-140
-218
-299
-372
-424
-448
-437
-391
-315
-219
-114
-15
63
109
115
79
4
-101
-222
-342
-444
-515
-543
-524
-460
-360
-236
-107
11
100
148
150
105
21
-92
-217
-338
-438
-504
-528
-507
-443
-348
-234
-118
-14
62
102
100
58
-17
-112
-213
-303
-371
-408
-408
-376
-318
-246
-174
-113
-74
-61
-75
-112
-163
-220
-270
-306
-324
-320
-296
-258
-212
-165
-123
-92
-75
-74
-89
-120
-165
-220
-283
-347
-406
-454
-482
-485
-458
-400
-313
-206
-90
20
109
163
172
133
50
-65
-198
-327
-433
-500
-518
-485
-407
-296
-171
-52
45
104
117
86
17
-79
-188
-294
-384
-447
-477
-472
-434
-370
-289
-199
-111
-36
16
42
36
0
-62
-143
-230
-314
-380
-418
-422
-390
-328
-244
-151
-63
6
45
48
16
-47
-130
-221
-303
-365
-396
-390
-348
-274
-177
-71
30
112
163
175
146
77
-25
-147
-275
-392
-483
-536
-544
-505
-425
-314
-188
-63
41
113
142
125
66
-24
-132
-241
-335
-399
-424
-406
-347
-256
-144
-28
77
154
192
186
134
44
-74
-203
-325
-422
-480
-493
-458
-378
-267
-141
-17
86
155
179
156
90
-9
-126
-245
-351
-428
-469
-468
-427
-352
-255
-149
-48
35
90
109
91
40
-36
-125
-213
-286
-333
-344
-320
-261
-177
-80
15
94
145
161
139
83
2
-91
-183
-259
-308
-322
-301
-247
-168
-78
12
89
142
166
158
121
62
-8
-80
-142
-185
-202
-190
-153
-92
-17
65
144
210
258
281
278
249
197
131
57
-15
-75
-115
-127
-108
-60
15
107
206
299
375
424
439
418
364
285
191
97
17
-38
-59
-42
10
91
189
289
378
444
476
470
431
363
280
195
121
70
52
68
116
189
277
367
447
506
536
533
499
435
350
253
156
69
1
-38
-43
-13
50
137
238
339
425
481
497
468
394
284
152
16
-106
-195
-241
-238
-189
-105
-4
95
173
215
212
162
71
-46
-174
-294
-390
-450
-468
-443
-381
-293
-192
-94
-11
46
69
57
11
-62
-153
-249
-339
-409
-451
-457
-426
-361
-270
-166
-64
21
76
90
61
-8
-109
-226
-342
-440
-504
-524
-495
-421
-312
-180
-43
82
181
244
266
247
194
118
33
-49
-114
-151
-152
-115
-43
59
179
303
419
514
580
613
616
597
569
549
555
604
709
875
1101
1379
1691
2019
2339
2628
2867
3044
3151
3192
3173
3108
3015
2910
2807
2718
2647
2593
2548
2503
2447
2368
2257
2112
1935
1733
1514
1292
1083
899
749
640
574
547
552
578
613
644
660
651
609
533
426
293
147
0
-132
-238
-305
-329
-311
-255
-173
-80
9
77
112
107
60
-25
-137
-264
-390
-500
-580
-624
-625
-586
-512
-414
-305
-199
-112
-55
-35
-57
-118
-210
-321
-437
-540
-616
-655
-650
-602
-518
-410
-294
-188
-107
-63
-65
-110
-192
-299
-415
-524
-611
-664
-677
-651
-590
-505
-410
-319
-246
-200
-187
-208
-259
-334
-421
-507
-582
-634
-655
-643
-595
-518
-419
-309
-201
-108
-42
-12
-22
-71
-152
-256
-367
-470
-550
-596
-601
-565
-494
-401
-298
-201
-124
-76
-65
-91
-148
-225
-312
-394
-460
-501
-511
-490
-439
-365
-279
-192
-115
-58
-29
-31
-63
-122
-200
-287
-372
-445
-496
-522
-520
-492
-445
-387
-325
-270
-228
-204
-201
-219
-256
-306
-362
-418
-465
-496
-506
-492
-453
-393
-320
-241
-167
-111
-80
-79
-110
-167
-241
-321
-391
-440
-459
-442
-392
-315
-223
-129
-47
11
35
24
-19
-87
-171
-256
-332
-386
-412
-403
-361
-291
-199
-96
6
96
162
196
193
152
78
-20
-131
-239
-328
-387
-404
-375
-302
-193
-60
80
209
309
370
383
350
280
184
79
-17
-87
-119
-107
-51
42
159
284
400
491
544
553
517
442
338
221
107
14
-46
-64
-37
30
128
242
357
456
524
554
542
492
413
318
223
144
92
77
102
164
253
359
468
564
635
672
670
630
556
460
353
252
170
118
105
133
198
292
401
509
601
663
684
663
602
509
398
285
184
110
71
71
108
175
260
349
427
483
506
493
443
360
254
138
26
-69
-134
-163
-153
-107
-32
60
154
233
285
300
274
210
115
4
-109
-207
-277
-310
-302
-259
-187
-100
-12
64
115
137
126
84
18
-64
-152
-237
-312
-368
-401
-408
-388
-343
-279
-201
-120
-44
14
47
47
13
-52
-140
-237
-329
-401
-439
-437
-394
-317
-218
-113
-20
46
73
56
-1
-90
-196
-303
-395
-459
-485
-473
-424
-346
-252
-156
-69
-4
32
36
5
-54
-134
-224
-314
-391
-444
-467
-454
-406
-328
-230
-123
-21
61
112
125
97
31
-65
-177
-293
-395
-473
-514
-514
-472
-395
-291
-175
-61
35
100
124
104
40
-60
-183
-312
-430
-519
-566
-564
-511
-416
-292
-158
-34
60
110
110
59
-35
-155
-284
-401
-489
-536
-536
-491
-411
-308
-199
-100
-24
18
23
-8
-67
-145
-230
-308
-370
-407
-417
-397
-353
-290
-217
-144
-79
-32
-10
-16
-51
-113
-196
-290
-382
-461
-512
-526
-498
-429
-325
-200
-72
37
110
130
91
-6
-150
-319
-489
-633
-727
-758
-718
-612
-458
-277
-97
57
166
216
203
136
26
-108
-249
-379
-484
-555
-590
-588
-555
-496
-419
-335
-253
-181
-127
-100
-102
-135
-196
-276
-364
-447
-509
-540
-532
-482
-397
-289
-172
-67
11
48
37
-21
-117
-238
-366
-483
-572
-621
-625
-586
-511
-412
-304
-204
-124
-74
-62
-86
-142
-221
-310
-396
-466
-508
-514
-483
-418
-327
-221
-115
-22
44
77
71
29
-44
-137
-235
-325
-394
-433
-436
-400
-332
-238
-132
-26
67
133
164
157
111
35
-63
-167
-263
-338
-380
-382
-344
-270
-170
-59
49
140
200
222
203
145
58
-46
-153
-244
-306
-329
-310
-250
-157
-42
79
188
271
315
315
272
193
92
-15
-112
-181
-213
-201
-147
-57
58
181
296
388
444
458
425
352
246
117
-19
-146
-252
-324
-356
-347
-297
-217
-117
-12
82
152
187
181
134
53
-54
-173
-287
-384
-449
-477
-466
-419
-344
-253
-163
-89
-44
-37
-73
-151
-264
-397
-535
-661
-758
-813
-818
-773
-686
-568
-439
-317
-219
-161
-150
-187
-266
-374
-494
-608
-699
-753
-763
-726
-648
-539
-413
-288
-179
-99
-58
-62
-108
-191
-300
-419
-535
-630
-692
-711
-685
-615
-512
-390
-266
-158
-81
-45
-56
-110
-197
-300
-400
-479
-519
-513
-456
-356
-226
-85
46
150
212
226
192
120
24
-75
-158
-202
-193
-118
24
232
496
800
1127
1455
1765
2037
2259
2423
2525
2570
2571
2542
2499
2460
2435
2432
2449
2477
2502
2508
2475
2390
2245
2043
1794
1517
1233
969
746
580
480
444
460
513
582
645
685
688
647
562
439
288
122
-45
-201
-334
-435
-500
-527
-517
-475
-409
-330
-249
-180
-133
-117
-137
-193
-279
-384
-494
-595
-672
-715
-717
-679
-607
-515
-418
-330
-268
-241
-255
-308
-393
-497
-607
-706
-782
-824
-827
-790
-718
-621
-512
-405
-313
-248
-220
-231
-282
-364
-467
-576
-676
-752
-794
-793
-749
-668
-562
-445
-335
-248
-197
-189
-226
-301
-403
-517
-626
-716
-773
-792
-769
-711
-626
-527
-429
-345
-287
-262
-275
-322
-397
-490
-588
-676
-744
-780
-779
-739
-666
-567
-457
-349
-258
-195
-170
-186
-239
-323
-425
-531
-627
-701
-741
-744
-709
-642
-552
-452
-355
-275
-224
-207
-229
-285
-369
-469
-573
-664
-730
-760
-749
-696
-607
-492
-368
-251
-157
-101
-91
-130
-211
-324
-452
-576
-679
-744
-762
-730
-651
-536
-402
-269
-154
-74
-39
-54
-116
-217
-340
-468
-583
-667
-708
-701
-647
-555
-437
-311
-194
-103
-50
-42
-78
-150
-246
-351
-449
-524
-566
-570
-534
-464
-370
-264
-158
-66
3
43
51
28
-20
-85
-159
-228
-284
-318
-323
-296
-241
-161
-66
32
121
190
229
232
201
140
60
-26
-104
-161
-185
-171
-119
-36
69
179
279
354
394
392
349
270
168
57
-47
-126
-169
-170
-127
-46
62
183
300
398
465
493
481
432
357
268
179
104
54
35
48
89
152
226
298
359
400
416
405
368
310
238
160
84
18
-33
-63
-69
-52
-14
42
110
180
243
291
314
308
271
206
118
19
-79
-164
-222
-247
-236
-190
-119
-35
50
119
161
167
133
64
-34
-147
-260
-359
-431
-468
-465
-424
-353
-263
-167
-82
-19
13
10
-29
-96
-180
-269
-349
-408
-436
-429
-389
-320
-234
-141
-56
8
40
36
-7
-84
-187
-303
-420
-523
-600
-639
-635
-589
-507
-398
-278
-161
-64
0
23
1
-62
-158
-271
-384
-482
-549
-576
-558
-498
-406
-295
-182
-83
-13
17
3
-53
-143
-255
-374
-483
-569
-620
-631
-600
-534
-440
-331
-220
-121
-46
-4
1
-31
-95
-183
-283
-382
-469
-531
-561
-555
-513
-442
-354
-261
-179
-120
-95
-109
-160
-241
-339
-439
-523
-577
-590
-560
-488
-386
-267
-149
-51
15
38
15
-52
-151
-269
-390
-498
-578
-621
-622
-583
-509
-412
-304
-200
-112
-52
-25
-33
-72
-135
-212
-292
-362
-413
-436
-430
-395
-337
-265
-188
-118
-66
-38
-39
-70
-128
-206
-294
-381
-454
-502
-518
-498
-444
-360
-258
-150
-52
24
65
65
25
-50
-148
-256
-356
-433
-477
-481
-445
-376
-284
-185
-95
-26
11
10
-29
-100
-193
-293
-386
-459
-502
-508
-477
-415
-330
-234
-141
-65
-15
1
-17
-66
-138
-224
-310
-385
-442
-474
-478
-457
-416
-360
-298
-238
-187
-150
-134
-139
-166
-213
-275
-346
-419
-485
-535
-561
-559
-527
-467
-384
-289
-194
-111
-52
-24
-32
-73
-142
-226
-313
-389
-442
-463
-449
-401
-327
-237
-144
-63
-5
20
8
-38
-113
-207
-308
-400
-472
-514
-520
-490
-428
-344
-250
-159
-85
-38
-25
-48
-103
-184
-277
-369
-446
-495
-508
-482
-419
-328
-220
-110
-16
51
79
66
13
-73
-178
-287
-383
-453
-487
-481
-437
-362
-268
-168
-77
-7
33
40
15
-36
-105
-179
-247
-298
-325
-321
-288
-229
-150
-62
25
100
152
176
167
127
61
-22
-111
-194
-259
-295
-298
-266
-203
-119
-25
67
143
193
212
197
153
86
8
-70
-137
-183
-201
-190
-152
-90
-14
69
148
213
257
273
260
218
151
67
-23
-107
-173
-210
-209
-168
-89
20
145
272
382
460
494
480
417
317
192
62
-54
-141
-185
-182
-132
-45
64
178
279
351
383
371
318
231
124
12
-86
-158
-195
-193
-154
-87
-3
83
154
197
204
171
99
-5
-129
-259
-381
-480
-546
-573
-560
-509
-429
-332
-230
-138
-69
-30
-27
-61
-128
-218
-319
-416
-498
-551
-569
-548
-489
-400
-295
-188
-96
-33
-11
-34
-103
-208
-337
-472
-595
-686
-732
-726
-668
-567
-437
-297
-169
-71
-17
-14
-60
-147
-260
-380
-488
-568
-607
-600
-547
-455
-336
-206
-77
37
127
185
209
200
162
102
30
-45
-111
-158
-175
-154
-93
8
145
309
489
676
856
1023
1172
1306
1429
1548
1672
1809
1963
2132
2312
2490
2654
2789
2883
2925
2910
2837
2712
2543
2342
2124
1904
1696
1512
1358
1242
1163
1118
1100
1099
1102
1095
1068
1011
920
796
644
477
308
152
24
-65
-109
-109
-70
-4
73
144
193
207
179
107
-3
-139
-286
-423
-535
-607
-630
-603
-532
-430
-314
-205
-121
-75
-75
-120
-202
-307
-417
-517
-592
-635
-641
-615
-565
-502
-437
-382
-341
-320
-317
-330
-358
-395
-439
-487
-536
-584
-624
-652
-662
-650
-614
-556
-481
-400
-325
-267
-240
-249
-296
-376
-477
-584
-680
-750
-781
-768
-711
-618
-502
-379
-266
-178
-126
-118
-152
-224
-323
-435
-546
-641
-707
-737
-725
-675
-593
-493
-386
-289
-214
-171
-166
-198
-262
-347
-439
-525
-592
-628
-630
-596
-531
-444
-349
-260
-189
-149
-144
-176
-241
-329
-427
-520
-593
-637
-645
-616
-554
-470
-375
-283
-208
-159
-143
-161
-210
-281
-363
-446
-517
-565
-584
-570
-522
-446
-351
-249
-152
-75
-28
-19
-50
-118
-213
-322
-429
-518
-575
-590
-561
-491
-390
-272
-154
-54
16
46
33
-20
-105
-209
-315
-410
-479
-513
-508
-465
-388
-290
-184
-82
1
55
74
57
8
-66
-150
-232
-298
-337
-342
-312
-249
-164
-68
24
99
145
155
129
71
-10
-102
-191
-262
-305
-314
-285
-221
-130
-23
87
188
268
318
334
314
263
189
103
18
-53
-99
-113
-90
-31
57
165
280
388
476
534
553
534
480
399
304
208
123
62
34
40
81
149
235
327
413
480
518
523
495
436
355
263
174
99
50
33
50
101
178
269
363
443
500
522
506
451
365
258
144
37
-46
-96
-107
-77
-11
78
177
270
342
381
380
339
264
165
56
-48
-134
-192
-215
-204
-162
-97
-21
52
113
150
156
126
63
-27
-135
-249
-352
-429
-469
-465
-416
-325
-205
-74
51
150
209
217
173
84
-37
-172
-301
-405
-472
-494
-470
-408
-318
-216
-117
-37
15
33
15
-33
-105
-190
-276
-352
-407
-435
-432
-398
-339
-262
-178
-99
-35
3
11
-12
-65
-140
-227
-316
-396
-457
-492
-498
-476
-429
-365
-291
-217
-153
-105
-79
-77
-99
-143
-202
-267
-330
-381
-412
-416
-391
-338
-262
-171
-77
7
71
106
105
67
-1
-92
-194
-293
-374
-427
-446
-427
-376
-300
-211
-122
-48
1
18
1
-46
-117
-201
-284
-356
-407
-430
-423
-387
-328
-254
-175
-103
-47
-15
-11
-35
-85
-153
-231
-306
-368
-408
-420
-400
-352
-282
-202
-122
-55
-13
-4
-30
-89
-173
-270
-365
-446
-498
-514
-490
-429
-339
-231
-121
-23
50
87
84
45
-26
-117
-214
-304
-373
-413
-417
-386
-323
-238
-142
-48
31
85
107
94
47
-29
-123
-223
-318
-393
-440
-453
-429
-372
-290
-195
-100
-18
38
61
47
-2
-79
-172
-267
-352
-412
-438
-426
-376
-296
-197
-92
4
78
119
121
84
15
-77
-179
-277
-357
-408
-424
-403
-351
-275
-187
-98
-23
28
49
36
-8
-77
-161
-249
-329
-390
-423
-424
-394
-337
-259
-171
-85
-12
40
63
54
16
-47
-126
-210
-287
-346
-380
-382
-352
-292
-210
-117
-25
53
104
122
102
45
-40
-145
-253
-350
-423
-460
-457
-414
-337
-235
-124
-20
62
111
121
88
17
-83
-198
-314
-415
-490
-528
-526
-483
-407
-308
-199
-96
-12
44
65
49
2
-69
-149
-226
-286
-320
-321
-288
-225
-142
-51
34
101
138
139
102
30
-67
-179
-290
-385
-453
-482
-467
-408
-314
-195
-67
52
147
202
210
168
84
-32
-161
-283
-380
-435
-440
-391
-295
-165
-20
121
238
316
345
322
253
151
30
-91
-195
-268
-298
-284
-228
-136
-22
100
214
307
367
386
363
301
209
100
-11
-108
-177
-208
-195
-141
-54
56
170
272
346
381
372
320
234
127
18
-77
-143
-168
-148
-85
13
134
260
378
472
532
555
540
492
420
336
251
177
122
93
92
118
167
232
302
367
416
442
439
405
341
254
156
58
-24
-79
-96
-71
-7
90
205
320
418
481
496
459
368
234
71
-103
-266
-399
-488
-525
-508
-443
-344
-227
-112
-14
51
74
52
-10
-104
-215
-328
-427
-499
-533
-527
-480
-401
-301
-194
-96
-20
22
25
-13
-89
-190
-304
-416
-509
-570
-591
-569
-505
-410
-298
-183
-83
-11
22
11
-42
-128
-235
-346
-446
-520
-559
-555
-509
-430
-326
-210
-99
-4
64
99
99
68
15
-51
-116
-168
-198
-199
-169
-110
-26
71
170
261
333
380
400
395
375
352
340
358
419
534
709
942
1224
1540
1869
2188
2474
2707
2872
2963
2981
2934
2838
2709
2567
2428
2304
2202
2123
2064
2015
1967
1908
1828
1722
1587
1426
1245
1055
867
692
541
426
351
318
323
358
411
468
513
534
519
465
373
249
107
-38
-171
-278
-346
-372
-356
-307
-237
-160
-92
-48
-36
-62
-122
-212
-321
-437
-544
-631
-687
-707
-688
-635
-554
-457
-355
-262
-190
-148
-141
-170
-231
-315
-412
-507
-587
-640
-659
-640
-586
-503
-404
-302
-213
-148
-118
-128
-177
-258
-362
-473
-578
-661
-710
-720
-688
-620
-524
-414
-306
-214
-150
-124
-137
-187
-266
-360
-456
-536
-590
-607
-585
-527
-441
-338
-235
-145
-82
-53
-63
-110
-187
-280
-378
-465
-530
-564
-562
-523
-454
-364
-265
-170
-91
-38
-17
-30
-75
-145
-230
-318
-399
-460
-496
-501
-475
-421
-349
-267
-186
-117
-69
-48
-57
-95
-157
-235
-319
-398
-460
-498
-506
-482
-428
-351
-259
-166
-81
-18
16
16
-18
-82
-167
-261
-351
-425
-472
-483
-456
-394
-304
-196
-84
16
92
132
133
93
19
-79
-186
-286
-363
-407
-408
-367
-287
-180
-60
55
149
209
228
204
140
48
-58
-161
-245
-297
-308
-276
-204
-100
21
145
256
341
390
399
368
304
217
122
33
-36
-74
-75
-36
38
136
247
356
448
511
539
529
487
420
342
265
204
168
164
193
251
329
415
498
565
607
619
598
548
477
396
317
252
214
208
240
307
400
509
620
718
789
823
815
766
685
584
477
380
308
271
272
311
382
472
570
660
731
775
786
764
711
635
544
448
357
280
225
197
198
227
281
350
425
494
546
572
567
527
458
367
265
168
89
38
22
43
97
174
263
349
417
455
455
417
343
243
127
11
-93
-170
-212
-213
-174
-100
-3
105
208
292
344
357
329
262
167
54
-60
-162
-237
-279
-281
-247
-183
-98
-5
84
156
202
217
198
151
81
-2
-87
-162
-217
-242
-235
-195
-130
-47
40
119
175
199
186
137
57
-42
-146
-240
-311
-349
-348
-310
-241
-151
-53
40
115
164
180
162
114
40
-49
-142
-226
-290
-326
-328
-295
-230
-140
-35
70
161
224
250
236
181
94
-12
-122
-221
-293
-328
-323
-278
-201
-107
-12
69
122
140
118
60
-25
-124
-222
-304
-358
-375
-354
-295
-207
-100
15
125
219
289
328
334
308
256
184
103
22
-45
-88
-99
-72
-6
93
218
354
485
596
675
715
714
679
623
564
519
505
535
615
743
909
1098
1291
1469
1615
1719
1775
1785
1759
1708
1647
1592
1556
1549
1573
1629
1711
1809
1912
2006
2080
2125
2134
2107
2050
1969
1880
1796
1732
1700
1707
1755
1840
1951
2073
2190
2283
2339
2347
2306
2219
2098
1956
1814
1688
1593
1539
1532
1570
1643
1740
1844
1938
2008
2042
2032
1977
1881
1752
1606
1456
1320
1211
1140
1113
1129
1182
1260
1349
1431
1489
1511
1487
1417
1302
1152
982
810
651
521
428
376
363
381
417
456
483
486
456
392
294
173
40
-90
-203
-288
-339
-354
-338
-300
-250
-201
-165
-150
-163
-206
-275
-365
-469
-576
-675
-758
-815
-841
-831
-787
-713
-618
-513
-413
-333
-287
-285
-331
-422
-548
-696
-844
-973
-1063
-1102
-1084
-1011
-895
-755
-611
-484
-393
-350
-360
-421
-520
-642
-769
-882
-967
-1011
-1010
-966
-887
-782
-667
-554
-457
-386
-348
-343
-370
-422
-490
-564
-632
-683
-710
-706
-668
-599
-506
-399
-288
-188
-109
-62
-53
-84
-151
-245
-353
-461
-553
-617
-643
-629
-577
-497
-402
-309
-232
-185
-177
-210
-279
-373
-479
-580
-660
-708
-715
-682
-615
-523
-422
-325
-248
-202
-194
-225
-292
-385
-492
-599
-692
-759
-791
-783
-737
-658
-555
-443
-337
-249
-192
-172
-190
-243
-320
-409
-495
-566
-609
-619
-595
-542
-469
-389
-313
-254
-221
-218
-246
-299
-370
-447
-519
-577
-609
-611
-582
-525
-444
-350
-251
-158
-83
-32
-12
-25
-69
-138
-224
-314
-398
-463
-497
-495
-454
-376
-268
-142
-15
96
177
215
205
146
46
-82
-219
-345
-442
-496
-499
-451
-360
-239
-105
21
124
191
214
195
137
54
-42
-135
-209
-254
-263
-234
-171
-82
22
127
219
285
318
313
272
201
111
15
-73
-141
-179
-184
-155
-97
-19
66
145
209
248
257
237
190
123
46
-31
-96
-142
-161
-148
-103
-28
68
175
280
369
430
453
432
368
267
142
9
-115
-212
-268
-276
-236
-153
-43
76
184
264
301
287
224
123
-1
-130
-241
-320
-355
-341
-282
-189
-77
38
138
209
245
240
199
130
44
-46
-130
-196
-239
-254
-241
-203
-146
-78
-5
62
115
146
149
123
69
-7
-96
-186
-263
-316
-334
-312
-254
-165
-59
48
140
201
220
193
120
12
-118
-253
-375
-467
-519
-524
-481
-398
-286
-162
-40
63
134
165
154
103
20
-81
-187
-281
-351
-387
-382
-338
-262
-164
-58
42
122
172
185
159
96
7
-96
-201
-291
-354
-380
-362
-303
-207
-87
39
154
240
284
277
216
110
-29
-180
-323
-438
-508
-522
-481
-391
-268
-131
-1
102
162
174
135
54
-56
-178
-294
-387
-445
-460
-434
-372
-283
-182
-82
3
65
95
92
59
0
-77
-160
-242
-310
-358
-378
-370
-332
-269
-187
-99
-15
52
92
97
65
-3
-100
-213
-327
-426
-496
-527
-512
-453
-359
-244
-123
-14
66
105
99
48
-40
-151
-270
-379
-461
-505
-506
-462
-381
-274
-156
-45
43
99
113
85
20
-71
-175
-275
-358
-412
-430
-411
-359
-283
-194
-105
-31
20
39
27
-14
-79
-156
-234
-302
-348
-366
-351
-306
-236
-151
-63
16
73
99
87
38
-43
-146
-260
-369
-458
-515
-533
-509
-447
-354
-244
-131
-30
44
82
81
40
-35
-132
-239
-338
-417
-463
-469
-434
-364
-266
-156
-49
40
98
117
93
32
-59
-166
-273
-364
-426
-450
-433
-376
-287
-178
-63
42
122
169
174
138
63
-43
-164
-286
-394
-474
-515
-513
-468
-387
-281
-166
-58
28
82
99
78
25
-48
-130
-208
-272
-313
-331
-326
-302
-266
-227
-191
-163
-146
-142
-151
-171
-198
-232
-267
-299
-323
-336
-332
-308
-265
-203
-130
-54
14
63
84
71
24
-55
-153
-258
-354
-426
-463
-458
-412
-330
-226
-115
-14
63
105
107
68
-4
-97
-200
-296
-374
-421
-435
-412
-358
-278
-183
-83
9
82
129
143
122
67
-14
-114
-219
-315
-389
-431
-431
-390
-309
-202
-81
33
123
174
174
121
19
-116
-267
-410
-524
-590
-598
-547
-443
-301
-142
11
136
217
243
215
139
30
-93
-211
-307
-368
-387
-365
-311
-234
-151
-74
-16
15
15
-14
-68
-136
-211
-281
-336
-372
-384
-370
-331
-271
-197
-116
-36
32
81
103
95
56
-10
-95
-189
-277
-347
-387
-389
-351
-276
-174
-60
50
139
191
200
162
84
-24
-146
-264
-359
-419
-435
-405
-333
-233
-118
-7
82
137
147
111
33
-76
-202
-325
-426
-491
-509
-477
-396
-279
-141
-3
118
202
239
224
158
52
-79
-216
-340
-436
-490
-498
-459
-382
-278
-161
-48
47
113
143
133
87
9
-90
-198
-303
-392
-452
-474
-456
-399
-309
-196
-73
41
133
190
203
171
98
-7
-126
-244
-344
-410
-436
-417
-358
-267
-160
-53
37
100
125
110
57
-24
-122
-224
-313
-380
-414
-410
-371
-300
-207
-106
-12
64
111
123
97
39
-42
-132
-219
-287
-325
-329
-296
-232
-148
-57
24
85
114
108
67
-3
-90
-184
-271
-342
-389
-408
-399
-366
-311
-243
-171
-101
-42
-1
19
14
-14
-62
-123
-190
-252
-298
-319
-311
-273
-207
-125
-36
44
102
129
118
71
-7
-102
-199
-282
-337
-354
-328
-260
-160
-42
77
180
253
282
262
195
89
-43
-185
-318
-425
-492
-511
-482
-409
-304
-183
-62
43
117
153
150
110
42
-41
-128
-206
-264
-295
-295
-265
-207
-127
-32
68
163
244
301
326
314
264
180
71
-48
-161
-252
-307
-315
-275
-190
-74
57
181
280
339
351
317
244
147
45
-44
-105
-128
-110
-56
26
123
221
307
370
403
405
376
321
250
172
97
36
-2
-14
6
55
129
220
317
408
481
529
544
524
475
402
319
236
168
125
115
139
194
273
363
450
519
559
562
524
450
349
234
121
24
-44
-72
-58
-7
71
165
258
337
389
405
383
325
237
129
14
-95
-186
-249
-281
-277
-241
-178
-100
-20
51
98
113
91
31
-63
-180
-305
-424
-520
-580
-597
-567
-497
-394
-275
-155
-49
29
70
72
37
-27
-109
-196
-277
-340
-378
-388
-370
-328
-270
-203
-136
-79
-38
-17
-21
-47
-93
-153
-218
-279
-327
-354
-354
-324
-263
-176
-72
37
139
222
275
291
271
217
138
47
-42
-113
-153
-154
-111
-28
91
234
388
540
680
802
907
999
1087
1184
1300
1446
1627
1840
2078
2327
2570
2789
2965
3086
3145
3141
3078
2967
2820
2652
2476
2303
2142
1997
1871
1763
1671
1593
1525
1462
1399
1330
1251
1159
1049
925
789
649
516
400
311
256
236
247
282
325
363
379
362
304
208
80
-64
-208
-333
-425
-473
-474
-433
-361
-273
-185
-113
-68
-57
-81
-136
-213
-298
-379
-447
-492
-510
-501
-466
-412
-346
-275
-208
-152
-114
-98
-108
-145
-207
-289
-385
-487
-582
-659
-708
-721
-695
-632
-539
-427
-312
-209
-133
-98
-108
-164
-257
-374
-497
-607
-686
-723
-711
-651
-551
-427
-298
-183
-100
-60
-69
-127
-222
-341
-465
-576
-658
-699
-693
-642
-553
-439
-316
-203
-113
-57
-42
-68
-132
-225
-333
-443
-539
-609
-644
-641
-600
-527
-430
-324
-222
-140
-89
-77
-107
-176
-275
-389
-503
-600
-665
-689
-668
-606
-512
-400
-289
-194
-130
-105
-123
-180
-266
-366
-464
-546
-598
-613
-588
-525
-432
-322
-210
-111
-39
-4
-12
-62
-149
-260
-382
-499
-594
-655
-673
-647
-578
-478
-359
-236
-126
-41
8
14
-22
-95
-193
-303
-410
-497
-552
-566
-535
-460
-352
-226
-98
12
88
120
103
40
-60
-180
-302
-408
-483
-516
-504
-452
-366
-260
-147
-41
48
111
144
145
119
67
-5
-86
-169
-243
-295
-318
-305
-253
-167
-55
66
181
270
319
317
266
173
52
-73
-180
-248
-264
-221
-125
11
166
316
440
520
546
518
444
338
219
107
21
-29
-35
4
79
179
290
396
484
541
563
546
495
417
324
230
149
94
73
92
151
244
360
485
605
704
771
796
778
719
626
514
397
291
209
163
158
193
263
358
464
567
651
706
724
701
642
555
453
348
255
186
148
148
181
244
327
415
497
559
591
586
545
471
371
259
148
49
-24
-64
-67
-33
31
116
209
295
362
398
396
353
272
163
37
-89
-198
-275
-308
-292
-229
-127
-2
127
238
314
340
312
231
108
-37
-184
-313
-403
-443
-429
-364
-261
-134
-4
113
199
245
245
203
124
21
-95
-206
-301
-366
-395
-383
-333
-251
-150
-42
55
130
169
166
120
39
-68
-184
-293
-377
-424
-427
-386
-306
-201
-83
29
122
183
204
184
125
37
-71
-183
-286
-368
-419
-432
-405
-343
-252
-142
-28
76
157
205
213
181
113
19
-86
-189
-273
-326
-340
-312
-249
-159
-56
42
121
168
174
139
66
-33
-143
-249
-334
-385
-393
-357
-280
-172
-49
75
182
258
292
280
224
130
12
-116
-237
-334
-396
-414
-386
-314
-210
-88
35
143
219
253
240
181
85
-35
-163
-279
-367
-416
-418
-375
-293
-188
-76
23
95
128
119
67
-16
-116
-218
-303
-359
-376
-353
-293
-206
-104
-5
80
139
165
155
113
44
-40
-130
-214
-284
-331
-351
-343
-308
-250
-175
-91
-9
63
114
137
127
85
13
-79
-181
-277
-355
-400
-404
-365
-287
-180
-57
62
160
221
234
197
114
-3
-138
-270
-381
-453
-478
-450
-377
-268
-141
-12
100
179
218
210
161
79
-24
-132
-230
-307
-351
-359
-331
-275
-199
-115
-37
25
60
64
34
-26
-109
-205
-298
-378
-430
-446
-422
-358
-261
-142
-16
99
187
234
233
182
87
-38
-178
-310
-417
-482
-499
-464
-386
-276
-151
-31
68
132
153
133
76
-7
-104
-198
-275
-323
-335
-307
-240
-141
-20
109
230
329
391
408
374
294
178
40
-99
-220
-304
-338
-318
-247
-136
-2
134
252
334
368
353
293
200
87
-28
-128
-201
-237
-231
-186
-106
-2
113
227
325
396
432
428
385
308
210
104
7
-65
-100
-90
-36
58
176
302
416
501
543
537
481
385
263
132
11
-84
-141
-155
-126
-61
30
131
230
310
364
384
369
320
243
148
46
-51
-133
-190
-215
-206
-163
-92
-4
89
172
231
253
231
163
54
-86
-239
-389
-517
-605
-643
-628
-562
-457
-329
-197
-82
-1
33
16
-48
-149
-271
-393
-495
-560
-577
-542
-461
-346
-216
-91
7
61
63
11
-88
-217
-359
-490
-592
-652
-660
-618
-533
-418
-290
-164
-57
22
65
70
38
-22
-103
-194
-283
-361
-416
-443
-437
-397
-327
-234
-126
-16
86
168
224
249
246
217
171
118
69
36
26
47
106
204
342
517
722
951
1192
1432
1659
1862
2032
2166
2264
2332
2381
2421
2463
2513
2573
2636
2693
2729
2727
2675
2563
2392
2169
1909
1633
1366
1131
945
819
752
738
760
798
832
844
819
753
647
508
349
187
37
-86
-176
-226
-239
-221
-182
-134
-89
-57
-46
-62
-103
-168
-251
-343
-437
-523
-593
-643
-666
-662
-633
-585
-523
-457
-396
-348
-322
-323
-351
-405
-478
-560
-638
-699
-731
-725
-677
-590
-471
-333
-194
-72
15
57
46
-17
-122
-257
-404
-542
-655
-728
-753
-729
-662
-563
-448
-335
-239
-176
-153
-174
-235
-325
-433
-542
-636
-700
-726
-711
-659
-578
-481
-385
-303
-250
-233
-252
-304
-379
-464
-545
-608
-645
-649
-621
-565
-488
-401
-314
-237
-180
-146
-138
-156
-197
-254
-323
-393
-458
-510
-543
-554
-541
-504
-450
-385
-320
-263
-224
-209
-222
-263
-324
-396
-468
-526
-558
-559
-524
-458
-367
-265
-167
-89
-43
-38
-75
-152
-259
-381
-503
-608
-680
-712
-698
-642
-551
-438
-318
-209
-127
-81
-79
-120
-199
-306
-425
-539
-634
-695
-714
-687
-618
-517
-396
-272
-160
-73
-21
-8
-34
-92
-170
-257
-339
-402
-438
-441
-412
-354
-276
-189
-104
-32
16
36
25
-15
-79
-157
-238
-311
-367
-395
-391
-353
-284
-190
-83
27
125
198
236
233
187
104
-7
-129
-247
-342
-399
-408
-367
-279
-156
-16
124
242
324
360
347
288
195
84
-28
-123
-188
-212
-194
-136
-47
62
176
281
364
416
431
410
358
285
203
126
67
37
42
84
158
255
361
461
542
589
597
564
494
397
283
169
69
-4
-39
-34
13
95
203
320
431
519
570
573
523
426
290
134
-23
-159
-257
-303
-293
-229
-125
-1
124
227
292
309
276
200
95
-22
-134
-224
-281
-299
-278
-224
-149
-62
22
93
143
165
156
118
52
-35
-134
-235
-327
-399
-443
-450
-420
-354
-259
-148
-35
64
135
168
155
95
-3
-126
-257
-379
-474
-529
-537
-496
-415
-306
-185
-72
15
64
67
24
-57
-164
-280
-388
-470
-514
-513
-468
-384
-276
-158
-47
42
94
102
67
-7
-110
-227
-341
-434
-496
-516
-492
-427
-330
-215
-97
6
81
117
108
57
-29
-138
-257
-369
-461
-521
-542
-521
-462
-374
-268
-159
-61
12
51
51
13
-58
-152
-253
-348
-420
-459
-458
-417
-341
-243
-136
-38
37
78
77
35
-41
-142
-254
-360
-447
-503
-519
-493
-428
-333
-219
-100
8
92
139
143
103
22
-90
-218
-344
-452
-529
-563
-549
-491
-396
-278
-153
-39
51
105
119
91
28
-61
-161
-258
-341
-397
-419
-404
-355
-279
-185
-86
7
81
126
134
106
45
-41
-138
-233
-310
-357
-365
-329
-250
-138
-5
131
255
350
405
414
380
310
220
128
53
16
30
100
229
406
617
840
1055
1239
1377
1460
1485
1458
1395
1312
1231
1169
1142
1160
1224
1329
1463
1611
1755
1880
1971
2022
2029
1997
1934
1851
1765
1688
1634
1610
1621
1667
1742
1838
1943
2042
2124
2178
2197
2179
2125
2044
1944
1841
1746
1671
1627
1619
1648
1708
1793
1890
1986
2068
2126
2151
2142
2097
2024
1931
1829
1732
1651
1596
1575
1587
1630
1696
1773
1848
1905
1934
1925
1877
1792
1682
1557
1434
1330
1255
1217
1217
1248
1299
1352
1392
1404
1377
1308
1200
1062
910
762
635
543
496
499
546
630
735
846
945
1020
1061
1062
1024
952
854
743
629
524
437
375
342
336
356
395
447
503
555
595
616
615
590
543
480
406
332
267
219
195
197
224
272
334
398
455
493
507
491
446
377
292
203
122
63
32
35
73
141
228
324
413
481
520
523
487
418
327
227
135
65
31
39
92
184
303
435
563
669
738
762
737
666
558
428
294
172
77
19
2
26
82
159
241
312
359
371
345
282
188
74
-45
-154
-237
-286
-294
-262
-195
-102
2
103
185
237
250
222
156
59
-54
-169
-270
-342
-375
-364
-310
-222
-112
5
110
190
231
227
178
91
-21
-142
-256
-348
-404
-418
-385
-312
-207
-82
46
161
249
299
304
265
186
80
-42
-164
-268
-339
-367
-347
-280
-175
-46
90
214
309
359
358
305
209
83
-53
-178
-274
-325
-321
-264
-160
-27
118
251
355
414
419
372
282
162
34
-82
-168
-208
-197
-134
-26
111
261
403
517
589
609
576
492
368
222
70
-67
-172
-232
-241
-197
-107
17
157
295
411
493
530
520
468
383
282
181
98
46
34
62
126
215
317
415
496
546
559
535
476
392
295
199
117
62
41
57
111
195
300
414
524
616
680
709
701
656
584
493
397
308
239
198
190
215
269
345
432
519
596
653
685
689
667
622
563
498
435
385
352
343
358
395
450
517
586
651
702
734
743
726
687
629
560
489
421
368
335
328
349
395
460
539
618
688
737
759
749
709
646
571
498
441
411
418
462
538
634
736
826
890
915
897
838
747
636
524
426
357
326
336
385
467
567
674
773
850
895
903
872
805
709
596
478
370
284
233
221
251
318
415
526
637
733
799
827
812
757
668
558
442
334
250
199
189
217
278
363
458
547
617
656
660
627
562
474
379
290
223
186
187
224
291
378
472
559
624
660
660
623
556
466
365
265
179
116
84
87
124
191
279
376
469
544
590
600
569
500
400
283
163
57
-21
-60
-55
-6
78
184
299
405
490
541
553
524
459
367
259
150
55
-16
-52
-51
-11
59
151
249
336
398
420
397
326
214
75
-72
-208
-313
-372
-376
-324
-226
-96
44
174
271
321
318
261
159
27
-117
-251
-360
-428
-449
-422
-353
-253
-137
-22
77
147
180
172
125
46
-55
-166
-272
-361
-423
-451
-445
-406
-340
-257
-171
-92
-32
1
2
-29
-88
-167
-254
-338
-405
-446
-453
-425
-364
-277
-176
-76
11
70
95
79
27
-55
-153
-252
-336
-390
-406
-379
-312
-213
-96
22
124
198
235
231
190
123
43
-37
-101
-140
-146
-120
-64
13
100
185
260
314
344
347
323
277
215
145
74
13
-32
-53
-46
-10
54
139
237
336
424
490
523
516
472
397
301
199
107
40
10
23
80
173
291
418
537
632
690
706
677
609
513
402
291
195
128
97
105
149
222
313
406
489
548
573
560
510
430
329
223
127
55
17
20
63
141
244
358
467
557
614
632
608
546
453
344
232
134
63
30
39
89
173
280
393
496
572
610
603
553
463
348
223
105
12
-46
-60
-30
37
129
232
330
409
458
472
450
398
324
237
148
68
5
-37
-54
-48
-23
16
64
111
149
170
170
143
87
7
-91
-197
-298
-381
-435
-450
-423
-358
-263
-154
-48
37
86
88
40
-54
-182
-327
-470
-592
-678
-720
-714
-663
-578
-474
-368
-276
-210
-181
-194
-244
-326
-428
-537
-638
-717
-765
-775
-748
-687
-604
-511
-422
-351
-309
-302
-329
-387
-467
-555
-641
-711
-759
-781
-778
-755
-717
-676
-641
-617
-612
-627
-662
-714
-777
-844
-909
-964
-1002
-1018
-1009
-974
-916
-840
-753
-667
-592
-538
-513
-524
-569
-642
-735
-834
-926
-996
-1034
-1032
-991
-917
-820
-713
-614
-537
-492
-486
-520
-588
-679
-780
-874
-948
-991
-995
-960
-890
-795
-689
-586
-500
-444
-425
-446
-505
-595
-702
-814
-917
-998
-1047
-1057
-1027
-961
-866
-756
-643
-543
-470
-433
-439
-488
-574
-687
-811
-928
-1022
-1080
-1090
-1050
-965
-847
-711
-578
-467
-394
-370
-399
-474
-585
-712
-836
-936
-995
-1004
-960
-868
-741
-597
-457
-340
-262
-232
-255
-323
-427
-549
-670
-775
-847
-876
-861
-803
-711
-596
-473
-357
-262
-197
-171
-183
-231
-306
-397
-491
-573
-629
-650
-630
-570
-476
-358
-232
-114
-18
45
66
48
-5
-80
-162
-235
-284
-300
-275
-211
-114
6
137
264
376
463
517
539
530
498
452
405
368
354
370
420
505
618
749
886
1014
1118
1187
1213
1196
1141
1057
958
860
777
722
704
724
781
869
976
1092
1203
1300
1371
1412
1418
1392
1336
1256
1164
1069
984
920
884
883
916
978
1060
1148
1226
1279
1298
1275
1210
1111
990
865
753
670
629
634
683
767
871
977
1065
1121
1133
1097
1019
907
779
652
545
472
443
461
522
613
721
827
912
964
973
936
857
745
613
477
352
252
185
156
165
207
273
352
430
495
535
542
511
442
339
212
73
-61
-175
-256
-292
-280
-221
-124
-4
121
233
315
356
349
293
198
77
-54
-177
-272
-330
-342
-309
-237
-138
-28
76
157
203
206
167
92
-7
-114
-209
-276
-301
-279
-208
-97
40
186
323
433
503
526
501
435
338
226
115
23
-36
-51
-16
72
210
393
610
851
1102
1352
1588
1801
1986
2139
2263
2361
2440
2506
2568
2632
2700
2771
2840
2900
2941
2951
2923
2850
2728
2560
2354
2122
1877
1637
1418
1231
1087
989
934
913
914
924
926
909
863
785
677
548
408
270
148
50
-16
-51
-58
-44
-20
1
10
0
-35
-96
-177
-273
-376
-475
-561
-626
-663
-670
-648
-599
-530
-452
-375
-311
-268
-255
-276
-327
-404
-496
-587
-664
-712
-723
-695
-629
-536
-432
-334
-258
-218
-223
-273
-360
-470
-586
-689
-763
-796
-784
-730
-641
-534
-423
-326
-254
-216
-218
-257
-328
-420
-521
-620
-706
-770
-805
-807
-777
-718
-637
-544
-450
-367
-305
-272
-273
-307
-369
-449
-535
-612
-670
-699
-697
-664
-604
-529
-448
-373
-316
-283
-279
-305
-357
-429
-514
-603
-685
-750
-789
-795
-764
-697
-600
-482
-360
-249
-167
-126
-135
-196
-301
-436
-581
-715
-816
-869
-865
-805
-699
-563
-418
-285
-185
-129
-126
-173
-261
-377
-503
-621
-714
-771
-784
-753
-684
-587
-473
-357
-255
-179
-136
-131
-162
-223
-303
-391
-474
-539
-576
-579
-545
-478
-386
-279
-171
-76
-8
23
11
-42
-133
-249
-375
-492
-583
-636
-640
-595
-507
-389
-258
-134
-34
28
43
13
-55
-147
-247
-338
-404
-435
-426
-378
-297
-194
-84
21
107
164
186
173
127
56
-30
-118
-197
-253
-280
-273
-232
-162
-72
26
117
189
233
243
218
162
84
-3
-88
-157
-199
-208
-182
-122
-34
71
181
283
367
423
444
428
379
305
216
124
43
-15
-41
-31
13
87
181
280
373
446
491
502
480
431
363
288
219
167
143
150
188
255
341
436
526
599
645
657
630
567
475
363
246
139
56
9
4
42
118
221
335
444
531
580
584
541
456
341
213
91
-8
-68
-81
-45
33
141
261
373
457
500
492
433
327
189
37
-110
-233
-316
-350
-332
-266
-162
-36
94
211
298
345
345
300
216
105
-21
-143
-247
-322
-357
-349
-302
-223
-125
-21
73
143
180
177
135
61
-37
-146
-250
-337
-396
-419
-406
-358
-283
-191
-95
-6
63
103
108
78
14
-75
-180
-288
-386
-461
-505
-511
-482
-422
-341
-252
-169
-105
-71
-72
-107
-172
-257
-350
-437
-505
-542
-544
-509
-441
-348
-243
-139
-51
10
34
17
-39
-128
-236
-350
-453
-530
-569
-565
-518
-434
-326
-209
-100
-15
34
41
6
-64
-157
-260
-357
-433
-479
-490
-466
-411
-333
-243
-153
-73
-12
24
32
14
-28
-88
-157
-227
-290
-338
-366
-372
-354
-316
-265
-208
-155
-116
-98
-107
-145
-206
-283
-366
-441
-498
-525
-518
-474
-400
-304
-199
-99
-17
36
52
31
-24
-106
-203
-302
-390
-455
-488
-487
-448
-379
-286
-184
-86
-5
46
59
29
-40
-140
-258
-376
-477
-545
-569
-543
-471
-362
-230
-96
22
107
147
138
80
-17
-136
-261
-373
-457
-502
-502
-460
-384
-287
-185
-93
-26
5
-4
-51
-129
-228
-332
-426
-496
-531
-527
-484
-407
-307
-198
-94
-9
45
61
38
-20
-106
-207
-310
-401
-469
-504
-504
-468
-404
-319
-226
-137
-64
-17
-3
-21
-71
-145
-235
-327
-409
-469
-499
-492
-448
-372
-272
-163
-57
30
85
101
74
10
-84
-191
-294
-378
-427
-433
-393
-312
-202
-79
42
141
207
232
213
155
68
-35
-139
-229
-295
-326
-320
-278
-204
-106
3
111
205
276
314
314
277
208
115
10
-91
-176
-230
-247
-223
-161
-70
38
147
241
309
341
335
294
226
143
59
-12
-58
-72
-51
4
83
178
276
364
430
466
466
430
361
268
161
53
-44
-115
-152
-151
-112
-40
54
156
252
328
372
378
344
274
177
65
-49
-152
-230
-277
-288
-263
-207
-130
-43
41
109
149
152
114
37
-74
-205
-340
-463
-558
-612
-618
-577
-496
-389
-275
-173
-100
-67
-80
-137
-227
-334
-439
-525
-576
-584
-548
-471
-367
-251
-140
-53
-4
0
-43
-130
-249
-385
-519
-635
-713
-746
-726
-657
-547
-410
-265
-130
-24
40
55
22
-52
-155
-270
-378
-464
-513
-519
-478
-397
-284
-152
-16
108
205
266
286
264
206
122
26
-68
-142
-185
-187
-143
-52
81
248
439
642
846
1045
1231
1402
1558
1699
1827
1948
2064
2177
2288
2398
2504
2602
2685
2746
2775
2764
2704
2591
2426
2216
1973
1715
1462
1236
1055
930
867
861
899
961
1024
1064
1064
1012
905
749
560
356
160
-9
-136
-211
-233
-209
-152
-78
-6
49
72
58
3
-88
-204
-331
-453
-557
-630
-662
-652
-602
-520
-417
-309
-209
-132
-87
-81
-113
-181
-276
-386
-498
-599
-678
-723
-732
-702
-639
-550
-449
-350
-267
-212
-195
-219
-281
-375
-487
-603
-704
-775
-807
-792
-733
-638
-520
-397
-286
-204
-162
-165
-213
-297
-403
-515
-615
-688
-724
-717
-669
-588
-484
-373
-270
-190
-144
-135
-165
-229
-317
-417
-516
-599
-657
-682
-669
-623
-549
-456
-359
-269
-200
-160
-155
-184
-243
-322
-410
-493
-557
-593
-597
-566
-506
-424
-332
-243
-169
-121
-107
-127
-182
-265
-366
-472
-569
-644
-687
-691
-654
-580
-479
-364
-252
-159
-98
-80
-106
-174
-273
-387
-498
-589
-647
-660
-627
-554
-451
-335
-225
-136
-82
-72
-107
-182
-285
-400
-510
-596
-644
-646
-598
-506
-380
-238
-98
22
105
141
128
68
-27
-143
-261
-364
-438
-473
-467
-421
-344
-249
-149
-59
11
51
56
28
-30
-111
-204
-296
-376
-431
-455
-440
-385
-295
-178
-46
85
201
286
330
328
282
200
94
-20
-126
-207
-252
-256
-219
-146
-50
57
160
245
301
322
307
262
194
115
39
-21
-55
-53
-15
58
157
272
386
485
554
585
571
515
424
311
195
91
16
-19
-8
49
144
265
395
515
609
664
672
632
550
436
304
173
60
-22
-64
-59
-11
73
180
296
403
487
537
545
512
441
343
229
115
14
-63
-110
-123
-105
-63
-5
57
111
149
161
145
100
30
-57
-151
-239
-311
-357
-368
-344
-285
-202
-106
-12
65
113
124
95
31
-59
-160
-257
-336
-384
-396
-370
-313
-234
-146
-63
5
48
61
44
-1
-69
-151
-238
-321
-390
-438
-459
-450
-410
-345
-260
-167
-79
-7
38
49
23
-37
-121
-219
-314
-392
-441
-453
-426
-364
-277
-175
-75
10
67
88
70
17
-65
-164
-267
-360
-428
-463
-460
-420
-348
-256
-157
-65
8
49
55
25
-37
-121
-214
-304
-379
-430
-451
-440
-400
-339
-265
-188
-118
-65
-34
-30
-53
-101
-166
-242
-317
-383
-429
-450
-440
-399
-329
-238
-136
-35
51
111
134
118
61
-30
-143
-263
-373
-457
-503
-502
-454
-366
-252
-129
-16
67
108
100
42
-56
-181
-314
-436
-530
-582
-586
-543
-460
-350
-226
-107
-7
62
94
86
42
-32
-125
-224
-314
-384
-423
-426
-389
-316
-216
-100
15
113
180
204
180
111
4
-126
-260
-380
-467
-510
-501
-444
-348
-229
-107
1
77
110
98
43
-45
-151
-256
-344
-403
-424
-404
-347
-262
-162
-61
27
89
116
105
57
-23
-124
-234
-337
-419
-469
-480
-448
-376
-275
-157
-38
64
134
162
143
81
-16
-133
-251
-352
-421
-449
-431
-369
-273
-159
-42
60
132
163
150
95
5
-106
-224
-333
-418
-468
-478
-447
-380
-288
-183
-81
6
66
91
80
35
-37
-127
-223
-315
-391
-444
-469
-464
-431
-376
-305
-228
-154
-93
-52
-39
-55
-100
-167
-247
-327
-394
-434
-439
-402
-326
-217
-89
42
158
243
286
280
229
142
34
-77
-174
-239
-263
-242
-180
-87
22
131
223
285
309
293
239
156
56
-45
-133
-197
-226
-219
-176
-102
-8
94
190
267
317
333
314
263
188
101
14
-61
-111
-129
-111
-58
23
123
230
330
412
465
483
463
408
327
230
131
41
-24
-55
-44
7
96
211
340
463
565
628
644
606
517
387
235
80
-56
-157
-208
-203
-146
-46
81
213
332
420
467
465
417
332
224
107
-2
-88
-142
-158
-137
-84
-10
74
152
211
239
228
176
86
-35
-172
-311
-435
-529
-581
-586
-543
-458
-346
-222
-103
-7
53
70
43
-23
-116
-220
-320
-400
-448
-459
-431
-370
-285
-191
-101
-29
14
20
-12
-78
-170
-275
-381
-473
-538
-564
-549
-494
-403
-289
-167
-52
41
100
118
93
30
-59
-163
-265
-350
-405
-422
-398
-335
-240
-123
0
117
213
280
311
304
262
190
100
6
-79
-139
-161
-136
-61
65
237
446
679
923
1165
1393
1598
1775
1923
2045
2144
2229
2304
2376
2448
2523
2597
2665
2720
2753
2755
2720
2642
2519
2357
2162
1949
1731
1525
1345
1201
1099
1039
1013
1010
1016
1014
990
935
845
721
570
406
243
98
-16
-90
-118
-103
-52
21
100
168
210
213
172
88
-32
-173
-319
-450
-550
-605
-609
-564
-477
-362
-237
-120
-28
25
34
-2
-78
-183
-302
-421
-528
-609
-656
-665
-635
-572
-483
-380
-277
-188
-126
-102
-119
-179
-273
-388
-506
-609
-680
-706
-679
-603
-488
-352
-215
-98
-20
8
-20
-97
-213
-351
-490
-611
-700
-745
-743
-696
-613
-506
-389
-277
-184
-120
-91
-101
-148
-224
-320
-421
-516
-590
-634
-639
-607
-540
-448
-344
-245
-164
-114
-103
-131
-194
-282
-383
-479
-554
-597
-598
-557
-479
-373
-254
-141
-49
9
24
-5
-76
-178
-295
-411
-511
-580
-609
-595
-543
-460
-359
-252
-155
-78
-29
-13
-30
-76
-145
-228
-318
-404
-478
-533
-563
-566
-541
-492
-425
-347
-269
-200
-151
-127
-132
-162
-213
-273
-332
-378
-401
-395
-360
-299
-221
-136
-57
4
40
45
20
-30
-98
-173
-244
-300
-335
-341
-320
-273
-206
-127
-46
27
83
115
119
94
45
-23
-100
-177
-241
-284
-297
-277
-224
-141
-39
71
174
257
308
317
284
210
109
-7
-118
-206
-253
-251
-196
-93
45
201
352
477
558
585
557
480
369
242
121
24
-33
-45
-12
59
155
259
355
429
473
483
461
413
351
285
227
185
167
175
208
263
334
413
492
560
611
636
631
597
535
452
356
262
179
119
91
99
141
212
303
401
491
561
599
601
563
489
389
272
154
48
-35
-83
-93
-62
1
88
184
273
340
373
364
313
225
112
-9
-122
-208
-256
-259
-218
-142
-45
55
140
196
211
182
113
13
-103
-219
-320
-392
-427
-421
-378
-304
-210
-109
-13
67
122
146
137
98
33
-51
-145
-236
-314
-370
-396
-389
-347
-276
-183
-80
17
96
142
149
111
33
-76
-200
-322
-422
-484
-496
-454
-364
-237
-90
55
178
259
287
256
172
48
-101
-251
-382
-475
-520
-510
-450
-352
-232
-108
-1
76
111
103
53
-28
-127
-230
-320
-388
-426
-431
-406
-357
-294
-227
-165
-118
-91
-87
-107
-147
-203
-267
-330
-385
-423
-437
-424
-384
-321
-240
-153
-69
-1
42
53
30
-26
-106
-199
-294
-376
-434
-458
-444
-394
-312
-208
-94
12
99
155
172
150
89
-1
-107
-216
-311
-379
-410
-401
-353
-275
-180
-84
-2
50
65
37
-31
-130
-245
-359
-457
-524
-551
-534
-476
-384
-271
-153
-44
41
93
105
78
16
-71
-171
-270
-354
-412
-434
-418
-366
-284
-184
-82
7
70
95
78
21
-68
-176
-287
-385
-455
-488
-479
-431
-350
-249
-140
-38
44
96
114
96
45
-32
-125
-223
-313
-385
-430
-440
-414
-356
-273
-176
-80
1
53
66
38
-27
-120
-226
-329
-411
-457
-460
-417
-334
-223
-100
16
108
163
172
136
59
-49
-173
-297
-405
-485
-528
-531
-495
-427
-337
-239
-145
-68
-18
-1
-18
-66
-138
-225
-315
-394
-453
-482
-477
-438
-369
-277
-176
-78
3
57
74
52
-8
-97
-206
-318
-419
-493
-529
-523
-474
-391
-283
-169
-62
20
67
73
38
-31
-121
-219
-309
-376
-411
-409
-371
-303
-217
-123
-35
36
81
97
83
42
-19
-91
-165
-231
-281
-308
-309
-285
-238
-174
-100
-26
39
86
110
107
77
25
-41
-113
-180
-229
-252
-243
-200
-126
-29
81
189
281
343
366
345
282
184
66
-54
-158
-228
-253
-229
-156
-47
81
210
319
392
418
394
327
227
110
-6
-102
-166
-189
-171
-115
-26
81
194
300
388
448
476
467
425
353
261
159
58
-28
-90
-118
-109
-63
14
111
213
305
373
404
392
336
241
121
-11
-137
-241
-311
-340
-325
-274
-198
-112
-33
25
51
40
-7
-82
-173
-268
-352
-413
-444
-440
-405
-343
-265
-182
-106
-48
-17
-18
-53
-118
-207
-308
-410
-499
-563
-591
-578
-526
-440
-332
-217
-112
-33
9
5
-43
-129
-241
-360
-471
-556
-605
-611
-575
-503
-406
-297
-192
-103
-42
-16
-27
-73
-146
-238
-334
-422
-487
-519
-508
-453
-356
-225
-73
83
224
334
398
411
373
293
185
71
-28
-92
-105
-57
54
224
440
688
951
1214
1464
1692
1891
2061
2203
2320
2417
2498
2568
2632
2693
2752
2808
2860
2900
2922
2914
2869
2779
2641
2458
2236
1989
1734
1491
1276
1102
978
902
868
863
871
875
863
824
754
655
535
403
270
149
50
-23
-64
-75
-60
-26
15
55
80
84
58
2
-84
-193
-312
-429
-527
-594
-620
-601
-539
-445
-331
-216
-117
-48
-20
-39
-100
-195
-309
-428
-535
-614
-655
-655
-614
-539
-441
-333
-231
-147
-94
-77
-99
-158
-247
-353
-464
-564
-640
-682
-684
-643
-566
-462
-346
-234
-142
-83
-66
-94
-164
-265
-381
-496
-593
-657
-678
-654
-588
-491
-376
-262
-166
-101
-76
-96
-156
-248
-357
-467
-562
-627
-653
-634
-574
-480
-366
-249
-146
-72
-39
-53
-110
-203
-318
-439
-549
-632
-677
-678
-636
-557
-452
-336
-223
-128
-63
-35
-47
-96
-177
-279
-389
-493
-580
-637
-656
-637
-582
-498
-396
-289
-192
-116
-72
-63
-90
-147
-224
-310
-394
-462
-505
-518
-496
-443
-363
-266
-161
-61
23
79
98
78
19
-72
-185
-304
-414
-499
-547
-549
-507
-427
-322
-208
-104
-26
15
13
-30
-104
-194
-284
-358
-402
-408
-374
-305
-210
-102
6
98
163
194
186
140
63
-36
-144
-246
-328
-379
-390
-356
-281
-170
-39
97
219
313
364
366
320
234
122
2
-106
-185
-219
-203
-136
-26
111
258
395
502
567
582
547
467
356
232
113
15
-47
-66
-39
28
124
236
349
446
516
550
546
507
441
359
274
201
150
131
146
195
272
368
470
564
638
682
689
660
596
507
403
298
204
132
90
81
105
157
227
305
380
442
481
492
473
427
360
279
195
120
62
30
26
51
99
159
223
276
308
311
280
218
132
33
-67
-154
-215
-243
-236
-195
-127
-43
43
119
172
195
183
137
61
-35
-139
-240
-325
-384
-407
-393
-343
-263
-165
-59
37
109
147
142
93
6
-108
-235
-357
-456
-518
-534
-502
-426
-318
-194
-72
31
100
126
109
50
-39
-143
-248
-338
-400
-427
-415
-367
-291
-198
-102
-17
45
73
64
18
-60
-159
-266
-366
-445
-491
-499
-467
-399
-306
-202
-103
-23
26
35
5
-61
-152
-256
-358
-441
-493
-506
-477
-410
-312
-197
-80
23
99
138
135
91
11
-91
-202
-305
-385
-433
-441
-410
-344
-253
-151
-50
36
97
126
120
82
17
-64
-153
-237
-306
-350
-365
-347
-299
-225
-134
-36
56
133
184
203
189
146
81
5
-69
-126
-153
-144
-93
-1
124
270
424
567
687
773
819
826
802
761
719
695
705
758
860
1008
1190
1391
1589
1766
1904
1989
2017
1993
1926
1833
1732
1642
1578
1553
1570
1626
1716
1826
1942
2050
2137
2194
2215
2202
2157
2089
2006
1919
1838
1770
1722
1697
1695
1714
1750
1795
1841
1881
1906
1911
1893
1850
1786
1706
1620
1539
1475
1435
1427
1451
1505
1579
1659
1730
1779
1795
1770
1705
1607
1487
1361
1243
1146
1081
1048
1047
1070
1104
1139
1163
1166
1143
1092
1015
914
795
662
522
381
246
122
18
-62
-111
-130
-118
-82
-32
19
57
69
46
-17
-115
-239
-375
-507
-616
-690
-722
-710
-661
-588
-507
-436
-389
-378
-407
-473
-567
-678
-790
-887
-958
-993
-990
-951
-884
-799
-710
-628
-568
-535
-534
-565
-620
-691
-767
-837
-891
-920
-920
-893
-842
-774
-699
-627
-569
-531
-521
-539
-582
-643
-715
-785
-844
-881
-890
-868
-817
-743
-655
-564
-481
-418
-382
-375
-397
-442
-502
-567
-623
-662
-676
-660
-614
-542
-451
-352
-257
-179
-130
-119
-149
-220
-326
-458
-599
-734
-847
-925
-958
-943
-883
-790
-676
-559
-456
-381
-344
-349
-394
-473
-573
-682
-786
-870
-926
-947
-931
-880
-802
-705
-604
-511
-438
-397
-395
-434
-510
-614
-732
-847
-941
-1000
-1011
-971
-885
-765
-627
-494
-384
-316
-299
-334
-415
-528
-653
-769
-860
-909
-912
-868
-786
-679
-564
-456
-370
-315
-298
-318
-367
-438
-519
-596
-659
-697
-703
-676
-619
-536
-438
-337
-245
-175
-134
-130
-161
-224
-309
-404
-495
-569
-616
-628
-604
-548
-465
-369
-271
-184
-118
-82
-80
-111
-171
-249
-334
-413
-474
-507
-506
-471
-405
-317
-220
-127
-51
-2
14
-4
-52
-120
-197
-271
-331
-368
-378
-360
-318
-258
-186
-114
-48
6
42
59
56
32
-9
-63
-124
-187
-244
-287
-311
-311
-285
-237
-172
-99
-28
28
60
62
32
-28
-109
-200
-289
-361
-406
-416
-390
-332
-250
-156
-64
13
63
80
61
11
-64
-152
-241
-318
-372
-397
-390
-354
-296
-225
-153
-93
-55
-45
-65
-112
-180
-259
-336
-399
-437
-443
-415
-356
-274
-179
-86
-7
47
66
46
-9
-90
-186
-284
-370
-431
-457
-446
-398
-322
-228
-130
-43
21
53
46
3
-73
-170
-277
-381
-469
-530
-557
-548
-506
-438
-354
-265
-186
-127
-99
-105
-146
-218
-312
-414
-511
-588
-635
-642
-610
-541
-445
-335
-227
-135
-74
-49
-67
-122
-208
-312
-420
-517
-590
-633
-639
-608
-544
-455
-352
-248
-154
-81
-37
-29
-57
-118
-205
-307
-409
-498
-560
-586
-570
-514
-427
-322
-215
-126
-69
-58
-96
-180
-301
-441
-580
-697
-776
-805
-778
-699
-578
-434
-285
-151
-49
8
15
-25
-104
-209
-323
-429
-512
-563
-574
-547
-488
-407
-315
-227
-153
-106
-90
-109
-161
-241
-340
-449
-555
-646
-709
-738
-727
-676
-590
-478
-356
-240
-147
-91
-81
-121
-204
-319
-448
-571
-668
-723
-728
-681
-590
-468
-335
-211
-115
-59
-52
-91
-170
-276
-392
-502
-591
-647
-665
-643
-589
-510
-419
-329
-253
-202
-182
-195
-241
-311
-396
-484
-562
-618
-646
-639
-599
-531
-446
-353
-268
-202
-163
-159
-189
-249
-333
-427
-521
-600
-655
-675
-659
-607
-525
-422
-313
-211
-131
-83
-75
-110
-181
-281
-394
-506
-601
-665
-689
-672
-618
-534
-435
-333
-243
-176
-139
-136
-164
-218
-290
-370
-449
-516
-564
-587
-581
-547
-488
-412
-329
-250
-187
-151
-149
-184
-253
-346
-450
-550
-629
-675
-681
-646
-576
-484
-385
-296
-233
-205
-215
-261
-333
-419
-502
-570
-610
-617
-591
-535
-457
-370
-286
-217
-173
-160
-180
-231
-307
-395
-487
-568
-629
-660
-658
-622
-556
-469
-370
-274
-191
-134
-111
-123
-171
-247
-341
-442
-534
-604
-641
-639
-597
-519
-415
-298
-183
-87
-21
4
-13
-70
-161
-272
-389
-496
-581
-633
-646
-619
-557
-471
-373
-277
-196
-142
-123
-142
-196
-278
-375
-474
-559
-619
-644
-628
-576
-495
-397
-296
-208
-144
-113
-119
-159
-228
-314
-405
-486
-547
-578
-576
-540
-476
-394
-304
-219
-153
-115
-110
-142
-205
-293
-393
-491
-575
-631
-653
-636
-582
-497
-394
-286
-187
-109
-62
-53
-82
-146
-237
-344
-455
-554
-632
-676
-682
-649
-583
-491
-386
-281
-193
-131
-105
-119
-170
-251
-350
-453
-545
-612
-643
-634
-585
-502
-396
-282
-176
-93
-45
-40
-79
-156
-262
-380
-494
-587
-645
-661
-633
-566
-470
-360
-252
-163
-105
-86
-108
-167
-253
-354
-456
-545
-608
-639
-634
-595
-528
-443
-352
-269
-204
-167
-164
-196
-257
-340
-431
-517
-583
-618
-615
-572
-493
-387
-267
-150
-52
13
35
11
-57
-159
-282
-408
-521
-605
-648
-643
-591
-499
-379
-249
-125
-25
36
51
19
-56
-162
-282
-401
-503
-575
-609
-604
-564
-496
-412
-323
-242
-178
-137
-124
-139
-179
-240
-315
-394
-467
-525
-557
-557
-521
-451
-355
-245
-138
-52
-4
-3
-54
-152
-284
-430
-567
-674
-734
-737
-683
-582
-452
-314
-190
-99
-54
-58
-109
-196
-302
-412
-509
-579
-616
-615
-578
-512
-425
-327
-231
-146
-80
-41
-31
-51
-98
-166
-246
-328
-400
-452
-476
-469
-432
-368
-288
-204
-126
-67
-35
-34
-64
-118
-188
-263
-330
-377
-397
-384
-338
-263
-168
-64
37
121
178
200
183
130
48
-51
-154
-245
-311
-340
-330
-280
-199
-98
10
107
181
221
224
191
129
47
-41
-122
-185
-221
-227
-201
-148
-74
11
98
174
231
261
262
232
176
102
22
-54
-112
-143
-140
-103
-35
55
155
250
328
377
391
368
312
230
131
28
-67
-146
-200
-224
-216
-178
-117
-40
44
122
183
219
222
192
131
48
-46
-135
-206
-248
-254
-224
-164
-86
-6
59
96
92
44
-46
-168
-309
-450
-576
-670
-722
-726
-684
-603
-497
-380
-271
-184
-131
-118
-148
-214
-306
-410
-509
-589
-639
-652
-630
-576
-502
-420
-344
-285
-252
-248
-271
-316
-374
-435
-489
-527
-545
-539
-509
-458
-391
-314
-237
-165
-107
-68
-54
-65
-101
-158
-228
-300
-361
-401
-410
-382
-316
-215
-90
45
176
285
360
394
385
338
266
186
120
89
114
207
374
612
909
1246
1598
1937
2239
2482
2650
2739
2753
2705
2612
2498
2381
2279
2204
2159
2141
2138
2136
2119
2072
1987
1859
1689
1488
1266
1042
830
645
497
394
333
310
317
341
370
393
398
381
337
268
178
74
-33
-136
-225
-294
-338
-357
-351
-328
-293
-254
-218
-194
-186
-197
-230
-283
-350
-427
-505
-576
-633
-669
-679
-660
-615
-548
-469
-389
-321
-277
-264
-287
-345
-433
-538
-647
-741
-807
-831
-810
-744
-643
-520
-392
-277
-193
-151
-155
-207
-297
-410
-529
-638
-719
-760
-756
-708
-623
-516
-405
-306
-235
-202
-212
-262
-343
-442
-541
-626
-683
-705
-690
-643
-573
-492
-413
-349
-308
-292
-303
-336
-386
-445
-505
-560
-606
-640
-658
-659
-643
-611
-563
-504
-438
-373
-317
-278
-265
-281
-327
-398
-485
-575
-655
-712
-735
-719
-665
-580
-477
-374
-284
-224
-204
-227
-289
-380
-486
-588
-670
-718
-721
-678
-595
-482
-354
-230
-126
-58
-35
-60
-128
-230
-349
-471
-579
-657
-696
-691
-643
-559
-451
-333
-221
-129
-68
-45
-62
-115
-195
-290
-387
-471
-532
-559
-551
-507
-435
-344
-246
-153
-78
-28
-9
-22
-64
-129
-207
-287
-358
-409
-433
-426
-389
-326
-246
-159
-79
-17
18
20
-11
-71
-148
-231
-304
-354
-370
-346
-283
-189
-74
46
154
235
278
279
237
160
59
-51
-155
-239
-292
-308
-287
-231
-149
-49
56
155
237
295
322
318
283
223
146
64
-13
-71
-102
-100
-62
8
101
206
309
396
454
476
460
409
333
247
166
104
73
80
125
203
305
416
522
605
656
667
638
573
482
378
277
192
137
119
142
203
292
398
504
598
665
697
690
645
569
473
372
278
204
159
148
171
223
296
379
461
531
579
598
583
534
455
354
239
123
19
-61
-107
-113
-79
-10
84
190
290
369
412
412
367
280
164
34
-91
-194
-259
-278
-250
-180
-81
32
141
227
280
289
254
179
76
-44
-162
-265
-339
-374
-370
-327
-252
-156
-52
45
121
165
172
138
70
-26
-135
-243
-337
-402
-431
-419
-369
-289
-189
-85
9
80
118
120
87
23
-59
-148
-230
-295
-334
-343
-320
-270
-199
-116
-33
38
91
115
106
64
-7
-98
-199
-296
-373
-419
-424
-385
-306
-197
-74
44
138
191
194
144
46
-84
-229
-366
-475
-542
-558
-523
-446
-339
-220
-107
-16
42
60
38
-19
-102
-200
-299
-388
-454
-489
-489
-452
-382
-285
-172
-59
42
115
150
141
88
-4
-121
-248
-367
-460
-513
-519
-476
-390
-276
-150
-30
66
126
140
108
36
-67
-185
-301
-400
-468
-497
-484
-431
-344
-238
-125
-22
59
106
111
74
-1
-105
-222
-337
-434
-497
-515
-484
-406
-292
-156
-19
101
185
220
201
132
22
-110
-246
-365
-448
-486
-473
-414
-321
-209
-95
2
68
97
83
30
-51
-150
-252
-346
-420
-464
-475
-454
-404
-333
-251
-169
-97
-45
-20
-24
-55
-108
-174
-240
-297
-333
-343
-324
-279
-214
-139
-66
-9
24
26
-5
-66
-149
-244
-338
-420
-477
-501
-489
-441
-363
-265
-159
-58
22
71
81
50
-19
-115
-226
-334
-423
-479
-493
-461
-387
-282
-161
-42
57
120
138
108
33
-76
-203
-333
-447
-531
-574
-570
-522
-436
-324
-200
-79
24
98
136
134
96
29
-58
-151
-238
-309
-354
-368
-350
-303
-233
-150
-64
14
77
116
127
110
67
3
-71
-146
-211
-255
-270
-251
-199
-116
-12
101
208
297
355
376
357
301
218
121
26
-51
-98
-104
-68
7
110
226
339
431
488
501
471
401
304
196
96
20
-19
-15
32
113
216
321
411
471
489
461
390
284
160
31
-84
-170
-218
-223
-186
-114
-16
94
202
293
355
382
369
317
232
122
-1
-125
-237
-328
-389
-418
-414
-381
-328
-264
-200
-147
-114
-107
-130
-181
-255
-343
-435
-519
-583
-617
-615
-577
-504
-406
-293
-182
-87
-22
4
-15
-77
-174
-294
-420
-533
-617
-659
-653
-599
-503
-380
-248
-127
-35
14
13
-37
-129
-246
-372
-487
-574
-620
-621
-578
-499
-397
-288
-185
-102
-48
-25
-33
-65
-114
-168
-217
-253
-269
-259
-224
-165
-87
4
97
186
260
314
343
348
333
310
293
297
337
428
577
786
1048
1350
1671
1988
2277
2517
2693
2796
2829
2802
2729
2630
2524
2426
2348
2293
2256
2231
2202
2156
2083
1975
1830
1652
1449
1234
1021
821
646
504
400
331
297
291
305
332
363
388
400
390
356
294
208
101
-17
-134
-240
-324
-376
-393
-375
-326
-258
-180
-110
-59
-38
-54
-106
-191
-299
-417
-530
-623
-684
-704
-681
-619
-526
-418
-309
-216
-154
-132
-152
-214
-306
-416
-527
-624
-692
-723
-714
-667
-589
-492
-390
-297
-224
-179
-169
-194
-251
-328
-417
-504
-579
-630
-651
-637
-590
-518
-429
-337
-255
-194
-164
-169
-208
-274
-358
-446
-526
-587
-618
-617
-586
-528
-453
-373
-298
-241
-207
-202
-225
-274
-340
-415
-487
-547
-587
-599
-582
-537
-469
-386
-299
-218
-156
-118
-111
-136
-191
-269
-360
-452
-532
-588
-613
-601
-552
-472
-373
-267
-170
-95
-55
-54
-94
-167
-263
-368
-465
-540
-582
-585
-547
-476
-380
-275
-174
-92
-37
-17
-35
-86
-163
-258
-357
-447
-520
-566
-580
-561
-512
-442
-360
-278
-206
-155
-130
-132
-158
-200
-249
-293
-324
-333
-318
-281
-228
-166
-106
-56
-24
-14
-27
-61
-112
-172
-232
-284
-323
-340
-334
-303
-249
-176
-92
-5
74
134
168
171
143
89
17
-62
-135
-189
-215
-207
-165
-93
-1
101
197
277
329
346
325
270
188
91
-7
-93
-153
-176
-157
-97
-2
117
243
358
447
498
502
460
379
273
160
55
-23
-64
-62
-17
65
172
292
409
511
586
630
638
611
554
472
378
282
194
125
86
82
113
174
258
351
438
506
544
544
506
438
348
254
169
106
75
79
113
170
238
305
358
388
391
367
321
258
187
115
51
-1
-36
-53
-55
-41
-16
17
52
84
109
121
118
97
60
10
-49
-107
-158
-194
-210
-204
-176
-131
-78
-25
19
46
49
26
-22
-88
-165
-243
-312
-360
-382
-373
-334
-270
-188
-99
-15
52
92
99
69
6
-80
-179
-277
-360
-418
-442
-430
-386
-318
-237
-156
-89
-43
-26
-37
-74
-129
-193
-255
-307
-341
-354
-344
-312
-261
-199
-131
-64
-6
36
56
51
20
-34
-106
-186
-263
-325
-362
-367
-337
-273
-186
-85
12
91
139
146
110
34
-70
-190
-309
-409
-478
-506
-489
-431
-341
-232
-119
-16
63
109
117
88
28
-54
-145
-235
-310
-362
-384
-376
-337
-275
-198
-115
-36
29
71
84
67
21
-49
-134
-224
-304
-365
-396
-391
-349
-274
-176
-68
33
114
162
167
129
53
-51
-168
-280
-369
-422
-432
-397
-320
-214
-95
21
118
181
203
180
116
20
-94
-211
-314
-387
-422
-411
-357
-265
-150
-25
92
183
234
240
200
118
9
-112
-226
-313
-361
-359
-308
-213
-85
57
196
314
397
436
432
389
319
237
161
104
80
98
159
258
388
535
687
829
949
1039
1095
1118
1111
1084
1047
1012
992
994
1026
1092
1189
1311
1448
1589
1720
1826
1899
1929
1915
1861
1775
1670
1562
1467
1399
1368
1377
1424
1500
1592
1685
1764
1816
1834
1816
1767
1696
1615
1538
1478
1442
1435
1456
1501
1561
1626
1688
1735
1763
1766
1743
1695
1626
1543
1454
1367
1292
1238
1210
1212
1243
1299
1368
1440
1501
1536
1537
1497
1418
1305
1170
1027
892
779
698
652
642
661
697
735
763
768
740
675
576
448
301
151
12
-100
-176
-205
-185
-120
-22
97
218
323
394
419
391
311
187
33
-135
-298
-438
-541
-598
-607
-571
-500
-405
-302
-207
-132
-89
-83
-118
-189
-289
-407
-527
-633
-712
-753
-748
-699
-612
-500
-379
-266
-180
-132
-128
-168
-243
-339
-440
-529
-591
-616
-599
-545
-462
-363
-262
-173
-110
-79
-86
-128
-199
-288
-383
-471
-540
-578
-580
-543
-471
-370
-255
-140
-41
27
55
37
-25
-123
-242
-366
-477
-561
-605
-606
-565
-494
-406
-316
-243
-199
-193
-229
-304
-408
-531
-656
-767
-853
-903
-911
-877
-806
-705
-589
-471
-365
-282
-233
-220
-244
-298
-374
-459
-539
-604
-643
-652
-629
-579
-508
-425
-341
-269
-217
-193
-201
-242
-313
-407
-516
-627
-726
-800
-839
-835
-785
-692
-567
-423
-277
-150
-58
-13
-20
-79
-178
-301
-428
-537
-609
-633
-602
-520
-397
-253
-106
21
109
146
126
52
-65
-209
-361
-499
-605
-665
-673
-628
-538
-417
-281
-151
-41
33
66
56
11
-59
-142
-220
-280
-311
-309
-272
-206
-119
-24
65
137
183
196
176
123
47
-42
-131
-208
-261
-280
-262
-207
-119
-9
111
222
312
367
377
340
260
148
18
-112
-224
-302
-335
-317
-252
-150
-25
106
223
311
357
358
315
236
133
24
-76
-152
-193
-194
-153
-78
21
131
238
326
383
401
375
310
212
95
-26
-134
-215
-256
-251
-201
-113
1
123
237
327
379
387
351
277
177
64
-46
-140
-206
-240
-240
-209
-154
-82
-4
72
137
185
211
212
189
144
82
11
-58
-116
-154
-163
-141
-89
-14
75
163
237
282
289
254
179
75
-46
-165
-264
-329
-349
-322
-251
-147
-26
94
195
263
288
268
206
114
5
-104
-198
-266
-298
-293
-255
-193
-119
-45
17
58
72
60
23
-29
-89
-145
-188
-210
-206
-174
-117
-39
52
145
230
294
330
332
298
231
137
29
-81
-179
-252
-290
-288
-247
-173
-76
29
128
203
246
249
212
139
39
-74
-183
-275
-338
-362
-344
-288
-200
-94
18
119
197
242
249
218
157
74
-16
-99
-162
-197
-198
-167
-110
-37
38
103
146
158
137
85
8
-82
-175
-256
-316
-346
-344
-310
-247
-162
-66
32
121
192
236
247
225
172
92
-4
-104
-195
-262
-294
-285
-235
-149
-38
81
190
271
312
304
247
148
21
-118
-248
-354
-421
-443
-418
-351
-254
-139
-21
86
170
221
238
218
168
95
9
-78
-154
-207
-231
-222
-181
-114
-29
62
144
205
237
234
196
128
40
-57
-149
-223
-268
-277
-249
-188
-102
-4
94
176
232
253
236
181
96
-7
-113
-207
-276
-312
-308
-265
-191
-97
3
93
162
198
195
154
82
-10
-109
-200
-268
-303
-297
-249
-165
-56
65
179
270
324
331
290
205
87
-46
-177
-285
-354
-375
-346
-270
-158
-27
104
216
294
326
309
246
146
24
-104
-219
-305
-352
-352
-307
-223
-113
10
126
222
283
302
277
211
114
0
-116
-219
-296
-338
-342
-307
-242
-155
-59
34
111
162
182
169
127
62
-18
-100
-171
-222
-243
-231
-185
-112
-23
69
149
206
229
214
162
81
-14
-110
-189
-238
-248
-216
-147
-52
56
158
240
287
292
254
178
73
-46
-164
-266
-341
-380
-379
-340
-267
-169
-58
54
156
237
287
302
282
228
148
52
-45
-133
-200
-236
-237
-203
-138
-54
39
126
193
231
235
202
137
48
-52
-150
-233
-287
-306
-285
-228
-140
-34
78
178
252
291
289
244
165
63
-49
-152
-234
-282
-292
-261
-197
-108
-10
84
162
211
225
202
145
62
-39
-144
-239
-313
-355
-360
-325
-255
-158
-47
63
156
220
244
227
170
84
-18
-119
-201
-249
-257
-221
-147
-47
64
168
250
297
301
264
190
92
-17
-121
-206
-260
-278
-258
-206
-130
-41
49
126
183
213
213
187
138
74
7
-56
-106
-137
-144
-126
-87
-31
34
100
158
199
217
208
171
111
33
-53
-135
-203
-246
-258
-235
-180
-98
1
102
193
259
291
285
240
160
57
-55
-163
-250
-304
-318
-291
-226
-132
-23
86
181
248
279
271
227
155
66
-25
-105
-161
-184
-172
-125
-49
44
142
229
294
327
322
278
203
107
2
-97
-175
-221
-227
-191
-119
-19
94
207
302
367
394
379
325
241
141
39
-49
-109
-133
-117
-63
21
123
228
323
394
432
434
400
335
248
152
60
-17
-70
-93
-84
-44
20
101
187
268
332
372
383
365
320
257
186
120
70
48
61
110
193
300
418
534
631
696
720
700
639
545
432
316
215
141
106
113
160
239
338
441
534
603
638
634
594
523
433
333
238
161
110
88
99
139
204
283
368
447
508
543
544
507
433
328
201
67
-56
-151
-205
-207
-156
-57
74
216
343
433
467
435
339
188
1
-194
-371
-505
-577
-581
-519
-403
-253
-94
49
157
213
212
156
57
-69
-202
-319
-405
-445
-434
-374
-275
-152
-24
90
172
211
200
142
46
-76
-205
-324
-416
-472
-486
-456
-388
-292
-179
-62
47
136
198
229
227
197
145
79
11
-47
-83
-89
-58
10
111
235
371
505
624
720
787
827
848
865
894
952
1052
1203
1407
1658
1942
2241
2533
2796
3012
3167
3254
3274
3233
3144
3021
2878
2728
2581
2443
2317
2203
2097
1996
1898
1799
1699
1595
1489
1380
1268
1155
1041
930
824
727
645
580
535
510
502
505
510
508
489
446
375
276
154
19
-115
-235
-327
-381
-392
-361
-296
-210
-117
-34
23
45
27
-30
-116
-220
-323
-411
-472
-495
-481
-432
-360
-279
-201
-141
-108
-107
-138
-195
-271
-354
-436
-506
-558
-586
-589
-567
-522
-458
-380
-293
-207
-129
-67
-32
-28
-60
-125
-216
-325
-435
-530
-596
-622
-602
-538
-441
-325
-212
-121
-68
-65
-115
-211
-340
-481
-613
-716
-774
-780
-733
-643
-522
-389
-263
-160
-95
-71
-88
-141
-219
-308
-395
-467
-518
-540
-533
-500
-446
-378
-306
-238
-183
-147
-134
-146
-180
-233
-299
-370
-439
-496
-534
-547
-534
-494
-431
-353
-270
-194
-137
-109
-114
-154
-225
-316
-413
-499
-560
-583
-562
-497
-396
-276
-155
-52
15
35
4
-73
-185
-315
-444
-552
-626
-656
-639
-580
-487
-371
-247
-128
-25
52
96
105
78
19
-66
-169
-278
-379
-462
-515
-530
-504
-441
-349
-240
-131
-37
28
55
41
-10
-90
-184
-276
-353
-402
-416
-393
-339
-261
-171
-82
-7
44
65
54
13
-52
-128
-204
-266
-302
-303
-264
-189
-86
31
148
246
311
334
311
247
154
48
-54
-134
-180
-184
-147
-73
24
131
233
316
370
392
381
341
279
206
133
70
27
10
24
68
139
229
330
428
511
569
594
583
538
464
373
279
195
135
107
117
162
237
332
434
528
601
644
651
621
558
472
374
277
197
144
125
144
199
282
384
490
586
657
694
690
645
564
458
340
225
127
58
26
32
74
143
226
310
380
426
438
413
354
269
169
67
-24
-92
-125
-121
-81
-11
79
176
264
331
365
360
316
235
129
9
-109
-211
-283
-316
-305
-251
-164
-57
55
155
227
257
241
178
76
-52
-188
-312
-407
-459
-462
-415
-326
-210
-87
24
105
144
134
77
-19
-141
-269
-387
-476
-526
-532
-493
-416
-313
-199
-89
4
68
97
89
46
-23
-111
-205
-294
-366
-413
-431
-417
-374
-307
-225
-137
-56
9
48
57
35
-16
-88
-171
-255
-326
-374
-393
-379
-335
-267
-184
-99
-24
31
59
55
20
-41
-119
-203
-284
-351
-397
-416
-407
-371
-314
-245
-175
-112
-68
-49
-60
-100
-164
-243
-325
-397
-450
-471
-457
-408
-328
-229
-122
-24
51
93
93
49
-34
-148
-278
-408
-520
-599
-631
-610
-536
-419
-271
-115
30
141
202
203
144
33
-114
-272
-419
-531
-593
-595
-539
-436
-303
-161
-33
63
113
110
59
-32
-150
-277
-395
-490
-549
-568
-545
-485
-397
-294
-189
-95
-24
15
18
-15
-79
-163
-258
-351
-427
-476
-492
-473
-421
-344
-253
-161
-79
-18
12
9
-28
-95
-183
-278
-370
-445
-493
-509
-489
-436
-358
-265
-172
-91
-33
-7
-17
-60
-129
-214
-303
-383
-442
-473
-473
-444
-391
-323
-251
-187
-140
-116
-117
-144
-190
-249
-312
-367
-405
-419
-403
-357
-286
-195
-96
-1
79
131
148
129
75
-5
-99
-194
-274
-326
-343
-321
-264
-181
-84
11
91
143
162
144
96
24
-58
-139
-207
-253
-271
-260
-222
-164
-94
-21
43
92
118
117
88
35
-37
-119
-198
-264
-306
-316
-288
-225
-132
-17
106
219
311
367
383
355
289
194
86
-21
-110
-170
-195
-181
-133
-56
36
133
221
289
330
338
315
264
191
106
20
-56
-113
-143
-141
-108
-47
33
119
199
259
290
283
239
160
56
-60
-173
-271
-342
-377
-376
-342
-283
-210
-135
-73
-31
-18
-37
-86
-160
-249
-343
-429
-496
-535
-539
-508
-444
-358
-263
-172
-98
-54
-47
-77
-140
-227
-325
-418
-493
-541
-556
-539
-494
-431
-363
-300
-254
-231
-235
-265
-318
-387
-463
-537
-599
-642
-658
-645
-602
-532
-440
-336
-231
-138
-67
-29
-27
-64
-132
-222
-321
-413
-480
-512
-501
-444
-349
-225
-89
43
154
230
265
257
214
149
77
15
-19
-9
55
176
354
582
848
1136
1430
1713
1969
2186
2358
2480
2554
2587
2587
2567
2538
2508
2485
2468
2455
2439
2410
2357
2270
2143
1976
1775
1548
1313
1086
883
720
604
539
519
535
573
614
645
649
620
554
453
327
186
45
-82
-185
-254
-286
-284
-251
-199
-137
-79
-34
-12
-19
-57
-123
-212
-315
-419
-513
-586
-627
-633
-602
-540
-454
-358
-264
-188
-141
-131
-160
-227
-322
-434
-547
-646
-718
-755
-750
-705
-624
-521
-408
-301
-213
-157
-141
-166
-228
-320
-429
-538
-633
-700
-728
-715
-661
-575
-470
-362
-268
-202
-176
-194
-256
-354
-474
-599
-712
-797
-843
-841
-794
-707
-592
-464
-341
-239
-170
-143
-159
-215
-300
-403
-507
-597
-659
-687
-675
-626
-546
-448
-345
-252
-181
-144
-145
-184
-257
-354
-461
-564
-648
-701
-714
-685
-616
-516
-396
-272
-159
-74
-27
-24
-66
-146
-253
-370
-481
-570
-624
-635
-604
-537
-443
-341
-245
-172
-132
-131
-166
-231
-312
-396
-467
-515
-533
-518
-472
-403
-321
-236
-158
-96
-54
-37
-44
-76
-127
-195
-271
-349
-423
-482
-520
-529
-507
-453
-371
-271
-164
-64
14
59
64
28
-43
-139
-245
-342
-415
-451
-445
-395
-309
-200
-84
23
106
153
161
130
68
-14
-101
-180
-239
-269
-266
-231
-170
-91
-4
79
149
198
221
216
184
131
65
-5
-71
-121
-148
-147
-116
-58
20
109
197
272
324
345
333
289
223
143
63
-4
-47
-58
-36
18
97
188
281
363
423
453
451
416
355
278
196
123
70
47
59
106
183
280
383
477
547
582
575
525
439
329
210
99
14
-36
-44
-11
56
146
241
327
389
419
411
366
291
196
93
-5
-87
-145
-171
-167
-133
-75
-1
80
156
216
251
255
225
162
73
-32
-139
-236
-308
-345
-341
-296
-217
-115
-5
95
169
206
200
150
64
-47
-166
-278
-367
-422
-437
-413
-356
-276
-188
-103
-36
3
10
-16
-72
-149
-238
-326
-405
-463
-494
-493
-461
-402
-323
-233
-146
-70
-18
4
-8
-55
-131
-226
-328
-423
-497
-539
-542
-505
-433
-335
-225
-119
-33
23
40
17
-43
-130
-230
-328
-410
-464
-482
-464
-412
-336
-248
-161
-88
-38
-18
-30
-71
-133
-207
-283
-349
-397
-421
-418
-389
-336
-268
-192
-118
-55
-13
2
-14
-60
-133
-227
-329
-427
-507
-558
-572
-545
-481
-387
-276
-162
-62
11
48
45
4
-66
-154
-245
-324
-380
-405
-394
-349
-276
-186
-92
-5
60
95
93
54
-20
-118
-227
-335
-425
-484
-504
-481
-419
-327
-218
-110
-18
45
69
53
0
-80
-174
-267
-344
-395
-412
-392
-341
-265
-176
-86
-8
48
72
62
18
-54
-144
-241
-331
-401
-443
-451
-426
-370
-293
-207
-122
-53
-9
5
-14
-64
-138
-228
-324
-416
-493
-548
-574
-568
-532
-468
-385
-293
-205
-131
-82
-66
-84
-133
-206
-292
-375
-441
-481
-486
-456
-394
-312
-220
-131
-58
-12
3
-15
-60
-127
-205
-284
-354
-404
-429
-424
-387
-323
-240
-145
-53
24
74
88
62
-3
-101
-217
-334
-437
-509
-537
-519
-455
-355
-235
-113
-7
67
97
81
20
-75
-191
-311
-416
-493
-529
-520
-467
-379
-268
-148
-37
52
107
120
91
25
-68
-173
-276
-362
-418
-436
-414
-353
-263
-155
-45
53
126
163
160
117
40
-61
-171
-274
-356
-404
-409
-372
-294
-186
-59
69
183
271
322
332
302
237
149
51
-44
-124
-177
-197
-182
-136
-65
20
106
181
231
250
232
181
104
11
-81
-157
-203
-211
-177
-103
2
123
244
348
420
450
437
384
300
201
99
11
-50
-76
-65
-19
56
148
248
341
417
466
482
462
409
327
223
110
-1
-98
-168
-203
-197
-151
-70
34
148
253
334
375
370
318
224
103
-30
-154
-251
-308
-317
-279
-203
-103
3
95
157
179
155
88
-13
-136
-264
-382
-475
-535
-555
-537
-484
-405
-312
-219
-137
-77
-46
-50
-89
-159
-249
-349
-444
-521
-569
-577
-545
-475
-375
-261
-149
-55
6
25
-2
-72
-174
-292
-409
-506
-567
-584
-555
-485
-382
-264
-148
-49
19
49
39
-6
-76
-158
-238
-301
-337
-338
-302
-233
-138
-29
84
187
271
328
354
350
320
274
223
179
158
172
234
350
524
750
1020
1320
1631
1932
2203
2426
2591
2693
2735
2727
2684
2623
2561
2511
2479
2465
2462
2457
2436
2384
2291
2152
1967
1746
1504
1257
1026
827
674
572
524
523
559
615
674
721
741
724
664
565
430
273
106
-55
-195
-302
-368
-389
-369
-315
-239
-153
-72
-10
24
23
-15
-83
-175
-278
-380
-468
-530
-561
-555
-515
-445
-357
-265
-180
-116
-81
-81
-115
-179
-264
-357
-447
-520
-568
-583
-567
-522
-456
-378
-300
-234
-189
-172
-188
-236
-313
-407
-509
-605
-682
-730
-739
-707
-636
-535
-417
-299
-197
-126
-93
-104
-154
-234
-327
-418
-490
-531
-534
-498
-429
-339
-243
-157
-93
-63
-73
-121
-202
-309
-429
-550
-658
-741
-792
-803
-774
-708
-610
-493
-367
-250
-156
-96
-80
-108
-175
-271
-379
-482
-563
-608
-611
-572
-496
-397
-292
-198
-129
-94
-99
-138
-204
-283
-362
-428
-472
-486
-471
-428
-366
-293
-220
-156
-109
-84
-85
-112
-164
-234
-316
-400
-474
-529
-558
-553
-513
-441
-344
-234
-126
-32
33
61
48
-4
-88
-192
-299
-394
-462
-495
-487
-439
-358
-253
-137
-26
67
131
158
146
96
15
-87
-196
-296
-376
-422
-429
-392
-317
-214
-95
22
121
190
219
204
150
67
-33
-131
-211
-262
-273
-243
-176
-81
27
134
224
285
308
291
239
159
63
-34
-119
-179
-205
-193
-142
-58
49
166
279
375
442
472
463
416
340
244
145
55
-11
-45
-40
3
81
182
292
396
482
538
559
543
494
421
337
254
182
133
112
123
162
225
302
385
463
525
563
571
547
493
415
324
231
152
99
83
106
167
258
363
463
540
577
564
498
385
240
83
-64
-180
-250
-266
-227
-143
-28
98
216
309
363
372
337
264
162
45
-72
-177
-259
-309
-324
-303
-251
-176
-86
8
94
160
198
203
174
112
24
-79
-183
-275
-342
-374
-367
-321
-243
-142
-35
62
132
166
155
100
9
-104
-221
-323
-393
-420
-400
-335
-236
-120
-6
88
147
162
130
57
-46
-165
-283
-383
-454
-486
-479
-435
-360
-267
-167
-73
5
59
81
73
34
-29
-111
-201
-289
-366
-421
-449
-444
-406
-340
-252
-153
-58
20
69
79
48
-22
-119
-228
-332
-411
-451
-441
-382
-281
-155
-26
84
155
174
134
42
-88
-235
-378
-493
-566
-586
-554
-478
-370
-249
-131
-32
39
74
73
41
-17
-92
-172
-248
-312
-354
-370
-357
-315
-250
-169
-82
-3
56
87
83
42
-31
-127
-231
-331
-411
-460
-471
-443
-381
-295
-197
-101
-22
31
50
33
-17
-92
-181
-272
-351
-406
-428
-414
-364
-284
-184
-77
22
99
142
145
107
32
-69
-183
-293
-384
-442
-459
-435
-372
-283
-179
-78
6
61
79
59
6
-72
-164
