475
494
492
465
418
354
282
212
153
113
95
100
125
165
209
250
277
286
271
234
179
111
40
-26
-80
-116
-130
-125
-103
-71
-37
-7
12
14
-2
-36
-84
-141
-201
-256
-300
-328
-340
-335
-316
-288
-256
-225
-200
-184
-179
-183
-195
-213
-234
-254
-271
-285
-294
-298
-297
-291
-281
-268
-253
-236
-219
-204
-193
-187
-187
-192
-202
-215
-227
-236
-238
-230
-212
-183
-145
-102
-57
-16
18
41
50
43
23
-9
-48
-90
-130
-163
-186
-195
-191
-173
-145
-110
-74
-42
-17
-4
-3
-13
-34
-60
-88
-111
-126
-131
-123
-103
-74
-41
-7
21
40
48
43
29
7
-18
-39
-52
-53
-40
-13
26
73
122
167
204
226
232
222
197
162
121
80
46
21
9
11
26
52
86
122
157
187
208
219
219
210
192
170
147
128
116
114
123
143
173
209
247
281
308
325
331
327
314
299
284
275
274
283
302
328
360
392
420
443
456
460
455
441
421
398
374
352
337
330
335
353
382
419
462
504
538
558
559
538
496
439
372
306
252
218
210
232
282
353
437
521
596
651
681
683
659
615
558
498
442
398
369
357
360
374
396
419
440
455
462
460
451
435
415
394
373
355
341
334
334
343
360
385
414
446
476
500
515
518
507
483
449
408
367
332
308
298
303
322
351
385
416
439
450
447
430
405
375
348
330
326
338
366
406
454
503
546
577
592
590
572
542
504
466
432
407
394
396
411
437
471
510
548
583
612
633
645
648
642
629
612
593
575
562
558
565
585
617
660
711
766
820
868
907
932
943
940
924
899
870
840
813
792
777
768
764
763
761
756
745
727
703
672
635
596
556
518
483
452
426
404
387
373
361
348
335
320
301
278
251
220
187
153
121
92
68
52
45
48
60
79
104
132
160
184
203
214
216
210
196
176
153
129
105
82
62
43
25
9
-8
-23
-38
-51
-60
-65
-63
-55
-43
-27
-10
5
17
23
23
18
9
1
-7
-11
-12
-10
-9
-11
-19
-34
-56
-85
-116
-144
-165
-174
-169
-150
-119
-82
-45
-12
11
21
18
5
-14
-35
-51
-61
-61
-55
-43
-32
-26
-29
-46
-75
-116
-166
-218
-266
-306
-332
-339
-326
-292
-239
-169
-87
5
102
204
310
424
549
693
863
1066
1307
1591
1914
2273
2654
3044
3422
3768
4062
4285
4422
4464
4410
4262
4034
3741
3406
3050
2698
2369
2081
1841
1654
1514
1412
1332
1258
1174
1069
936
775
593
401
216
53
-75
-159
-197
-193
-157
-102
-45
0
22
15
-21
-81
-157
-237
-309
-362
-391
-394
-373
-336
-291
-249
-220
-210
-221
-254
-302
-356
-409
-449
-469
-465
-435
-384
-316
-242
-170
-108
-63
-38
-35
-52
-85
-130
-179
-227
-269
-302
-322
-329
-322
-303
-275
-239
-201
-165
-135
-114
-105
-108
-124
-149
-183
-219
-255
-286
-311
-326
-331
-327
-316
-300
-282
-265
-252
-245
-244
-251
-263
-279
-295
-308
-316
-316
-308
-293
-273
-251
-231
-216
-208
-208
-216
-230
-246
-261
-273
-278
-275
-265
-247
-223
-197
-171
-147
-128
-116
-113
-121
-138
-164
-195
-229
-260
-283
-295
-292
-274
-242
-201
-156
-115
-84
-67
-66
-82
-111
-149
-189
-225
-251
-264
-261
-244
-214
-176
-134
-94
-62
-43
-38
-51
-81
-124
-177
-232
-281
-318
-337
-332
-304
-255
-189
-116
-43
20
67
95
101
90
64
31
-2
-29
-45
-50
-43
-26
-3
23
47
67
80
87
87
82
74
64
56
50
48
53
65
85
111
144
181
219
257
290
315
328
329
316
292
259
222
187
160
145
146
166
202
253
314
379
441
495
537
564
577
577
565
547
526
505
487
475
468
468
473
482
493
505
516
523
527
528
525
519
512
505
500
498
502
511
525
543
562
580
593
597
591
573
542
502
455
407
364
331
313
313
331
365
409
455
495
522
529
512
471
410
334
251
170
100
45
8
-9
-11
-1
11
21
23
12
-13
-50
-96
-147
-198
-244
-281
-306
-321
-326
-324
-317
-310
-305
-306
-314
-330
-354
-384
-420
-459
-498
-536
-568
-593
-606
-607
-595
-570
-536
-497
-457
-423
-400
-394
-405
-434
-479
-534
-592
-646
-690
-719
-731
-725
-705
-675
-640
-606
-578
-558
-549
-551
-561
-577
-597
-617
-635
-648
-655
-654
-646
-631
-612
-590
-568
-549
-535
-529
-531
-541
-557
-578
-600
-620
-636
-646
-650
-647
-637
-621
-603
-583
-565
-550
-541
-540
-550
-571
-603
-643
-686
-727
-759
-778
-778
-758
-722
-673
-620
-572
-537
-520
-524
-547
-583
-623
-660
-685
-693
-684
-660
-629
-600
-579
-574
-585
-612
-650
-692
-731
-759
-773
-771
-754
-728
-698
-670
-648
-634
-630
-634
-645
-660
-677
-694
-712
-728
-742
-751
-752
-743
-721
-684
-634
-572
-505
-440
-386
-350
-338
-354
-395
-456
-529
-603
-666
-710
-728
-718
-681
-623
-554
-483
-420
-374
-349
-347
-366
-401
-446
-493
-535
-564
-578
-574
-554
-521
-480
-435
-393
-359
-337
-327
-329
-341
-360
-380
-396
-406
-406
-398
-381
-360
-339
-320
-307
-304
-311
-325
-346
-369
-391
-408
-420
-424
-421
-412
-397
-378
-355
-330
-304
-278
-252
-231
-215
-208
-211
-226
-251
-283
-319
-353
-379
-392
-391
-374
-342
-302
-259
-220
-193
-182
-190
-216
-257
-306
-354
-393
-417
-419
-400
-359
-301
-234
-164
-101
-49
-12
9
15
10
-1
-13
-23
-29
-31
-27
-21
-14
-8
-2
1
2
2
0
-4
-9
-16
-25
-35
-46
-54
-58
-54
-40
-15
20
63
111
158
199
230
246
247
232
204
168
131
99
79
77
97
140
203
282
368
451
523
573
594
585
545
482
403
319
243
186
153
148
169
209
260
311
353
379
383
364
326
273
212
151
96
50
17
-4
-13
-16
-14
-14
-18
-30
-50
-78
-115
-157
-199
-240
-275
-302
-320
-330
-332
-329
-325
-321
-321
-325
-333
-345
-358
-371
-381
-388
-390
-387
-380
-369
-354
-336
-316
-293
-271
-249
-231
-220
-217
-225
-243
-271
-307
-345
-381
-411
-430
-438
-433
-419
-400
-380
-365
-357
-361
-374
-395
-420
-443
-460
-467
-463
-446
-419
-386
-353
-323
-301
-290
-289
-300
-319
-343
-368
-391
-411
-425
-435
-439
-439
-436
-430
-420
-407
-389
-368
-346
-326
-311
-306
-317
-344
-389
-449
-517
-584
-639
-673
-676
-643
-575
-475
-351
-211
-67
77
217
357
505
674
876
1122
1419
1768
2160
2580
3006
3414
3777
4072
4282
4395
4408
4325
4154
3910
3610
3273
2917
2559
2216
1900
1620
1385
1195
1049
940
859
795
735
670
593
499
390
272
152
39
-58
-134
-185
-214
-226
-228
-227
-232
-249
-279
-321
-371
-424
-472
-507
-526
-525
-506
-473
-432
-388
-349
-323
-313
-321
-345
-381
-425
-468
-505
-529
-538
-530
-507
-472
-432
-391
-357
-335
-327
-337
-363
-402
-449
-498
-542
-574
-589
-583
-557
-511
-452
-384
-318
-262
-224
-209
-220
-255
-310
-378
-449
-514
-565
-595
-601
-584
-546
-494
-434
-374
-321
-281
-256
-249
-257
-279
-310
-347
-384
-419
-447
-468
-479
-480
-472
-456
-435
-410
-386
-364
-347
-336
-334
-339
-350
-365
-382
-396
-406
-409
-404
-391
-371
-347
-322
-300
-283
-274
-274
-283
-299
-320
-342
-364
-382
-394
-399
-396
-386
-368
-344
-317
-287
-257
-231
-210
-198
-196
-205
-223
-249
-278
-304
-323
-330
-322
-298
-260
-215
-167
-126
-98
-90
-103
-138
-188
-248
-306
-354
-384
-390
-371
-329
-272
-206
-144
-92
-57
-43
-49
-69
-98
-126
-145
-150
-136
-104
-58
-4
50
97
131
147
143
123
91
52
13
-18
-37
-41
-28
0
38
84
130
173
207
230
240
238
224
202
175
148
125
111
107
117
140
176
223
277
333
388
437
475
501
513
512
499
477
452
427
406
392
389
395
410
432
458
485
508
527
540
545
543
536
525
513
502
494
492
495
504
519
537
556
572
584
589
588
581
570
557
547
542
543
550
560
571
579
580
570
551
521
483
440
397
357
322
294
274
260
252
249
250
255
262
271
280
286
287
280
262
234
195
147
96
46
2
-34
-58
-72
-78
-81
-85
-93
-110
-134
-166
-200
-233
-261
-278
-285
-279
-265
-244
-220
-199
-183
-174
-173
-180
-194
-212
-234
-258
-283
-307
-329
-346
-357
-360
-352
-333
-305
-268
-228
-190
-158
-138
-134
-145
-171
-206
-247
-285
-315
-332
-333
-319
-295
-266
-237
-217
-209
-216
-238
-272
-312
-352
-384
-404
-409
-397
-371
-336
-299
-264
-239
-227
-229
-246
-272
-303
-335
-361
-379
-387
-385
-377
-365
-354
-345
-342
-343
-348
-354
-359
-360
-357
-351
-344
-338
-336
-339
-347
-359
-371
-379
-379
-368
-344
-311
-272
-235
-206
-192
-197
-222
-265
-320
-380
-435
-477
-500
-501
-482
-446
-401
-355
-315
-289
-279
-286
-309
-343
-383
-421
-452
-472
-479
-472
-452
-422
-385
-345
-306
-271
-243
-225
-218
-222
-237
-261
-292
-327
-360
-389
-408
-416
-410
-392
-363
-327
-289
-256
-232
-222
-227
-248
-282
-324
-367
-405
-433
-444
-437
-413
-376
-333
-289
-253
-229
-222
-232
-257
-292
-331
-369
-399
-418
-425
-420
-405
-383
-358
-333
-310
-291
-275
-263
-254
-248
-246
-248
-255
-267
-283
-303
-323
-339
-349
-348
-335
-310
-276
-237
-199
-169
-153
-153
-172
-205
-249
-295
-337
-367
-381
-376
-355
-323
-287
-255
-234
-228
-240
-268
-307
-349
-386
-412
-420
-411
-385
-349
-307
-267
-237
-221
-220
-232
-255
-281
-303
-317
-318
-306
-281
-246
-207
-170
-138
-115
-101
-97
-100
-107
-114
-120
-122
-120
-114
-106
-98
-92
-89
-90
-94
-100
-107
-113
-117
-117
-113
-105
-92
-75
-55
-32
-6
22
50
79
107
133
157
176
191
202
210
216
220
225
232
239
246
253
256
254
245
228
203
172
138
105
78
60
54
61
81
110
142
172
193
199
187
155
104
38
-38
-116
-190
-253
-301
-332
-345
-344
-332
-314
-295
-280
-272
-272
-281
-297
-319
-342
-365
-383
-397
-405
-409
-409
-407
-404
-403
-401
-399
-395
-388
-378
-365
-351
-339
-333
-336
-351
-378
-418
-465
-514
-558
-590
-605
-600
-573
-528
-470
-408
-348
-300
-270
-262
-276
-310
-362
-425
-492
-558
-615
-660
-687
-696
-685
-657
-613
-559
-499
-441
-391
-354
-334
-333
-352
-386
-430
-478
-520
-551
-565
-560
-535
-496
-449
-402
-365
-344
-344
-368
-413
-474
-546
-618
-683
-735
-767
-778
-769
-740
-696
-640
-577
-510
-444
-378
-312
-245
-173
-90
11
140
303
510
764
1066
1413
1796
2200
2606
2994
3343
3632
3847
3978
4021
3979
3858
3672
3434
3160
2864
2561
2262
1977
1713
1473
1260
1073
909
764
631
508
389
271
154
39
-70
-169
-253
-320
-369
-399
-416
-423
-426
-432
-442
-459
-481
-503
-523
-535
-535
-522
-498
-466
-433
-405
-389
-389
-406
-439
-484
-534
-581
-617
-637
-639
-624
-595
-558
-520
-489
-467
-458
-462
-475
-494
-515
-535
-554
-571
-587
-606
-629
-656
-685
-713
-737
-750
-749
-731
-698
-652
-598
-545
-498
-465
-449
-451
-470
-500
-535
-570
-598
-616
-623
-619
-606
-590
-575
-566
-564
-573
-589
-613
-639
-665
-686
-700
-706
-704
-695
-683
-672
-663
-659
-660
-668
-679
-692
-704
-712
-715
-711
-702
-688
-672
-656
-642
-633
-630
-633
-643
-658
-676
-696
-716
-734
-747
-753
-753
-745
-731
-712
-692
-672
-656
-646
-643
-648
-659
-675
-694
-712
-730
-744
-756
-764
-770
-774
-775
-773
-767
-758
-746
-731
-715
-701
-689
-682
-681
-686
-693
-701
-704
-699
-682
-653
-613
-564
-511
-461
-419
-390
-375
-376
-390
-413
-439
-462
-478
-482
-473
-451
-418
-378
-335
-293
-256
-225
-202
-187
-178
-174
-171
-167
-160
-148
-131
-108
-81
-50
-20
8
32
49
60
64
66
66
69
77
92
117
150
190
235
280
322
359
389
412
429
442
453
465
477
490
503
516
527
537
545
553
564
578
597
622
651
684
717
749
776
798
816
831
847
866
890
921
957
997
1036
1071
1097
1111
1112
1101
1080
1052
1022
995
974
963
961
970
985
1006
1026
1043
1053
1052
1039
1012
974
927
874
822
775
738
715
706
711
728
750
773
789
793
781
751
704
644
578
511
451
405
374
360
360
368
378
383
376
355
317
265
205
143
88
48
27
28
49
87
136
187
233
268
288
291
276
247
206
157
104
51
2
-40
-72
-93
-102
-100
-89
-71
-52
-36
-25
-24
-33
-51
-74
-98
-119
-133
-137
-132
-118
-99
-78
-60
-47
-41
-41
-45
-50
-56
-59
-60
-60
-60
-62
-68
-79
-93
-111
-129
-146
-159
-170
-177
-182
-189
-198
-211
-229
-250
-271
-289
-299
-298
-282
-251
-204
-145
-79
-13
47
92
117
117
92
44
-21
-94
-167
-229
-274
-296
-293
-270
-231
-184
-140
-106
-87
-87
-105
-138
-179
-222
-261
-289
-305
-306
-294
-271
-241
-208
-176
-149
-130
-121
-122
-134
-155
-181
-211
-241
-267
-287
-300
-304
-302
-296
-287
-278
-271
-265
-260
-254
-247
-237
-224
-209
-194
-183
-177
-177
-182
-192
-202
-208
-207
-197
-179
-154
-129
-110
-104
-116
-146
-194
-255
-322
-386
-437
-469
-479
-464
-429
-378
-319
-260
-208
-169
-145
-136
-143
-160
-183
-207
-226
-236
-236
-224
-201
-172
-141
-114
-97
-94
-107
-135
-175
-220
-264
-299
-319
-323
-310
-284
-251
-218
-191
-176
-175
-187
-207
-233
-257
-274
-283
-283
-274
-260
-243
-227
-213
-201
-193
-186
-181
-178
-177
-181
-190
-207
-231
-261
-294
-327
-355
-373
-379
-372
-353
-325
-293
-261
-235
-217
-208
-208
-214
-221
-227
-227
-219
-202
-178
-151
-122
-98
-80
-72
-74
-85
-102
-123
-144
-163
-177
-185
-188
-186
-179
-170
-159
-148
-136
-125
-116
-110
-107
-109
-115
-125
-136
-145
-149
-144
-127
-98
-56
-5
51
106
156
195
220
230
227
213
194
172
152
138
130
130
136
147
159
172
181
187
187
180
167
148
125
99
74
52
35
25
20
19
19
15
4
-16
-48
-91
-143
-198
-252
-299
-334
-355
-360
-350
-330
-303
-276
-253
-241
-242
-259
-292
-338
-395
-457
-519
-573
-614
-636
-638
-617
-576
-520
-455
-389
-330
-284
-256
-249
-260
-287
-324
-364
-401
-430
-447
-451
-442
-424
-401
-380
-365
-360
-368
-389
-422
-461
-503
-539
-565
-577
-573
-553
-521
-481
-439
-402
-375
-361
-361
-374
-397
-424
-452
-477
-495
-506
-511
-511
-510
-509
-510
-513
-516
-517
-514
-505
-488
-464
-435
-404
-376
-354
-341
-339
-348
-366
-391
-419
-447
-470
-487
-496
-497
-491
-477
-457
-430
-397
-354
-299
-230
-143
-35
96
254
440
657
906
1186
1495
1827
2174
2527
2871
3192
3472
3699
3858
3940
3940
3858
3701
3478
3204
2896
2570
2245
1937
1656
1412
1208
1043
912
808
720
639
557
468
369
262
154
51
-38
-107
-152
-172
-170
-154
-133
-114
-106
-113
-136
-170
-211
-251
-282
-301
-305
-297
-280
-262
-249
-245
-253
-273
-301
-331
-356
-370
-368
-349
-313
-264
-209
-158
-117
-94
-96
-123
-175
-246
-328
-409
-478
-526
-544
-531
-488
-423
-348
-274
-215
-182
-178
-205
-254
-315
-374
-419
-438
-426
-384
-319
-240
-161
-93
-44
-21
-23
-45
-80
-121
-160
-192
-214
-226
-232
-233
-232
-230
-228
-224
-216
-204
-187
-167
-147
-130
-120
-120
-131
-152
-178
-206
-231
-247
-252
-246
-228
-202
-172
-143
-118
-101
-92
-91
-96
-104
-112
-118
-120
-116
-110
-101
-92
-86
-84
-89
-99
-112
-128
-143
-155
-160
-157
-145
-124
-95
-60
-23
14
46
70
84
85
74
51
21
-12
-44
-71
-87
-92
-84
-64
-37
-6
25
50
66
71
66
51
29
2
-26
-53
-76
-94
-104
-105
-95
-73
-39
7
63
126
191
252
305
345
368
374
364
343
314
284
257
237
227
227
236
253
275
300
327
353
378
398
414
422
424
419
409
397
387
384
390
408
439
480
525
569
607
634
647
646
635
618
599
584
575
573
579
589
601
612
621
629
637
646
659
677
699
723
748
769
783
790
790
784
774
764
755
749
744
738
730
718
703
685
669
658
658
671
699
740
789
841
887
921
937
934
911
872
822
767
715
668
631
604
586
575
569
565
560
554
545
532
515
493
466
432
392
346
296
245
197
154
122
102
98
107
128
156
186
210
224
221
200
160
104
38
-31
-95
-145
-177
-187
-176
-147
-106
-63
-27
-5
-4
-26
-69
-130
-200
-270
-331
-373
-392
-386
-356
-309
-252
-195
-148
-115
-103
-111
-137
-175
-218
-257
-287
-303
-302
-286
-259
-225
-192
-164
-146
-141
-150
-170
-199
-230
-261
-285
-300
-303
-292
-270
-238
-199
-158
-119
-87
-66
-58
-65
-89
-126
-173
-225
-276
-322
-358
-379
-386
-379
-359
-331
-300
-269
-244
-226
-218
-219
-228
-243
-261
-282
-304
-324
-341
-354
-364
-368
-366
-357
-341
-321
-298
-275
-257
-246
-245
-256
-278
-309
-344
-378
-403
-416
-412
-390
-352
-302
-249
-198
-158
-133
-128
-143
-175
-219
-270
-320
-365
-399
-421
-430
-428
-418
-402
-383
-364
-346
-331
-319
-310
-302
-296
-289
-280
-266
-249
-226
-200
-172
-145
-124
-113
-117
-137
-175
-227
-289
-353
-412
-457
-484
-487
-469
-431
-381
-327
-278
-240
-219
-217
-231
-258
-290
-321
-344
-355
-352
-335
-306
-267
-223
-178
-137
-103
-79
-67
-68
-82
-107
-141
-178
-213
-239
-253
-250
-228
-190
-140
-85
-35
0
15
3
-35
-96
-173
-256
-336
-404
-452
-478
-482
-465
-434
-394
-352
-312
-278
-251
-232
-218
-208
-201
-195
-187
-177
-165
-148
-128
-105
-81
-57
-37
-22
-15
-17
-29
-48
-72
-97
-118
-132
-135
-127
-108
-80
-47
-14
16
40
56
63
63
57
48
38
28
21
15
12
9
6
2
-5
-13
-21
-27
-29
-24
-11
10
39
73
107
139
165
181
188
185
177
166
157
154
159
176
203
237
276
316
353
384
408
424
432
434
432
426
420
415
410
406
402
397
391
383
372
360
349
340
335
336
345
360
379
399
417
428
427
412
384
342
290
231
172
114
63
19
-17
-44
-63
-74
-77
-73
-62
-45
-23
0
20
31
30
12
-22
-71
-129
-189
-244
-287
-312
-318
-305
-279
-247
-216
-192
-181
-184
-200
-224
-251
-275
-292
-299
-295
-281
-260
-236
-214
-198
-190
-190
-197
-210
-226
-242
-255
-264
-268
-268
-265
-260
-254
-250
-248
-250
-255
-262
-271
-280
-289
-297
-302
-305
-305
-303
-297
-290
-280
-269
-257
-246
-236
-228
-222
-219
-218
-220
-223
-225
-224
-219
-209
-195
-177
-158
-142
-133
-137
-155
-190
-241
-303
-371
-435
-487
-517
-520
-491
-428
-335
-214
-72
85
254
431
618
817
1033
1272
1538
1832
2151
2491
2840
3183
3506
3790
4020
4182
4267
4273
4199
4051
3841
3580
3284
2969
2649
2338
2048
1786
1557
1363
1202
1070
961
868
784
702
617
527
433
334
235
140
54
-21
-81
-125
-154
-169
-173
-169
-160
-149
-139
-131
-127
-129
-137
-151
-172
-197
-226
-256
-283
-304
-317
-320
-312
-295
-273
-250
-231
-224
-230
-254
-292
-340
-393
-440
-475
-489
-479
-444
-388
-318
-243
-171
-114
-76
-63
-72
-101
-144
-192
-240
-280
-308
-323
-328
-324
-317
-310
-306
-306
-310
-316
-321
-322
-316
-302
-280
-253
-224
-198
-179
-171
-174
-188
-211
-237
-262
-280
-288
-282
-263
-233
-198
-161
-129
-106
-96
-98
-112
-135
-162
-189
-211
-226
-232
-229
-217
-200
-181
-161
-144
-130
-122
-118
-119
-123
-128
-133
-138
-141
-141
-139
-135
-131
-127
-124
-122
-121
-120
-119
-115
-108
-96
-79
-58
-36
-15
3
14
17
12
-1
-19
-39
-57
-70
-77
-76
-70
-59
-48
-37
-30
-26
-26
-27
-27
-25
-18
-7
9
29
51
73
93
110
123
133
139
141
138
131
120
103
83
62
43
31
30
44
74
119
176
237
295
341
369
374
356
318
267
213
166
135
127
144
186
246
317
388
448
490
509
503
477
437
393
355
335
337
366
419
491
573
654
723
772
795
793
769
731
688
650
624
617
629
658
699
747
794
836
868
889
901
903
899
891
879
866
850
832
814
795
776
759
746
735
727
721
714
704
690
673
652
631
613
601
598
605
621
645
674
703
730
751
764
767
760
742
714
675
626
568
503
433
363
298
242
201
176
169
176
193
213
231
240
236
218
188
150
109
71
41
21
12
11
15
20
23
22
15
3
-12
-28
-43
-56
-68
-79
-91
-104
-118
-133
-146
-156
-160
-159
-156
-154
-158
-171
-198
-238
-288
-343
-394
-431
-446
-434
-394
-328
-245
-154
-67
6
58
85
87
67
31
-15
-66
-117
-166
-211
-253
-289
-318
-340
-351
-352
-342
-323
-298
-272
-250
-237
-237
-249
-271
-298
-327
-349
-361
-360
-347
-323
-294
-265
-241
-227
-223
-231
-248
-271
-296
-319
-339
-354
-363
-366
-364
-357
-345
-330
-310
-286
-259
-231
-204
-182
-166
-160
-164
-179
-201
-229
-255
-277
-289
-289
-277
-256
-231
-208
-193
-191
-205
-235
-279
-331
-383
-430
-465
-483
-485
-470
-443
-409
-375
-345
-324
-313
-311
-318
-329
-339
-347
-347
-340
-323
-300
-273
-246
-225
-214
-217
-236
-273
-327
-392
-465
-536
-597
-642
-665
-660
-629
-573
-499
-415
-332
-259
-204
-171
-163
-174
-200
-230
-257
-272
-271
-253
-220
-180
-143
-117
-111
-129
-171
-232
-302
-371
-427
-462
-471
-454
-414
-360
-301
-248
-205
-179
-168
-168
-176
-184
-188
-185
-177
-167
-158
-156
-165
-186
-218
-256
-295
-328
-351
-358
-349
-326
-294
-260
-228
-206
-195
-198
-212
-234
-258
-279
-293
-297
-289
-272
-247
-218
-188
-161
-138
-121
-111
-109
-115
-130
-152
-183
-220
-260
-301
-337
-363
-374
-369
-348
-313
-269
-224
-185
-156
-142
-143
-156
-174
-191
-200
-196
-175
-139
-93
-44
0
33
49
46
25
-9
-50
-91
-126
-150
-160
-156
-137
-108
-72
-31
10
48
82
109
128
140
145
144
140
135
133
136
147
165
191
221
254
284
310
327
334
330
317
297
273
248
226
208
196
191
195
205
221
241
263
285
302
314
317
311
295
272
243
212
183
158
139
126
116
106
91
67
31
-18
-79
-149
-222
-291
-350
-391
-413
-412
-392
-355
-309
-258
-210
-171
-143
-129
-128
-140
-161
-188
-217
-246
-272
-295
-313
-326
-336
-343
-347
-350
-352
-355
-359
-367
-376
-389
-403
-417
-430
-439
-442
-436
-422
-400
-372
-341
-310
-284
-265
-258
-264
-283
-311
-347
-385
-419
-446
-461
-461
-447
-420
-385
-347
-313
-288
-278
-286
-310
-348
-395
-445
-492
-528
-550
-554
-542
-516
-480
-440
-401
-369
-346
-337
-341
-357
-384
-417
-453
-489
-520
-545
-561
-569
-571
-569
-564
-561
-559
-559
-560
-557
-547
-525
-483
-418
-324
-196
-34
165
400
670
972
1299
1644
2000
2354
2698
3019
3307
3553
3752
3900
3994
4034
4020
3954
3836
3668
3455
3203
2918
2612
2297
1989
1699
1442
1225
1050
917
818
742
677
612
539
453
354
245
134
29
-64
-138
-192
-226
-242
-245
-241
-234
-228
-225
-226
-232
-243
-258
-279
-306
-338
-375
-415
-455
-491
-520
-539
-545
-537
-516
-486
-450
-415
-384
-364
-356
-362
-380
-407
-439
-471
-496
-510
-511
-496
-468
-429
-384
-340
-303
-278
-267
-273
-293
-324
-359
-393
-421
-437
-440
-429
-406
-374
-338
-303
-273
-250
-238
-237
-248
-268
-296
-331
-369
-405
-435
-455
-460
-448
-417
-369
-310
-245
-183
-135
-106
-104
-129
-180
-249
-328
-407
-475
-522
-543
-535
-502
-448
-381
-312
-248
-198
-167
-157
-166
-190
-223
-259
-292
-316
-329
-330
-321
-304
-283
-261
-242
-228
-219
-215
-216
-221
-227
-236
-245
-255
-264
-271
-274
-270
-258
-237
-206
-168
-128
-91
-62
-48
-50
-72
-110
-161
-215
-267
-308
-330
-331
-310
-270
-215
-154
-93
-42
-5
14
15
2
-20
-46
-69
-83
-86
-76
-55
-29
-3
19
30
29
16
-8
-36
-61
-78
-81
-67
-36
11
69
133
195
251
297
328
344
346
335
315
287
255
223
196
177
170
177
198
233
278
328
377
420
450
466
465
451
425
395
364
339
323
317
323
340
366
400
440
484
529
573
614
650
677
694
702
702
696
689
683
682
688
701
718
735
746
749
741
721
692
659
626
599
582
576
580
590
603
613
617
614
605
593
581
573
569
570
575
578
576
564
541
506
464
420
380
352
340
345
366
397
430
456
465
452
415
355
278
192
109
38
-10
-33
-27
2
49
103
154
192
211
205
175
125
60
-12
-81
-140
-185
-212
-223
-220
-209
-194
-181
-175
-180
-196
-225
-264
-308
-355
-400
-438
-465
-477
-475
-457
-427
-389
-347
-309
-279
-264
-265
-282
-313
-352
-391
-424
-442
-441
-418
-375
-318
-254
-192
-143
-114
-110
-134
-182
-250
-329
-411
-484
-542
-579
-593
-584
-555
-513
-464
-414
-370
-335
-312
-301
-301
-309
-323
-339
-354
-367
-375
-378
-378
-375
-371
-367
-367
-370
-380
-396
-418
-445
-474
-504
-529
-548
-557
-554
-538
-511
-475
-434
-394
-359
-336
-327
-333
-353
-384
-420
-456
-486
-504
-507
-496
-473
-443
-412
-387
-373
-373
-388
-416
-452
-490
-524
-547
-558
-555
-539
-513
-484
-455
-431
-416
-408
-408
-412
-417
-422
-423
-421
-418
-414
-412
-414
-422
-434
-449
-462
-471
-472
-465
-450
-430
-408
-389
-378
-376
-385
-403
-426
-449
-467
-477
-476
-465
-447
-426
-408
-395
-391
-396
-409
-427
-446
-464
-475
-479
-477
-468
-454
-437
-417
-394
-368
-340
-311
-282
-257
-239
-230
-235
-252
-280
-315
-353
-386
-409
-418
-412
-393
-365
-335
-308
-290
-285
-294
-316
-347
-382
-415
-440
-455
-457
-446
-425
-395
-361
-325
-293
-266
-248
-238
-239
-249
-267
-292
-322
-353
-383
-409
-427
-437
-436
-425
-406
-381
-353
-325
-302
-285
-276
-274
-279
-287
-298
-307
-313
-317
-317
-316
-315
-317
-322
-330
-341
-352
-358
-358
-349
-330
-300
-261
-215
-168
-122
-84
-55
-38
-36
-47
-69
-100
-136
-172
-203
-226
-237
-237
-225
-205
-181
-155
-132
-116
-106
-103
-104
-105
-103
-96
-82
-62
-39
-15
6
22
33
40
46
55
70
93
126
163
202
236
259
267
259
236
203
166
133
109
101
109
133
168
208
246
275
292
296
286
267
244
219
197
180
167
155
143
124
96
57
7
-52
-115
-178
-236
-284
-320
-340
-346
-340
-323
-300
-275
-251
-231
-219
-215
-220
-234
-256
-285
-318
-352
-385
-413
-434
-448
-452
-448
-437
-421
-402
-381
-361
-342
-328
-317
-311
-311
-318
-332
-351
-375
-401
-423
-439
-444
-436
-415
-384
-348
-311
-282
-264
-263
-278
-307
-343
-379
-407
-420
-414
-390
-351
-305
-260
-226
-210
-217
-248
-299
-364
-434
-500
-552
-585
-597
-586
-556
-513
-462
-410
-363
-324
-296
-280
-275
-280
-295
-317
-347
-383
-425
-471
-519
-566
-609
-642
-663
-667
-654
-623
-576
-517
-451
-382
-316
-253
-193
-133
-65
19
129
275
464
700
983
1306
1660
2032
2405
2765
3095
3382
3617
3794
3908
3962
3956
3894
3782
3625
3429
3201
2947
2676
2396
2115
1841
1581
1339
1119
921
744
587
447
321
208
108
22
-50
-105
-143
-164
-172
-168
-160
-150
-145
-147
-159
-179
-208
-242
-278
-313
-344
-369
-388
-400
-407
-409
-406
-401
-393
-384
-374
-365
-359
-355
-356
-362
-372
-386
-401
-414
-423
-427
-425
-418
-406
-393
-380
-370
-362
-358
-356
-354
-352
-350
-347
-346
-349
-357
-373
-395
-423
-453
-481
-501
-510
-506
-489
-461
-426
-389
-356
-331
-318
-317
-326
-344
-364
-383
-397
-403
-398
-384
-361
-332
-302
-274
-253
-243
-245
-262
-290
-328
-367
-402
-427
-435
-422
-390
-342
-285
-228
-181
-152
-149
-171
-216
-278
-348
-414
-467
-498
-503
-483
-441
-384
-319
-256
-203
-164
-144
-142
-158
-187
-225
-266
-304
-334
-351
-354
-341
-313
-275
-231
-185
-142
-107
-83
-71
-71
-81
-101
-126
-154
-183
-210
-232
-247
-253
-249
-233
-207
-173
-134
-97
-66
-49
-48
-64
-96
-140
-188
-232
-263
-275
-264
-232
-181
-117
-51
12
62
96
112
110
95
71
43
16
-5
-19
-22
-16
-1
21
48
78
109
137
161
178
187
188
181
169
154
138
125
117
118
127
146
173
206
242
278
312
340
360
372
375
372
365
357
355
361
380
413
460
518
581
644
700
742
766
768
751
719
678
635
600
578
573
587
618
659
706
750
784
805
810
797
769
731
686
640
597
560
532
514
506
507
517
534
554
576
596
613
624
629
627
619
606
590
576
563
554
548
544
540
533
520
499
468
428
381
330
280
234
196
170
156
151
153
158
160
154
138
110
71
25
-24
-67
-101
-122
-128
-121
-104
-82
-62
-48
-46
-55
-76
-104
-135
-165
-191
-209
-219
-224
-228
-232
-239
-252
-269
-288
-306
-321
-328
-328
-321
-309
-296
-285
-278
-280
-292
-311
-338
-370
-403
-435
-462
-481
-490
-487
-472
-447
-415
-380
-346
-320
-304
-302
-313
-333
-358
-381
-394
-392
-374
-341
-299
-254
-217
-196
-196
-219
-261
-315
-371
-418
-445
-449
-427
-383
-326
-267
-216
-183
-172
-187
-224
-277
-337
-396
-447
-483
-505
-511
-507
-495
-481
-469
-461
-457
-456
-455
-451
-441
-426
-406
-381
-356
-332
-312
-298
-290
-288
-289
-291
-293
-293
-292
-291
-294
-302
-317
-341
-370
-402
-431
-451
-459
-450
-425
-388
-345
-303
-269
-251
-253
-275
-315
-366
-420
-470
-507
-528
-531
-515
-485
-444
-400
-356
-315
-282
-255
-235
-220
-210
-205
-204
-207
-215
-228
-245
-264
-282
-295
-300
-297
-284
-264
-243
-226
-220
-231
-262
-314
-383
-463
-541
-606
-646
-652
-618
-545
-442
-320
-195
-84
0
45
47
10
-59
-147
-241
-326
-393
-436
-455
-454
-438
-417
-395
-378
-368
-362
-358
-351
-338
-314
-280
-236
-184
-129
-73
-22
22
54
73
74
55
15
-48
-130
-226
-328
-427
-511
-571
-598
-589
-546
-474
-382
-285
-197
-129
-93
-93
-131
-204
-303
-414
-527
-630
-713
-771
-807
-823
-829
-833
-844
-866
-898
-936
-971
-991
-984
-938
-848
-714
-543
-348
-148
38
189
290
329
297
196
28
-194
-457
-738
-1014
-1258
-1445
-1551
-1560
-1469
-1284
-1027
-732
-439
-193
-29
26
-35
-199
-436
-700
-941
-1111
-1172
-1108
-920
-634
-290
61
364
576
665
618
442
161
-187
-558
-908
-1197
-1396
-1489
-1473
-1358
-1163
-913
-636
-360
-106
108
273
386
449
472
465
437
399
356
310
262
212
155
91
18
-63
-150
-239
-327
-408
-481
-542
-590
-627
-656
-679
-701
-725
-754
-791
-836
-890
-951
-1016
-1081
-1143
-1196
-1238
-1266
-1278
-1276
-1260
-1232
-1196
-1153
-1107
-1060
-1013
-967
-924
-885
-853
-830
-819
-823
-843
-879
-928
-987
-1050
-1112
-1170
-1221
-1264
-1301
-1335
-1370
-1409
-1453
-1502
-1551
-1594
-1621
-1626
-1602
-1546
-1457
-1340
-1202
-1053
-905
-769
-656
-575
-530
-524
-558
-627
-724
-841
-966
-1086
-1190
-1267
-1307
-1307
-1268
-1197
-1103
-999
-899
-812
-746
-704
-681
-671
-666
-655
-634
-602
-563
-524
-494
-484
-501
-551
-635
-748
-882
-1026
-1169
-1300
-1408
-1487
-1531
-1538
-1507
-1438
-1331
-1191
-1023
-834
-633
-429
-225
-26
169
367
576
805
1065
1359
1687
2039
2398
2741
3039
3266
3395
3415
3318
3111
2812
2443
2035
1617
1214
847
527
258
34
-155
-326
-493
-673
-877
-1108
-1364
-1633
-1898
-2137
-2326
-2444
-2476
-2418
-2276
-2071
-1828
-1583
-1371
-1224
-1160
-1186
-1294
-1465
-1669
-1874
-2047
-2167
-2220
-2205
-2131
-2017
-1883
-1748
-1628
-1534
-1468
-1423
-1389
-1351
-1301
-1235
-1157
-1080
-1019
-987
-997
-1054
-1157
-1294
-1449
-1601
-1729
-1816
-1854
-1847
-1807
-1755
-1715
-1708
-1753
-1856
-2016
-2220
-2444
-2664
-2852
-2985
-3049
-3034
-2943
-2785
-2576
-2337
-2089
-1854
-1651
-1498
-1406
-1380
-1420
-1516
-1655
-1819
-1987
-2135
-2243
-2297
-2288
-2219
-2098
-1942
-1769
-1602
-1457
-1349
-1284
-1260
-1269
-1300
-1342
-1383
-1414
-1430
-1431
-1421
-1408
-1401
-1406
-1427
-1459
-1499
-1542
-1580
-1606
-1615
-1600
-1562
-1502
-1427
-1343
-1259
-1180
-1110
-1053
-1009
-980
-966
-970
-995
-1045
-1126
-1239
-1384
-1553
-1737
-1919
-2082
-2208
-2280
-2290
-2235
-2119
-1953
-1756
-1547
-1349
-1181
-1059
-991
-976
-1007
-1070
-1150
-1228
-1288
-1316
-1305
-1255
-1173
-1071
-964
-868
-795
-756
-752
-781
-834
-899
-960
-1006
-1029
-1024
-996
-951
-900
-855
-826
-822
-843
-886
-940
-993
-1031
-1040
-1011
-939
-826
-682
-520
-358
-213
-101
-33
-12
-36
-96
-178
-262
-334
-380
-391
-364
-305
-221
-126
-32
49
108
144
156
148
127
101
77
61
57
65
84
113
149
191
239
290
344
399
453
503
547
581
600
602
584
548
498
440
380
328
292
279
295
340
415
512
623
737
844
930
987
1009
995
946
868
771
666
566
484
431
417
447
523
642
795
968
1144
1307
1440
1528
1564
1547
1483
1384
1268
1153
1056
992
967
982
1032
1108
1195
1281
1354
1407
1436
1441
1426
1399
1367
1337
1315
1306
1312
1334
1372
1423
1481
1541
1598
1645
1675
1684
1670
1633
1578
1509
1436
1368
1312
1275
1259
1263
1284
1315
1349
1380
1400
1404
1393
1366
1328
1281
1231
1180
1131
1088
1050
1019
995
982
981
992
1018
1058
1110
1168
1227
1278
1315
1329
1315
1270
1194
1089
962
823
682
551
441
358
309
295
314
360
423
492
557
608
638
643
624
585
532
475
418
368
327
294
265
238
208
173
134
93
57
31
22
35
72
131
209
300
396
490
577
652
714
762
798
825
844
860
872
881
888
893
896
896
894
890
884
878
873
871
876
891
917
956
1005
1062
1122
1178
1224
1253
1261
1246
1213
1165
1113
1065
1029
1013
1019
1048
1094
1150
1209
1261
1301
1324
1330
1323
1308
1291
1281
1282
1298
1328
1369
1417
1465
1507
1537
1553
1552
1537
1511
1478
1445
1417
1400
1396
1409
1439
1481
1533
1590
1645
1692
1728
1750
1755
1745
1721
1687
1650
1614
1586
1570
1571
1590
1627
1677
1734
1792
1841
1876
1889
1880
1849
1801
1743
1683
1629
1587
1559
1543
1536
1531
1521
1499
1463
1412
1353
1293
1241
1206
1195
1214
1262
1334
1423
1519
1611
1688
1743
1769
1763
1726
1662
1576
1477
1373
1274
1191
1131
1102
1107
1147
1217
1311
1420
1531
1633
1715
1769
1790
1776
1729
1656
1564
1463
1365
1279
1212
1169
1152
1160
1187
1227
1271
1311
1338
1348
1339
1312
1272
1227
1183
1149
1128
1123
1132
1152
1177
1201
1217
1223
1217
1201
1178
1152
1128
1108
1095
1087
1084
1083
1083
1083
1082
1082
1084
1090
1100
1115
1133
1152
1168
1181
1187
1188
1185
1181
1180
1185
1197
1218
1245
1276
1307
1334
1355
1368
1373
1374
1373
1373
1376
1385
1397
1413
1428
1440
1447
1448
1444
1435
1422
1408
1393
1377
1360
1340
1319
1298
1277
1259
1249
1246
1253
1268
1285
1299
1302
1286
1245
1178
1085
975
856
740
639
564
520
508
525
562
609
655
690
705
697
668
620
561
497
438
387
349
325
316
319
331
352
377
407
440
475
511
547
581
611
632
643
640
621
588
543
488
430
374
328
296
282
286
308
342
382
421
451
465
460
436
395
343
288
238
198
174
167
174
190
211
230
241
244
238
228
217
213
218
235
264
300
335
364
379
375
351
309
255
195
137
89
55
37
33
39
49
58
61
55
42
24
7
-6
-8
2
27
63
111
169
235
312
405
523
673
867
1110
1405
1750
2137
2553
2979
3397
3785
4127
4408
4621
4759
4823
4814
4736
4596
4399
4152
3863
3541
3198
2846
2500
2172
1876
1619
1407
1241
1114
1019
945
879
812
735
644
539
425
307
195
95
15
-43
-77
-90
-87
-74
-58
-45
-37
-38
-47
-62
-82
-103
-125
-148
-173
-202
-236
-278
-326
-379
-432
-480
-517
-540
-547
-538
-515
-487
-459
-439
-431
-438
-459
-490
-524
-555
-576
-582
-572
-547
-511
-470
-431
-401
-385
-387
-408
-447
-500
-561
-623
-680
-724
-749
-753
-733
-694
-641
-582
-528
-489
-474
-486
-528
-594
-678
-768
-852
-918
-958
-967
-947
-903
-843
-777
-715
-665
-635
-628
-644
-678
-726
-779
-832
-877
-909
-926
-926
-910
-884
-852
-820
-796
-785
-790
-811
-845
-888
-931
-969
-993
-1001
-990
-963
-922
-874
-824
-779
-741
-713
-695
-685
-682
-683
-688
-698
-713
-732
-754
-779
-802
-822
-833
-832
-818
-788
-746
-695
-641
-589
-546
-514
-498
-498
-512
-538
-571
-606
-638
-663
-678
-683
-677
-661
-637
-607
-574
-541
-510
-484
-466
-456
-455
-463
-476
-492
-506
-512
-504
-478
-434
-372
-299
-224
-157
-110
-91
-105
-150
-219
-301
-381
-444
-477
-474
-432
-360
-267
-169
-83
-21
10
6
-28
-83
-147
-209
-256
-280
-278
-248
-196
-126
-46
37
116
186
241
278
296
293
271
233
185
135
89
55
40
49
81
134
203
281
358
427
481
517
535
539
532
521
512
509
513
524
539
555
568
572
564
544
513
474
432
394
364
349
350
369
404
450
502
551
588
605
597
560
497
410
308
202
104
23
-30
-51
-39
1
59
126
188
234
254
245
206
140
54
-41
-137
-222
-290
-336
-358
-358
-339
-307
-267
-227
-193
-170
-161
-168
-193
-233
-284
-342
-403
-461
-513
-553
-581
-595
-596
-587
-573
-557
-545
-541
-547
-565
-598
-643
-697
-756
-815
-870
-914
-943
-955
-949
-927
-893
-852
-809
-772
-744
-730
-731
-747
-774
-808
-844
-876
-901
-915
-919
-915
-906
-899
-898
-910
-936
-979
-1036
-1102
-1170
-1231
-1276
-1297
-1289
-1250
-1185
-1101
-1012
-930
-871
-850
-874
-948
-1067
-1225
-1406
-1592
-1765
-1908
-2010
-2063
-2070
-2037
-1976
-1901
-1828
-1768
-1731
-1720
-1737
-1776
-1829
-1887
-1942
-1988
-2019
-2033
-2032
-2019
-1996
-1969
-1943
-1921
-1907
-1903
-1910
-1928
-1956
-1992
-2033
-2075
-2113
-2143
-2162
-2165
-2153
-2126
-2085
-2037
-1985
-1935
-1893
-1861
-1841
-1833
-1835
-1843
-1854
-1864
-1870
-1870
-1865
-1855
-1842
-1828
-1816
-1806
-1800
-1796
-1795
-1796
-1796
-1796
-1795
-1790
-1782
-1768
-1749
-1725
-1695
-1661
-1624
-1587
-1553
-1526
-1507
-1498
-1497
-1500
-1504
-1502
-1490
-1464
-1423
-1367
-1300
-1230
-1164
-1110
-1074
-1060
-1069
-1101
-1149
-1209
-1271
-1328
-1375
-1406
-1418
-1409
-1382
-1338
-1283
-1222
-1160
-1103
-1055
-1020
-997
-986
-986
-992
-998
-1001
-995
-978
-951
-913
-869
-825
-784
-755
-742
-747
-768
-803
-846
-890
-928
-954
-963
-953
-927
-886
-837
-787
-742
-707
-686
-680
-688
-706
-730
-754
-773
-783
-780
-765
-736
-697
-652
-606
-562
-524
-497
-483
-481
-491
-509
-534
-560
-586
-606
-618
-623
-619
-608
-590
-568
-543
-516
-489
-461
-432
-404
-376
-350
-325
-303
-286
-275
-270
-271
-277
-286
-295
-302
-304
-299
-287
-267
-240
-210
-180
-152
-127
-107
-92
-80
-68
-57
-43
-26
-9
8
22
29
28
18
1
-20
-42
-56
-60
-48
-20
25
82
146
211
269
315
345
360
361
353
340
331
331
344
373
419
478
547
620
690
750
795
821
827
812
779
733
678
621
566
520
487
469
470
489
524
573
632
694
755
809
849
872
876
861
829
784
732
678
627
583
549
524
508
498
491
483
473
459
441
420
396
373
350
331
315
304
298
296
298
304
311
319
324
325
321
310
293
271
246
222
203
191
188
194
208
225
243
257
262
259
246
225
198
170
144
124
111
105
105
109
115
120
123
123
120
113
101
86
68
45
21
-5
-30
-50
-63
-68
-62
-47
-25
1
24
40
44
34
8
-31
-80
-132
-180
-217
-240
-244
-232
-208
-180
-155
-142
-151
-184
-245
-330
-433
-543
-650
-743
-814
-857
-871
-860
-832
-796
-759
-730
-712
-705
-707
-713
-715
-705
-678
-627
-549
-440
-299
-121
98
361
669
1021
1413
1833
2267
2697
3101
3458
3748
3959
4081
4111
4053
3914
3706
3444
3144
2820
2485
2154
1835
1539
1272
1038
835
661
510
376
251
128
5
-119
-240
-355
-455
-536
-593
-627
-638
-634
-620
-604
-593
-591
-601
-621
-649
-680
-710
-733
-747
-751
-744
-730
-710
-687
-665
-645
-629
-618
-612
-612
-616
-623
-632
-641
-649
-655
-659
-660
-658
-653
-647
-639
-628
-614
-598
-580
-558
-535
-510
-488
-469
-455
-448
-449
-457
-470
-486
-501
-512
-515
-510
-494
-470
-440
-411
-385
-370
-367
-380
-407
-446
-490
-533
-565
-581
-575
-545
-493
-422
-339
-253
-171
-104
-54
-25
-18
-29
-55
-88
-123
-156
-182
-200
-209
-212
-210
-208
-207
-210
-218
-230
-246
-263
-279
-292
-300
-303
-300
-292
-282
-271
-260
-250
-241
-232
-223
-210
-193
-171
-144
-112
-78
-46
-18
3
15
17
9
-5
-24
-43
-58
-63
-57
-39
-9
30
73
114
148
168
171
156
125
82
34
-12
-47
-64
-58
-29
21
87
161
233
294
339
361
361
340
303
260
218
185
168
170
192
230
279
330
378
415
437
443
434
415
392
371
359
359
375
405
447
495
544
590
627
654
668
670
662
646
628
610
596
590
596
614
646
689
742
798
853
901
936
956
960
949
928
904
883
871
872
887
916
953
994
1032
1062
1079
1084
1077
1060
1038
1014
992
974
961
954
953
958
970
988
1013
1045
1082
1124
1165
1202
1232
1249
1253
1243
1221
1191
1158
1126
1100
1085
1080
1086
1101
1119
1137
1150
1154
1147
1128
1097
1057
1011
961
913
870
834
809
797
798
810
831
857
883
904
916
913
894
860
812
755
696
640
594
562
547
550
567
595
626
655
676
685
678
655
620
575
526
478
437
406
386
379
382
393
407
419
427
425
413
390
359
323
285
251
224
208
205
215
235
264
296
327
352
370
377
375
364
348
331
317
310
312
326
351
384
423
463
497
522
532
526
502
463
413
357
301
254
219
202
202
220
251
290
330
366
392
404
402
385
357
320
281
243
212
190
181
184
200
225
255
287
314
332
338
329
306
272
231
189
153
128
117
122
141
170
205
238
263
278
280
269
247
220
190
163
143
132
130
135
146
161
176
189
197
200
198
190
177
162
146
133
125
124
131
149
175
208
244
279
308
325
327
312
279
230
169
101
32
-31
-82
-118
-138
-140
-126
-100
-64
-23
20
63
102
136
164
183
193
194
184
165
138
105
70
38
11
-6
-14
-11
1
19
37
51
59
57
44
23
-4
-32
-58
-76
-84
-79
-61
-30
10
52
91
120
134
127
98
46
-23
-104
-188
-265
-328
-369
-386
-379
-353
-314
-271
-233
-207
-196
-201
-220
-249
-282
-313
-336
-348
-349
-338
-317
-289
-258
-226
-196
-171
-154
-146
-150
-167
-196
-237
-286
-338
-385
-421
-440
-436
-408
-359
-294
-222
-153
-97
-62
-54
-72
-114
-172
-237
-297
-345
-372
-378
-365
-337
-302
-268
-244
-234
-239
-258
-284
-310
-329
-333
-319
-286
-237
-178
-115
-58
-14
13
21
9
-18
-55
-96
-133
-160
-173
-168
-145
-106
-54
7
71
133
189
234
267
286
291
284
267
244
217
190
166
147
135
132
138
152
172
196
220
239
251
252
242
220
189
151
113
80
54
38
33
38
50
64
76
82
82
74
58
35
8
-22
-54
-89
-126
-165
-208
-252
-299
-345
-388
-425
-454
-473
-483
-484
-478
-467
-453
-439
-425
-412
-400
-387
-375
-362
-351
-344
-342
-348
-365
-393
-432
-480
-533
-587
-636
-674
-695
-697
-680
-644
-596
-539
-483
-433
-396
-374
-369
-380
-402
-430
-457
-480
-495
-501
-501
-497
-492
-491
-496
-509
-528
-551
-574
-593
-605
-608
-603
-590
-572
-552
-533
-516
-502
-491
-481
-473
-468
-470
-478
-497
-526
-565
-612
-661
-705
-736
-746
-731
-691
-630
-555
-477
-410
-363
-346
-364
-416
-494
-590
-690
-781
-849
-886
-886
-848
-775
-672
-545
-400
-244
-77
100
291
500
732
992
1283
1604
1950
2312
2677
3028
3349
3620
3824
3947
3980
3919
3765
3527
3221
2867
2488
2108
1748
1427
1155
936
767
637
533
440
345
239
119
-12
-150
-283
-404
-503
-579
-632
-667
-691
-712
-737
-768
-802
-835
-857
-863
-844
-800
-733
-650
-564
-486
-428
-399
-402
-433
-486
-549
-608
-652
-672
-666
-637
-592
-542
-502
-481
-489
-526
-590
-672
-759
-839
-899
-931
-931
-901
-851
-791
-735
-693
-674
-683
-719
-775
-841
-907
-960
-989
-991
-962
-904
-826
-735
-644
-562
-501
-466
-460
-485
-535
-603
-679
-754
-819
-866
-888
-885
-857
-810
-751
-688
-628
-579
-546
-532
-537
-559
-595
-641
-691
-741
-787
-826
-857
-880
-894
-903
-907
-907
-906
-906
-906
-908
-912
-916
-919
-921
-919
-912
-898
-877
-848
-813
-773
-732
-692
-658
-633
-623
-627
-647
-681
-725
-775
-825
-870
-906
-929
-938
-936
-923
-904
-882
-861
-843
-831
-823
-819
-816
-812
-803
-785
-756
-714
-659
-595
-526
-458
-400
-359
-341
-350
-384
-440
-509
-581
-645
-691
-712
-704
-670
-614
-544
-471
-402
-344
-301
-272
-256
-249
-248
-249
-250
-250
-248
-244
-237
-227
-211
-191
-166
-139
-111
-89
-74
-71
-79
-96
-117
-135
-141
-129
-95
-39
34
113
189
250
285
289
262
207
134
55
-18
-75
-106
-108
-81
-32
34
108
181
248
302
342
366
376
373
361
340
314
286
257
229
204
185
173
170
176
193
218
250
286
322
354
380
398
408
410
407
401
397
397
401
409
420
429
432
426
408
377
336
288
239
196
165
152
158
185
228
283
341
395
438
462
464
441
395
329
248
159
69
-16
-90
-148
-187
-207
-209
-196
-172
-140
-106
-73
-46
-27
-17
-17
-29
-49
-79
-114
-155
-197
-238
-275
-306
-329
-343
-347
-343
-331
-315
-299
-286
-280
-281
-290
-307
-327
-348
-365
-375
-376
-367
-350
-328
-306
-287
-275
-274
-284
-305
-333
-364
-398
-429
-458
-484
-509
-533
-559
-588
-619
-650
-677
-697
-704
-696
-670
-628
-575
-514
-452
-397
-352
-323
-309
-311
-325
-346
-367
-385
-395
-397
-392
-381
-368
-355
-346
-343
-345
-352
-364
-376
-388
-399
-410
-421
-433
-448
-466
-488
-511
-533
-551
-560
-558
-544
-518
-482
-439
-395
-354
-320
-297
-288
-293
-310
-336
-368
-402
-434
-461
-480
-488
-486
-474
-455
-431
-405
-381
-362
-348
-341
-339
-340
-343
-344
-342
-336
-329
-323
-322
-329
-347
-377
-417
-464
-513
-557
-590
-605
-599
-571
-525
-465
-398
-333
-276
-234
-211
-208
-225
-256
-297
-343
-387
-424
-451
-466
-466
-454
-431
-399
-362
-324
-286
-254
-230
-214
-210
-215
-227
-243
-261
-276
-287
-291
-288
-278
-264
-248
-233
-221
-213
-210
-211
-215
-221
-226
-231
-234
-236
-237
-237
-237
-236
-233
-228
-220
-210
-198
-187
-177
-172
-171
-174
-181
-189
-197
-203
-207
-209
-209
-210
-214
-220
-228
-237
-243
-243
-234
-213
-182
-142
-98
-56
-19
7
20
22
15
1
-16
-35
-57
-84
-122
-175
-248
-342
-453
-573
-688
-781
-837
-843
-792
-686
-535
-358
-178
-20
90
139
117
28
-115
-291
-476
-648
-786
-879
-923
-922
-889
-836
-778
-726
-688
-663
-650
-644
-638
-627
-607
-579
-544
-505
-464
-426
-391
-362
-337
-318
-305
-300
-304
-320
-349
-389
-436
-484
-525
-552
-558
-540
-497
-436
-363
-287
-217
-160
-120
-95
-82
-74
-65
-48
-18
23
72
125
173
208
227
224
201
160
107
49
-7
-54
-86
-101
-100
-82
-53
-16
24
61
91
110
115
106
82
44
-6
-65
-128
-192
-252
-304
-345
-372
-384
-383
-371
-352
-330
-311
-299
-298
-311
-337
-374
-417
-460
-500
-531
-551
-560
-560
-555
-551
-550
-558
-573
-596
-623
-650
-671
-683
-683
-672
-651
-625
-596
-570
-549
-533
-522
-515
-509
-504
-498
-491
-487
-487
-493
-507
-526
-549
-571
-587
-591
-582
-558
-523
-482
-442
-412
-399
-406
-436
-486
-547
-609
-662
-696
-702
-678
-626
-552
-467
-381
-307
-253
-224
-222
-241
-275
-315
-352
-380
-393
-390
-373
-346
-314
-285
-261
-246
-243
-251
-270
-298
-331
-369
-408
-444
-473
-490
-490
-470
-427
-360
-271
-164
-44
86
221
360
505
662
836
1036
1271
1546
1862
2217
2600
2999
3395
3768
4096
4362
4548
4644
4643
4547
4362
4103
3786
3434
3070
2714
2386
2101
1868
1689
1560
1471
1408
1355
1299
1226
1130
1008
862
703
542
393
269
180
133
131
168
236
321
409
486
539
562
552
514
455
390
329
286
267
277
313
368
433
496
546
575
580
560
522
472
421
378
348
337
347
375
419
474
538
605
672
737
796
846
883
907
914
906
883
848
808
769
739
722
722
739
771
811
854
890
914
919
903
867
813
749
681
616
562
523
505
507
529
568
618
672
724
766
792
799
784
749
700
643
586
537
502
484
482
493
511
529
541
542
529
505
475
443
416
401
399
412
435
466
497
523
541
549
546
535
520
505
492
486
487
495
511
532
557
583
608
631
649
659
660
650
628
596
555
509
463
423
392
374
372
386
413
449
490
529
562
583
590
580
556
520
477
433
394
366
354
360
385
427
483
546
609
667
712
742
754
749
730
701
669
638
614
602
603
618
646
682
722
761
793
813
817
804
773
729
676
620
569
529
506
503
521
558
609
669
730
787
834
868
889
898
897
889
881
874
873
878
892
912
938
969
1003
1038
1072
1103
1129
1148
1159
1160
1151
1132
1107
1078
1048
1022
1002
990
985
988
992
997
996
988
971
945
912
876
843
816
800
797
806
825
851
879
903
921
929
928
919
903
884
864
845
829
815
803
793
782
771
760
748
736
727
722
721
724
730
738
746
749
747
734
712
679
639
593
547
505
470
445
427
414
400
380
346
295
226
141
48
-45
-125
-182
-206
-194
-147
-72
22
120
209
278
318
328
309
268
212
153
98
56
28
15
12
15
16
9
-9
-42
-86
-136
-184
-223
-246
-247
-226
-183
-124
-60
-2
39
55
40
-6
-76
-161
-247
-323
-376
-399
-392
-356
-301
-238
-180
-137
-117
-124
-156
-207
-268
-328
-377
-409
-419
-405
-370
-319
-260
-199
-145
-103
-76
-67
-74
-95
-123
-156
-188
-216
-236
-247
-249
-244
-234
-220
-205
-191
-178
-167
-158
-151
-145
-141
-139
-140
-146
-156
-171
-190
-212
-234
-255
-274
-289
-298
-301
-297
-288
-274
-258
-241
-224
-209
-196
-186
-181
-180
-183
-192
-205
-223
-242
-263
-281
-297
-307
-310
-308
-300
-288
-275
-263
-254
-249
-249
-253
-259
-266
-271
-275
-276
-277
-279
-286
-297
-314
-337
-362
-386
-404
-413
-409
-391
-359
-318
-273
-230
-197
-178
-179
-199
-236
-285
-339
-390
-431
-457
-463
-448
-416
-370
-316
-263
-216
-181
-162
-159
-172
-196
-228
-264
-298
-327
-348
-362
-369
-370
-366
-361
-356
-352
-350
-349
-350
-352
-355
-358
-363
-368
-372
-376
-377
-374
-366
-352
-334
-312
-288
-267
-249
-241
-242
-255
-278
-310
-345
-380
-408
-426
-431
-423
-403
-375
-345
-317
-297
-289
-292
-305
-325
-347
-366
-379
-382
-376
-361
-342
-321
-301
-284
-269
-254
-237
-215
-188
-159
-132
-113
-109
-127
-168
-231
-311
-395
-472
-528
-554
-541
-491
-408
-305
-195
-94
-13
38
56
43
5
-50
-112
-174
-231
-280
-320
-354
-383
-408
-430
-445
-453
-451
-437
-411
-376
-334
-289
-246
-207
-175
-152
-137
-128
-124
-122
-121
-116
-108
-94
-73
-44
-5
42
96
154
213
269
315
348
363
359
335
295
242
183
126
78
44
28
30
46
71
95
110
108
82
31
-43
-133
-230
-322
-397
-446
-464
-448
-405
-342
-270
-200
-141
-102
-86
-94
-122
-163
-213
-265
-315
-359
-395
-424
-446
-461
-470
-475
-474
-468
-457
-445
-431
-419
-410
-406
-408
-416
-428
-442
-456
-468
-477
-483
-488
-493
-503
-519
-543
-576
-617
-663
-710
-752
-786
-807
-813
-802
-775
-735
-684
-627
-569
-514
-465
-427
-402
-390
-394
-412
-444
-485
-533
-582
-626
-660
-679
-679
-662
-630
-586
-539
-495
-462
-445
-448
-470
-510
-562
-620
-676
-723
-757
-775
-776
-763
-741
-716
-693
-679
-677
-690
-718
-757
-802
-845
-880
-899
-897
-871
-820
-746
-652
-541
-416
-277
-125
45
238
457
707
989
1303
1644
2002
2367
2726
3063
3365
3617
3809
3929
3971
3931
3808
3607
3338
3015
2655
2280
1908
1561
1252
993
786
629
511
422
346
271
186
86
-29
-155
-284
-406
-510
-589
-638
-655
-644
-610
-563
-514
-472
-446
-442
-462
-503
-561
-626
-690
-743
-777
-786
-770
-732
-677
-616
-558
-513
-489
-487
-508
-548
-600
-657
-709
-751
-777
-785
-775
-748
-709
-661
-609
-557
-508
-466
-434
-412
-403
-407
-423
-449
-482
-517
-550
-575
-589
-589
-576
-549
-514
-476
-440
-411
-394
-390
-399
-418
-444
-472
-495
-510
-514
-505
-484
-454
-418
-381
-347
-320
-303
-297
-302
-317
-340
-367
-396
-420
-435
-437
-425
-396
-353
-299
-239
-180
-129
-93
-73
-72
-86
-112
-144
-174
-196
-207
-204
-187
-161
-127
-92
-57
-26
0
19
31
35
32
21
1
-28
-65
-107
-148
-183
-205
-211
-197
-163
-113
-52
10
65
105
125
124
104
72
35
2
-19
-23
-9
20
60
102
139
164
175
169
149
121
89
62
42
34
37
49
67
87
104
119
128
135
140
146
155
168
183
200
216
229
237
242
244
247
253
264
282
306
331
356
373
379
372
351
320
285
253
232
230
249
291
352
427
507
584
649
696
724
732
725
707
684
663
649
644
647
656
667
676
679
674
660
639
614
590
573
566
573
593
625
664
706
744
772
788
791
783
766
747
731
721
722
734
755
784
815
846
872
892
904
909
907
899
886
867
842
811
774
732
689
649
615
594
589
602
634
682
739
799
854
896
919
919
895
850
786
710
629
550
479
421
378
351
340
341
350
361
369
370
362
341
310
268
220
170
121
79
45
23
12
14
27
48
75
104
131
151
162
159
141
107
60
2
-61
-121
-174
-213
-235
-239
-229
-208
-182
-158
-142
-136
-143
-159
-180
-201
-217
-222
-213
-191
-156
-114
-70
-30
-1
12
7
-16
-57
-110
-170
-230
-284
-324
-346
-348
-328
-289
-236
-177
-119
-69
-36
-23
-32
-63
-110
-168
-229
-284
-328
-354
-362
-349
-319
-276
-226
-175
-130
-95
-74
-70
-81
-104
-137
-172
-205
-230
-244
-244
-232
-209
-181
-154
-136
-131
-145
-177
-228
-291
-359
-425
-479
-515
-527
-516
-484
-437
-381
-326
-279
-245
-228
-228
-242
-265
-290
-311
-324
-325
-314
-292
-264
-234
-205
-183
-167
-160
-161
-168
-180
-194
-210
-227
-244
-262
-277
-289
-296
-296
-288
-270
-246
-217
-188
-165
-154
-158
-180
-218
-270
-329
-387
-435
-466
-473
-455
-412
-350
-274
-194
-118
-55
-10
14
16
1
-27
-62
-97
-127
-149
-160
-162
-156
-146
-137
-130
-129
-135
-146
-161
-179
-196
-211
-224
-232
-237
-239
-237
-231
-222
-209
-193
-173
-152
-132
-117
-110
-114
-131
-159
-196
-237
-275
-304
-317
-312
-287
-246
-195
-141
-92
-57
-41
-47
-73
-114
-164
-216
-262
-297
-318
-326
-322
-311
-299
-290
-288
-295
-308
-326
-344
-357
-363
-357
-340
-311
-273
-229
-183
-141
-104
-76
-58
-52
-58
-73
-96
-123
-153
-183
-209
-232
-250
-262
-270
-274
-275
-273
-266
-256
-239
-217
-189
-156
-120
-85
-54
-29
-12
-6
-7
-15
-26
-36
-44
-48
-49
-47
-46
-48
-54
-66
-83
-103
-122
-137
-145
-143
-131
-109
-80
-47
-13
20
50
76
97
115
129
141
153
164
176
186
195
202
207
211
212
212
211
210
212
215
221
229
237
243
247
247
242
234
225
216
211
212
219
233
248
260
263
252
221
169
97
12
-77
-162
-232
-281
-304
-302
-280
-246
-212
-188
-180
-195
-230
-280
-338
-393
-436
-459
-459
-437
-397
-347
-297
-255
-229
-222
-234
-261
-297
-334
-366
-386
-393
-387
-371
-349
-327
-310
-301
-303
-314
-332
-353
-374
-391
-402
-406
-403
-396
-386
-376
-369
-366
-368
-374
-383
-395
-408
-423
-439
-457
-476
-496
-515
-532
-545
-552
-552
-543
-525
-501
-470
-438
-406
-378
-356
-344
-342
-350
-367
-391
-419
-447
-472
-488
-493
-486
-467
-438
-405
-373
-349
-341
-352
-386
-440
-509
-584
-655
-711
-741
-740
-706
-640
-550
-443
-328
-212
-98
14
129
254
400
575
788
1042
1339
1673
2036
2414
2794
3158
3491
3776
4000
4149
4215
4194
4085
3893
3630
3311
2955
2585
2221
1883
1583
1329
1124
961
832
726
632
541
446
347
246
147
56
-21
-80
-119
-141
-150
-152
-151
-155
-167
-190
-225
-269
-319
-370
-419
-461
-491
-508
-512
-502
-481
-453
-423
-395
-375
-366
-371
-391
-422
-463
-506
-548
-582
-603
-608
-596
-569
-530
-484
-436
-392
-356
-332
-322
-323
-335
-352
-371
-388
-399
-403
-399
-388
-375
-361
-350
-346
-352
-367
-391
-422
-456
-488
-514
-530
-535
-528
-508
-480
-447
-413
-384
-362
-353
-357
-373
-399
-431
-462
-488
-503
-503
-485
-450
-401
-342
-280
-223
-177
-147
-137
-147
-174
-214
-260
-305
-344
-372
-387
-387
-377
-358
-335
-313
-294
-280
-272
-268
-268
-268
-267
-261
-251
-236
-217
-195
-173
-152
-137
-127
-125
-133
-150
-176
-209
-246
-283
-316
-341
-354
-353
-335
-302
-256
-202
-146
-93
-49
-19
-4
-3
-15
-35
-59
-83
-103
-116
-120
-117
-107
-93
-76
-56
-36
-15
6
24
39
49
52
48
34
12
-14
-42
-66
-81
-82
-67
-33
17
78
145
209
264
302
320
314
287
241
183
121
62
15
-15
-23
-7
31
89
160
236
311
377
428
461
473
469
451
428
406
392
391
406
436
478
524
566
597
610
603
577
536
488
442
408
393
404
442
502
579
662
743
810
856
874
864
826
766
689
604
521
448
392
358
349
364
402
457
522
591
656
711
753
777
785
778
760
732
699
663
626
591
557
528
503
485
476
477
487
505
527
548
565
572
567
547
516
475
430
384
344
312
290
275
267
262
257
249
238
223
204
181
158
133
108
83
57
30
2
-27
-57
-86
-114
-139
-160
-178
-191
-202
-209
-215
-218
-220
-220
-218
-212
-203
-190
-174
-157
-139
-124
-115
-115
-125
-148
-181
-223
-269
-312
-348
-371
-378
-367
-342
-307
-269
-235
-210
-199
-202
-219
-246
-277
-308
-335
-354
-365
-368
-365
-358
-348
-337
-327
-316
-307
-300
-296
-295
-300
-310
-324
-341
-356
-366
-369
-362
-345
-321
-295
-270
-252
-245
-250
-266
-291
-318
-344
-362
-371
-368
-356
-339
-319
-301
-288
-283
-286
-296
-312
-332
-353
-373
-391
-404
-412
-411
-403
-387
-363
-335
-306
-280
-262
-256
-264
-285
-318
-356
-395
-426
-445
-449
-437
-411
-375
-334
-294
-259
-233
-216
-210
-213
-224
-240
-260
-282
-305
-326
-344
-356
-360
-354
-336
-309
-274
-237
-203
-178
-167
-170
-188
-218
-254
-289
-318
-335
-337
-324
-299
-265
-230
-198
-172
-156
-149
-150
-157
-167
-179
-190
-201
-211
-223
-236
-251
-268
-285
-302
-315
-322
-322
-313
-297
-273
-244
-212
-182
-155
-135
-123
-120
-125
-139
-157
-179
-200
-219
-234
-242
-244
-240
-229
-213
-192
-168
-141
-114
-88
-66
-49
-40
-41
-52
-73
-103
-137
-173
-206
-233
-249
-252
-243
-222
-195
-165
-139
-119
-109
-110
-120
-136
-154
-169
-178
-177
-168
-152
-135
-121
-115
-122
-142
-175
-216
-261
-303
-337
-358
-365
-357
-338
-310
-279
-249
-221
-198
-181
-167
-158
-152
-148
-144
-141
-136
-127
-112
-89
-58
-18
28
75
117
149
163
156
126
77
15
-51
-112
-159
-185
-186
-164
-122
-67
-8
47
93
126
145
152
153
151
150
152
157
166
174
180
181
175
165
151
138
130
132
146
173
214
263
316
367
410
439
451
443
418
379
331
282
238
205
187
187
205
237
279
322
359
382
385
363
316
247
161
68
-22
-98
-152
-179
-177
-149
-103
-49
1
36
48
34
-7
-68
-142
-220
-291
-346
-380
-392
-381
-353
-313
-268
-225
-188
-162
-148
-147
-158
-180
-210
-244
-280
-313
-340
-358
-366
-364
-352
-336
-319
-306
-301
-307
-325
-354
-389
-424
-453
-471
-475
-461
-433
-394
-349
-305
-269
-245
-234
-236
-251
-273
-298
-320
-335
-341
-338
-324
-304
-280
-255
-234
-219
-213
-217
-230
-252
-280
-312
-346
-378
-405
-424
-436
-438
-433
-420
-402
-381
-360
-342
-330
-327
-336
-357
-392
-438
-493
-551
-604
-644
-664
-657
-618
-549
-451
-332
-202
-69
57
172
278
380
490
623
793
1015
1294
1631
2016
2432
2856
3259
3615
3898
4091
4182
4171
4066
3878
3627
3333
3017
2695
2384
2095
1835
1606
1408
1237
1089
957
832
709
582
446
303
152
0
-147
-281
-395
-482
-539
-566
-565
-542
-505
-463
-423
-390
-367
-354
-348
-345
-340
-329
-308
-280
-244
-206
-173
-149
-141
-151
-182
-230
-290
-356
-421
-476
-516
-538
-540
-524
-495
-459
-420
-385
-358
-340
-332
-331
-336
-342
-346
-348
-346
-340
-333
-325
-317
-312
-309
-308
-307
-306
-302
-296
-288
-281
-276
-278
-287
-306
-334
-368
-406
-442
-471
-487
-488
-472
-441
-398
-350
-301
-258
-225
-206
-197
-198
-202
-204
-199
-183
-157
-123
-84
-46
-16
1
2
-15
-49
-96
-152
-211
-268
-318
-357
-384
-395
-390
-371
-338
-294
-243
-190
-142
-103
-78
-70
-79
-103
-138
-177
-214
-240
-253
-250
-232
-202
-165
-126
-91
-63
-45
-37
-38
-46
-61
-80
-100
-122
-141
-157
-166
-169
-162
-148
-126
-98
-69
-41
-17
2
16
26
34
43
52
62
71
74
69
50
18
-26
-78
-130
-172
-195
-194
-163
-105
-25
68
163
248
316
361
382
381
365
342
321
308
307
318
339
367
395
419
437
447
450
451
451
456
465
479
496
512
522
523
512
490
461
429
401
383
379
393
422
463
509
553
589
612
619
612
595
575
558
550
556
577
612
657
706
753
790
814
821
809
783
744
699
654
615
586
572
575
593
624
663
702
737
761
769
761
737
700
657
613
575
550
541
550
576
614
658
701
737
757
757
735
691
629
554
475
399
334
285
256
246
254
275
304
336
368
396
418
433
442
445
438
422
393
351
296
230
156
83
19
-27
-51
-48
-21
26
83
139
182
205
203
177
129
69
8
-48
-90
-115
-124
-120
-110
-100
-95
-98
-110
-126
-145
-161
-170
-171
-163
-149
-133
-119
-110
-108
-114
-128
-145
-164
-180
-191
-197
-198
-195
-191
-187
-186
-188
-195
-204
-216
-228
-239
-247
-252
-255
-255
-255
-254
-254
-253
-252
-251
-247
-239
-228
-215
-201
-188
-179
-175
-179
-191
-210
-235
-263
-290
-313
-328
-333
-325
-305
-275
-237
-195
-155
-120
-96
-87
-93
-116
-155
-204
-259
-314
-360
-393
-407
-399
-371
-326
-270
-211
-155
-111
-83
-76
-87
-115
-153
-195
-233
-261
-276
-276
-261
-234
-200
-163
-131
-106
-93
-94
-106
-128
-154
-180
-201
-213
-216
-209
-195
-179
-165
-158
-159
-170
-188
-209
-228
-238
-237
-221
-194
-159
-122
-90
-70
-66
-78
-104
-137
-171
-198
-213
-212
-198
-174
-145
-119
-101
-95
-103
-122
-148
-174
-196
-206
-203
-186
-156
-118
-76
-36
-1
26
42
47
41
26
6
-18
-44
-70
-92
-110
-124
-132
-135
-134
-130
-126
-122
-121
-121
-122
-123
-121
-114
-101
-81
-55
-25
7
36
58
69
66
47
15
-27
-77
-127
-170
-202
-215
-208
-180
-133
-74
-9
54
106
142
156
149
121
79
30
-19
-59
-86
-96
-91
-72
-44
-14
11
25
26
11
-18
-59
-107
-156
-200
-235
-255
-257
-241
-208
-160
-104
-45
10
53
81
89
76
45
0
-54
-109
-158
-196
-219
-225
-215
-192
-160
-125
-92
-65
-48
-41
-44
-56
-70
-83
-89
-81
-57
-13
49
127
214
300
377
434
464
463
431
371
293
207
125
57
14
-1
15
58
123
202
284
361
425
470
494
496
479
446
404
359
318
286
267
265
281
311
353
402
449
490
517
527
517
489
445
391
333
278
232
199
182
179
191
210
232
251
262
260
245
217
177
131
80
32
-13
-51
-82
-109
-131
-152
-173
-193
-213
-230
-243
-251
-252
-247
-236
-222
-206
-191
-178
-167
-157
-149
-139
-129
-118
-111
-110
-120
-144
-183
-237
-301
-368
-430
-477
-503
-504
-478
-430
-367
-299
-237
-188
-160
-156
-174
-208
-252
-298
-337
-366
-380
-381
-370
-352
-332
-315
-303
-299
-303
-312
-326
-342
-358
-371
-380
-385
-385
-380
-372
-360
-345
-329
-313
-298
-285
-275
-268
-263
-260
-258
-255
-251
-244
-234
-222
-209
-197
-190
-191
-203
-229
-270
-325
-390
-462
-532
-593
-638
-658
-648
-607
-534
-433
-307
-163
-4
165
344
534
740
966
1219
1502
1816
2157
2517
2884
3241
3570
3854
4075
4221
4280
4251
4134
3939
3677
3367
3028
2680
2342
2031
1758
1530
1347
1206
1097
1008
925
837
734
612
472
319
163
16
-109
-203
-260
-279
-265
-229
-183
-139
-109
-99
-113
-147
-196
-250
-299
-335
-352
-350
-332
-304
-275
-252
-242
-247
-268
-299
-337
-373
-402
-419
-421
-409
-385
-354
-320
-288
-261
-240
-226
-220
-220
-227
-238
-253
-270
-290
-312
-335
-356
-377
-393
-405
-411
-410
-402
-388
-368
-343
-317
-292
-272
-259
-256
-264
-282
-309
-341
-373
-399
-413
-412
-395
-362
-319
-270
-225
-189
-167
-163
-176
-203
-238
-274
-305
-326
-331
-321
-297
-261
-219
-178
-141
-116
-104
-108
-127
-161
-205
-254
-302
-341
-367
-375
-362
-331
-286
-231
-177
-130
-99
-88
-96
-122
-158
-197
-229
-248
-249
-231
-197
-153
-105
-62
-30
-15
-17
-36
-70
-114
-164
-215
-262
-301
-328
-341
-336
-312
-270
-211
-138
-57
27
103
166
206
219
205
165
105
32
-43
-112
-167
-201
-211
-198
-166
-120
-67
-15
30
65
88
100
103
103
104
110
124
147
177
211
245
275
297
309
310
301
285
266
246
230
220
216
219
227
239
252
266
280
294
308
325
344
365
390
417
446
477
507
537
566
591
611
627
636
636
626
608
581
551
520
495
480
480
496
529
576
632
689
742
783
810
820
816
801
780
757
738
723
714
709
706
703
697
689
677
664
653
647
645
650
660
673
686
696
699
695
682
663
639
614
591
574
566
567
577
593
613
633
647
653
648
631
603
566
524
478
433
391
353
321
292
265
239
215
191
170
152
138
130
126
125
125
123
117
106
90
70
48
27
9
-6
-15
-22
-28
-35
-44
-56
-71
-86
-100
-110
-116
-118
-120
-125
-136
-155
-184
-221
-264
-308
-348
-379
-398
-402
-393
-373
-346
-314
-281
-252
-225
-200
-177
-155
-133
-112
-94
-82
-79
-85
-101
-125
-153
-181
-203
-218
-222
-217
-207
-197
-195
-205
-232
-276
-333
-398
-460
-510
-538
-537
-506
-446
-364
-269
-175
-93
-34
-5
-8
-39
-93
-158
-225
-281
-321
-340
-338
-319
-290
-259
-233
-218
-217
-228
-249
-273
-295
-311
-318
-315
-306
-294
-283
-278
-281
-291
-304
-319
-328
-330
-321
-303
-278
-250
-226
-210
-207
-216
-237
-265
-293
-317
-330
-330
-318
-294
-265
-234
-206
-187
-178
-179
-190
-209
-233
-258
-282
-304
-321
-332
-337
-336
-327
-314
-297
-278
-260
-246
-237
-234
-237
-244
-252
-257
-256
-247
-229
-203
-173
-143
-118
-102
-100
-112
-137
-171
-211
-249
-282
-304
-313
-307
-289
-259
-223
-185
-148
-116
-92
-78
-75
-83
-99
-122
-149
-175
-198
-215
-222
-219
-206
-183
-155
-126
-101
-83
-76
-80
-95
-118
-144
-169
-187
-195
-191
-175
-149
-118
-87
-63
-50
-50
-63
-88
-121
-157
-190
-216
-231
-234
-225
-207
-184
-158
-133
-112
-97
-90
-88
-92
-98
-105
-111
-114
-115
-112
-107
-102
-99
-99
-102
-110
-120
-131
-141
-149
-153
-153
-150
-146
-144
-145
-150
-160
-171
-182
-188
-187
-177
-158
-132
-103
-75
-53
-40
-38
-46
-62
-81
-99
-114
-120
-118
-107
-90
-68
-45
-23
-2
14
26
32
35
34
29
24
20
20
27
44
70
105
147
192
234
269
293
303
301
287
268
248
231
221
219
225
237
252
268
285
302
319
338
361
387
415
440
460
470
467
450
421
384
345
309
283
271
274
290
315
343
369
384
387
373
345
304
254
200
147
97
54
20
-7
-27
-43
-57
-70
-84
-101
-122
-146
-171
-197
-223
-247
-269
-288
-304
-317
-327
-333
-335
-332
-323
-307
-285
-257
-224
-188
-152
-118
-88
-64
-48
-41
-42
-52
-70
-95
-125
-159
-194
-228
-259
-283
-299
-307
-306
-302
-295
-290
-289
-296
-312
-336
-365
-395
-424
-445
-455
-453
-437
-409
-371
-325
-276
-228
-183
-146
-119
-103
-101
-113
-136
-170
-211
-257
-302
-343
-376
-398
-409
-408
-397
-377
-354
-330
-310
-299
-299
-312
-337
-375
-422
-472
-521
-562
-589
-598
-587
-555
-502
-434
-355
-272
-188
-108
-32
43
120
210
321
465
650
883
1169
1505
1886
2297
2722
3141
3529
3865
4128
4301
4375
4348
4227
4022
3755
3445
3116
2790
2483
2208
1969
1767
1595
1445
1305
1165
1020
867
707
546
391
251
134
46
-13
-44
-56
-56
-54
-59
-77
-111
-159
-217
-278
-332
-372
-394
-394
-374
-338
-292
-245
-206
-181
-176
-193
-230
-283
-347
-411
-467
-505
-520
-504
-459
-386
-295
-195
-100
-22
27
42
18
-42
-130
-235
-343
-442
-521
-573
-595
-589
-560
-517
-466
-416
-373
-339
-318
-309
-311
-322
-342
-367
-397
-427
-456
-479
-492
-494
-481
-455
-415
-367
-315
-265
-224
-194
-179
-178
-189
-206
-226
-242
-251
-251
-244
-230
-215
-201
-191
-189
-195
-207
-225
-244
-262
-274
-279
-278
-271
-262
-252
-245
-243
-246
-254
-265
-276
-283
-285
-278
-263
-241
-214
-186
-160
-141
-130
-130
-138
-154
-175
-196
-215
-229
-236
-235
-227
-215
-198
-181
-163
-148
-134
-123
-113
-105
-97
-91
-87
-85
-87
-93
-104
-118
-135
-152
-167
-178
-182
-179
-168
-150
-127
-102
-77
-57
-43
-36
-37
-43
-53
-63
-71
-74
-68
-53
-28
5
44
86
128
167
201
227
245
254
255
251
243
234
226
223
224
232
244
262
282
302
320
334
342
345
344
341
340
343
352
370
396
428
465
502
535
559
571
569
551
518
474
422
368
317
276
250
246
264
307
372
455
550
648
740
818
877
910
918
903
869
823
773
724
683
654
637
632
636
648
662
676
685
688
684
672
651
624
593
561
532
511
502
508
528
560
600
640
673
691
688
661
611
544
467
391
327
284
267
279
314
367
427
482
521
537
525
484
418
334
241
148
64
-3
-49
-74
-81
-74
-58
-41
-26
-18
-18
-26
-39
-54
-69
-81
-89
-94
-97
-99
-101
-106
-112
-121
-130
-140
-149
-157
-165
-175
-187
-203
-224
-249
-275
-299
-319
-332
-334
-326
-308
-283
-256
-229
-208
-194
-190
-196
-211
-233
-259
-286
-311
-331
-345
-351
-348
-338
-321
-301
-280
-264
-256
-258
-272
-296
-330
-367
-404
-434
-454
-460
-451
-430
-402
-370
-343
-324
-319
-329
-353
-386
-424
-460
-486
-498
-492
-468
-428
-378
-326
-278
-244
-229
-234
-259
-300
-350
-399
-441
-469
-480
-473
-452
-421
-389
-361
-343
-337
-341
-354
-371
-389
-403
-412
-414
-412
-406
-400
-395
-391
-388
-385
-379
-371
-359
-344
-329
-316
-307
-305
-311
-326
-346
-369
-391
-409
-419
-419
-410
-391
-365
-337
-309
-287
-273
-271
-280
-300
-327
-357
-384
-403
-409
-401
-378
-344
-301
-258
-221
-196
-185
-190
-209
-238
-271
-300
-321
-329
-323
-304
-275
-242
-210
-183
-167
-163
-171
-190
-217
-248
-281
-312
-338
-359
-373
-379
-379
-372
-359
-341
-320
-298
-276
-257
-242
-233
-229
-229
-233
-237
-240
-238
-232
-221
-205
-189
-175
-166
-164
-172
-188
-212
-241
-272
-300
-323
-338
-345
-343
-331
-311
-281
-243
-201
-155
-110
-71
-41
-28
-33
-59
-104
-162
-227
-289
-340
-370
-376
-356
-315
-258
-195
-137
-91
-63
-57
-70
-99
-138
-180
-220
-255
-282
-301
-313
-319
-322
-322
-320
-317
-312
-308
-303
-298
-293
-289
-284
-276
-264
-245
-219
-186
-147
-106
-66
-30
-3
14
19
16
6
-7
-19
-26
-26
-18
-4
14
33
49
58
57
46
23
-10
-50
-92
-131
-160
-175
-171
-148
-106
-52
10
71
123
162
182
184
171
148
125
106
98
104
123
153
187
219
245
260
263
256
244
230
220
218
225
240
262
285
306
321
327
322
307
283
254
220
185
150
116
84
53
23
-7
-36
-65
-94
-121
-146
-170
-192
-212
-229
-243
-255
-263
-269
-271
-271
-270
-269
-269
-272
-278
-288
-301
-315
-328
-337
-341
-339
-331
-320
-306
-292
-282
-278
-282
-293
-311
-330
-349
-364
-371
-371
-361
-345
-326
-308
-295
-290
-294
-308
-330
-357
-386
-413
-433
-445
-447
-441
-428
-410
-392
-374
-360
-350
-346
-347
-353
-364
-377
-392
-409
-425
-440
-453
-461
-463
-459
-449
-432
-410
-386
-361
-337
-316
-297
-282
-270
-259
-251
-244
-239
-238
-244
-258
-284
-321
-369
-424
-482
-538
-582
-610
-615
-597
-555
-494
-418
-334
-246
-157
-67
29
139
273
442
655
921
1241
1610
2019
2450
2882
3290
3652
3947
4158
4275
4296
4224
4068
3840
3557
3234
2889
2537
2192
1865
1566
1304
1083
906
770
670
598
544
495
440
371
283
175
52
-78
-203
-311
-393
-442
-456
-438
-396
-339
-280
-230
-199
-192
-212
-256
-317
-389
-459
-519
-559
-571
-554
-508
-439
-353
-263
-180
-114
-76
-68
-92
-145
-219
-302
-386
-457
-508
-534
-533
-508
-466
-412
-356
-303
-260
-231
-214
-211
-219
-234
-254
-274
-292
-307
-317
-321
-320
-316
-309
-303
-298
-298
-304
-316
-335
-359
-386
-412
-435
-450
-454
-444
-420
-383
-334
-278
-220
-168
-129
-108
-111
-140
-193
-265
-348
-434
-510
-567
-597
-594
-561
-500
-420
-333
-250
-180
-132
-108
-108
-126
-154
-182
-203
-209
-199
-173
-134
-90
-49
-17
0
0
-19
-52
-97
-148
-198
-243
-280
-305
-317
-316
-304
-282
-254
-222
-191
-162
-141
-129
-128
-136
-151
-169
-186
-196
-195
-181
-154
-115
-69
-22
21
52
68
68
53
24
-12
-50
-84
-111
-128
-133
-127
-112
-89
-60
-29
4
36
65
91
111
125
131
130
123
111
99
89
84
86
96
114
137
162
187
209
224
233
237
237
235
233
234
238
247
260
278
300
324
350
375
398
416
428
433
428
415
396
377
360
353
361
386
430
491
564
641
716
781
829
857
863
850
821
782
740
701
668
646
636
636
646
661
678
693
704
707
700
683
654
617
575
533
496
470
459
466
493
538
597
663
729
785
827
847
844
819
776
721
662
607
561
529
512
507
512
520
527
529
521
503
474
437
394
347
299
253
209
168
133
106
86
75
74
82
96
112
127
136
135
123
99
67
31
-1
-24
-32
-23
1
36
75
109
128
124
96
41
-33
-119
-206
-282
-338
-367
-367
-341
-296
-241
-188
-147
-126
-127
-152
-194
-248
-304
-355
-395
-419
-426
-420
-403
-381
-356
-333
-312
-293
-276
-259
-241
-222
-204
-189
-179
-176
-181
-194
-212
-232
-251
-266
-275
-278
-276
-272
-270
-273
-282
-299
-321
-346
-369
-386
-394
-391
-377
-355
-330
-306
-290
-286
-296
-320
-356
-398
-440
-476
-499
-503
-487
-453
-404
-347
-289
-239
-203
-187
-192
-217
-257
-309
-362
-412
-450
-473
-479
-468
-442
-406
-366
-327
-297
-279
-276
-289
-317
-357
-402
-448
-486
-512
-521
-512
-484
-442
-388
-330
-275
-228
-196
-180
-182
-200
-232
-272
-315
-356
-391
-417
-431
-434
-425
-406
-379
-348
-314
-281
-251
-228
-211
-204
-205
-216
-234
-258
-287
-316
-345
-368
-384
-390
-385
-368
-340
-303
-261
-219
-179
-147
-125
-117
-121
-136
-160
-189
-219
-246
-270
-289
-304
-317
-329
-343
-359
-376
-392
-404
-412
-411
-401
-380
-350
-314
-274
-234
-199
-169
-148
-137
-135
-142
-157
-176
-199
-223
-244
-261
-271
-276
-274
-266
-256
-245
-237
-232
-234
-241
-253
-268
-284
-297
-306
-308
-304
-294
-279
-260
-239
-219
-201
-188
-181
-181
-188
-203
-226
-253
-283
-312
-336
-353
-361
-360
-350
-332
-311
-290
-270
-254
-242
-235
-232
-232
-235
-241
-249
-258
-270
-283
-294
-301
-302
-293
-274
-245
-210
-172
-136
-107
-90
-84
-90
-104
-119
-131
-133
-123
-100
-66
-26
13
43
61
61
45
13
-27
-70
-110
-141
-158
-160
-148
-125
-95
-60
-25
9
40
67
91
113
135
155
174
191
206
217
224
229
233
236
241
250
261
276
292
306
314
315
304
282
248
208
165
125
94
77
74
87
112
143
174
197
207
199
172
129
75
16
-42
-91
-130
-156
-171
-177
-180
-184
-193
-209
-232
-259
-286
-309
-323
-325
-313
-289
-255
-215
-177
-146
-127
-123
-135
-162
-200
-243
-285
-320
-343
-350
-342
-321
-292
-260
-231
-211
-202
-205
-219
-242
-270
-299
-326
-351
-373
-392
-411
-428
-445
-459
-468
-468
-457
-433
-396
-350
-299
-251
-211
-184
-175
-183
-206
-239
-275
-309
-334
-348
-350
-344
-333
-324
-320
-326
-341
-365
-393
-417
-433
-434
-416
-381
-330
-271
-210
-156
-118
-102
-111
-147
-204
-279
-362
-447
-527
-594
-645
-678
-691
-685
-660
-618
-560
-486
-396
-291
-170
-33
122
296
490
708
951
1222
1521
1846
2192
2551
2911
3255
3566
3825
4016
4125
4144
4072
3914
3683
3396
3073
2735
2403
2094
1818
1581
1383
1220
1084
965
853
740
621
494
359
221
86
-40
-151
-242
-308
-349
-367
-366
-350
-325
-298
-273
-256
-248
-251
-263
-280
-301
-321
-337
-346
-347
-340
-328
-313
-298
-288
-286
-291
-305
-326
-349
-372
-389
-397
-393
-377
-348
-310
-266
-222
-182
-151
-131
-125
-132
-153
-183
-220
-259
-297
-329
-352
-366
-369
-362
-347
-328
-308
-289
-277
-272
-277
-290
-309
-331
-350
-362
-364
-350
-322
-280
-228
-173
-121
-80
-56
-54
-74
-114
-167
-227
-284
-328
-354
-356
-336
-297
-247
-193
-145
-111
-95
-97
-116
-146
-182
-216
-242
-256
-257
-245
-222
-194
-163
-133
-106
-85
-68
-58
-54
-57
-68
-87
-114
-149
-188
-228
-263
-287
-294
-279
-242
-184
-113
-36
35
89
118
116
81
20
-60
-144
-221
-276
-301
-290
-245
-173
-83
11
96
163
204
217
203
170
123
73
27
-8
-28
-33
-23
-1
28
61
94
123
146
160
164
161
152
139
126
117
116
125
146
176
214
256
297
333
362
383
395
400
399
393
383
367
346
317
282
242
201
163
135
124
134
166
220
289
368
448
519
575
614
635
642
641
639
642
654
675
705
738
768
791
800
796
779
754
725
700
684
678
684
699
718
735
746
744
729
702
666
628
594
571
564
575
605
651
708
769
830
882
922
945
950
938
910
870
822
770
722
682
655
644
651
675
711
755
800
837
859
859
836
789
722
642
558
479
413
368
346
346
366
399
437
472
496
504
493
461
412
351
283
217
158
112
83
72
78
97
122
148
167
174
164
138
97
47
-8
-61
-104
-133
-145
-140
-122
-95
-66
-39
-19
-10
-12
-22
-38
-56
-73
-86
-95
-102
-107
-115
-128
-149
-175
-206
-236
-263
-282
-288
-281
-262
-234
-201
-171
-148
-137
-140
-155
-179
-206
-229
-244
-247
-235
-210
-178
-144
-114
-93
-86
-94
-114
-141
-170
-194
-207
-208
-195
-173
-146
-119
-100
-93
-101
-125
-161
-204
-248
-288
-318
-336
-339
-329
-308
-279
-248
-219
-199
-190
-197
-219
-257
-307
-365
-425
-478
-517
-535
-529
-498
-444
-373
-295
-220
-157
-114
-95
-99
-123
-160
-201
-236
-261
-270
-263
-244
-218
-192
-171
-161
-164
-179
-206
-242
-281
-322
-360
-394
-421
-440
-451
-452
-443
-423
-393
-354
-308
-260
-212
-170
-138
-119
-114
-125
-150
-184
-224
-264
-298
-321
-331
-327
-309
-280
-244
-206
-171
-144
-127
-121
-127
-141
-161
-183
-203
-218
-226
-226
-219
-205
-186
-164
-141
-120
-102
-89
-83
-83
-90
-103
-119
-137
-152
-163
-168
-166
-160
-151
-143
-142
-149
-166
-192
-226
-261
-292
-313
-320
-310
-285
-247
-203
-158
-120
-92
-79
-80
-92
-112
-134
-154
-169
-178
-181
-180
-177
-174
-174
-174
-174
-173
-167
-157
-143
-128
-113
-104
-104
-115
-136
-167
-203
-237
-264
-277
-273
-251
-214
-166
-116
-70
-36
-20
-22
-43
-78
-121
-165
-203
-231
-245
-245
-234
-215
-194
-176
-165
-163
-170
-183
-200
-216
-225
-225
-212
-186
-148
-103
-55
-10
28
54
65
61
43
15
-19
-55
-88
-114
-130
-133
-125
-106
-79
-46
-11
23
52
74
89
96
94
88
77
67
58
54
57
68
87
112
140
170
199
224
243
253
256
252
244
235
227
225
230
244
264
288
314
335
349
353
346
330
309
288
273
269
276
295
321
350
375
390
391
377
352
319
284
255
233
221
213
205
189
158
107
35
-53
-147
-237
-309
-353
-363
-336
-279
-202
-120
-49
-2
14
-5
-55
-127
-206
-279
-332
-359
-354
-320
-264
-197
-129
-73
-37
-25
-38
-73
-125
-185
-246
-302
-346
-376
-391
-391
-379
-358
-331
-301
-274
-251
-236
-229
-231
-241
-256
-271
-284
-290
-287
-273
-249
-219
-186
-155
-131
-117
-115
-126
-146
-174
-205
-235
-262
-284
-299
-306
-305
-297
-283
-265
-244
-222
-201
-184
-173
-170
-176
-191
-212
-237
-263
-288
-310
-328
-342
-356
-372
-393
-421
-457
-498
-540
-579
-606
-616
-604
-567
-505
-420
-317
-201
-76
55
193
340
503
687
899
1144
1424
1737
2074
2426
2779
3119
3434
3709
3936
4105
4212
4252
4223
4123
3956
3724
3436
3107
2753
2393
2051
1744
1488
1290
1150
1060
1005
967
927
870
785
671
532
380
228
91
-21
-101
-147
-162
-154
-132
-107
-86
-74
-74
-84
-103
-127
-153
-178
-200
-217
-227
-230
-225
-211
-190
-162
-132
-103
-79
-65
-65
-81
-113
-159
-213
-270
-324
-367
-395
-407
-404
-389
-367
-345
-325
-313
-310
-312
-318
-324
-325
-319
-306
-290
-273
-262
-259
-266
-283
-308
-333
-353
-362
-355
-333
-295
-248
-198
-152
-117
-95
-90
-101
-123
-154
-187
-221
-251
-276
-296
-312
-324
-334
-342
-348
-350
-350
-346
-338
-323
-301
-271
-233
-186
-132
-75
-17
34
75
98
101
81
39
-20
-91
-167
-239
-300
-345
-372
-380
-371
-350
-321
-290
-259
-232
-210
-193
-178
-163
-147
-127
-103
-74
-42
-10
19
43
58
64
59
47
28
6
-16
-33
-45
-50
-48
-42
-32
-22
-13
-6
-1
4
9
16
27
41
57
73
86
96
99
96
86
73
60
50
46
52
66
90
120
153
184
211
230
239
239
231
218
204
193
189
192
204
224
249
275
300
318
328
327
316
298
275
252
235
228
234
254
288
332
383
434
481
518
544
556
558
553
547
543
547
561
583
612
644
671
691
699
694
679
658
636
620
614
622
644
677
717
759
798
830
854
870
881
887
893
897
900
899
891
874
847
811
770
729
696
677
678
700
742
800
862
921
965
986
981
948
894
824
750
681
626
590
576
582
603
632
661
685
697
696
683
660
630
598
566
538
514
493
472
449
422
389
352
311
269
230
194
164
140
121
107
95
84
73
63
54
47
43
42
43
44
44
39
27
9
-14
-39
-63
-81
-90
-88
-75
-54
-28
-2
21
34
37
28
8
-20
-53
-87
-117
-139
-150
-149
-136
-111
-79
-43
-9
17
30
26
5
-34
-86
-144
-200
-246
-276
-283
-269
-234
-187
-135
-88
-55
-42
-52
-84
-132
-189
-244
-289
-316
-321
-303
-264
-208
-145
-81
-24
20
44
48
32
-3
-51
-107
-162
-212
-249
-269
-268
-248
-210
-160
-105
-54
-18
-3
-14
-53
-116
-197
-286
-369
-434
-472
-475
-442
-375
-285
-181
-80
6
65
91
83
43
-20
-97
-174
-242
-291
-317
-317
-293
-252
-198
-140
-84
-37
-2
17
19
5
-25
-67
-117
-170
-223
-269
-303
-325
-331
-322
-301
-272
-241
-213
-194
-185
-186
-197
-213
-228
-237
-236
-221
-192
-151
-102
-53
-7
28
51
58
51
32
6
-24
-52
-75
-92
-102
-106
-107
-105
-105
-106
-110
-118
-128
-140
-152
-163
-172
-177
-179
-175
-165
-150
-127
-100
-68
-36
-6
20
38
47
48
41
29
14
-1
-14
-24
-31
-38
-46
-55
-69
-85
-104
-122
-137
-145
-146
-141
-130
-119
-112
-112
-120
-137
-160
-185
-204
-214
-210
-192
-160
-121
-80
-44
-17
-3
-1
-9
-20
-28
-28
-15
11
45
83
114
133
131
106
59
-5
-77
-147
-204
-239
-250
-234
-196
-146
-91
-42
-7
8
2
-23
-61
-107
-153
-192
-221
-236
-237
-226
-206
-179
-148
-114
-78
-40
-1
40
81
120
154
183
202
213
214
206
191
172
151
130
109
90
73
56
40
24
9
-5
-17
-25
-25
-18
0
29
68
117
175
237
301
362
416
458
483
489
476
444
399
344
290
243
211
201
214
250
305
371
440
501
546
569
566
537
488
426
360
301
257
234
235
258
299
349
400
442
467
470
448
401
335
256
173
91
18
-41
-85
-113
-129
-133
-130
-122
-111
-100
-87
-74
-61
-49
-40
-34
-33
-38
-49
-65
-84
-103
-120
-134
-142
-147
-150
-154
-161
-172
-189
-209
-231
-250
-263
-267
-263
-249
-228
-205
-184
-169
-163
-165
-175
-191
-208
-222
-231
-232
-225
-213
-196
-177
-158
-141
-129
-120
-117
-120
-129
-145
-170
-203
-243
-287
-332
-373
-404
-421
-421
-404
-372
-328
-277
-228
-184
-152
-134
-131
-142
-165
-196
-230
-263
-290
-308
-315
-308
-288
-260
-227
-195
-173
-167
-182
-218
-274
-342
-411
-469
-504
-506
-467
-387
-268
-119
52
238
432
632
841
1065
1310
1585
1894
2235
2604
2988
3369
3726
4039
4286
4452
4525
4500
4379
4169
3886
3549
3179
2801
2437
2105
1821
1592
1419
1296
1212
1152
1099
1038
960
858
734
594
449
310
189
95
31
-2
-9
2
23
43
55
53
36
5
-39
-89
-142
-193
-238
-275
-305
-325
-336
-339
-333
-317
-292
-257
-215
-168
-123
-84
-58
-50
-65
-103
-163
-238
-321
-402
-470
-516
-534
-522
-481
-416
-337
-253
-176
-114
-74
-58
-64
-89
-125
-165
-203
-233
-251
-256
-250
-236
-218
-200
-186
-178
-176
-181
-191
-203
-216
-228
-236
-242
-242
-239
-232
-221
-208
-194
-179
-166
-154
-145
-139
-135
-133
-132
-129
-123
-114
-102
-87
-71
-57
-46
-39
-39
-44
-56
-72
-91
-110
-128
-143
-153
-158
-156
-149
-134
-114
-89
-62
-37
-18
-6
-7
-20
-45
-79
-116
-150
-176
-188
-184
-166
-138
-106
-78
-58
-50
-56
-72
-93
-111
-119
-113
-92
-56
-11
36
77
105
117
114
97
73
48
29
20
22
33
50
69
85
96
102
103
105
110
122
144
174
210
246
277
297
301
289
261
220
173
128
90
65
58
67
93
130
173
216
254
284
302
308
306
297
287
280
281
292
314
348
390
436
481
519
546
559
557
542
517
488
461
442
437
447
472
511
561
615
670
720
762
795
817
830
834
833
826
817
805
791
777
762
748
737
729
726
728
735
745
755
765
771
772
768
760
749
738
731
729
733
743
758
774
789
800
806
806
800
790
777
764
750
737
726
714
703
690
675
661
646
631
617
604
590
574
554
531
502
470
435
400
368
340
316
295
275
253
227
194
154
109
62
17
-20
-46
-57
-52
-31
2
43
84
119
142
148
134
99
44
-27
-108
-192
-271
-337
-385
-408
-406
-379
-330
-267
-195
-124
-63
-16
11
18
5
-23
-63
-108
-153
-193
-226
-249
-260
-260
-250
-231
-206
-178
-150
-126
-109
-102
-109
-129
-162
-204
-250
-296
-335
-362
-373
-368
-348
-316
-280
-245
-218
-202
-200
-209
-226
-244
-259
-264
-257
-236
-206
-173
-144
-126
-125
-146
-187
-246
-315
-386
-449
-496
-521
-521
-496
-451
-391
-324
-258
-201
-158
-133
-126
-138
-164
-200
-241
-283
-321
-351
-372
-383
-385
-377
-363
-344
-322
-299
-276
-256
-241
-231
-230
-238
-256
-280
-310
-341
-368
-387
-393
-382
-357
-318
-272
-225
-185
-159
-152
-163
-191
-231
-275
-315
-343
-357
-353
-335
-307
-276
-249
-231
-228
-237
-258
-284
-309
-327
-334
-325
-302
-268
-227
-186
-150
-126
-116
-121
-140
-171
-208
-247
-282
-309
-325
-327
-317
-295
-265
-231
-196
-164
-138
-120
-110
-109
-116
-128
-145
-163
-182
-198
-213
-223
-228
-228
-221
-209
-192
-172
-151
-131
-114
-105
-103
-110
-124
-143
-163
-180
-190
-190
-180
-160
-136
-110
-90
-80
-83
-102
-136
-181
-234
-287
-335
-372
-394
-400
-389
-364
-329
-289
-249
-214
-188
-176
-178
-193
-217
-247
-275
-296
-303
-293
-263
-216
-156
-91
-27
24
57
67
53
16
-39
-103
-170
-230
-279
-311
-326
-322
-303
-272
-232
-188
-144
-105
-74
-55
-49
-58
-79
-111
-147
-182
-209
-223
-220
-200
-166
-123
-78
-39
-11
2
-2
-18
-41
-64
-79
-80
-66
-37
4
50
94
129
150
155
145
122
93
64
39
22
14
15
20
28
34
37
37
36
37
44
62
92
135
189
247
304
354
389
406
403
382
349
309
270
239
223
225
244
280
326
376
422
455
470
463
434
383
316
241
166
98
45
12
-2
3
21
44
66
78
75
54
16
-38
-101
-168
-231
-286
-328
-356
-370
-373
-367
-357
-345
-336
-330
-328
-330
-334
-338
-340
-338
-331
-319
-304
-286
-269
-256
-250
-253
-265
-286
-315
-347
-379
-406
-425
-433
-428
-413
-389
-359
-326
-295
-269
-249
-236
-231
-231
-237
-246
-258
-270
-284
-297
-309
-321
-330
-339
-346
-354
-363
-376
-392
-413
-438
-467
-497
-525
-548
-561
-561
-547
-518
-475
-422
-364
-306
-255
-217
-195
-191
-206
-237
-278
-323
-366
-402
-426
-436
-433
-420
-402
-382
-367
-358
-357
-364
-377
-391
-401
-400
-383
-342
-270
-160
-6
195
447
749
1099
1488
1905
2333
2755
3152
3507
3804
4032
4182
4253
4244
4160
4008
3796
3536
3238
2914
2578
2243
1920
1622
1356
1129
941
789
668
568
481
399
316
228
136
42
-49
-134
-208
-268
-313
-342
-357
-360
-354
-341
-325
-308
-293
-285
-286
-298
-322
-356
-398
-443
-486
-521
-544
-550
-539
-513
-476
-431
-384
-340
-301
-270
-249
-236
-232
-235
-244
-260
-280
-306
-335
-365
-393
-416
-432
-438
-434
-421
-402
-381
-363
-351
-350
-362
-385
-417
-454
-491
-521
-540
-543
-529
-496
-447
-386
-319
-251
-190
-142
-111
-100
-109
-136
-176
-224
-272
-312
-339
-349
-341
-318
-284
-246
-213
-192
-189
-207
-244
-296
-355
-411
-454
-477
-473
-442
-387
-315
-237
-164
-106
-71
-63
-82
-124
-182
-246
-306
-353
-382
-390
-377
-347
-305
-257
-212
-174
-147
-131
-126
-128
-134
-141
-145
-144
-138
-130
-122
-116
-116
-123
-136
-154
-171
-183
-185
-177
-155
-122
-83
-43
-9
14
23
16
-3
-30
-59
-84
-99
-104
-98
-84
-68
-57
-56
-66
-89
-122
-157
-189
-209
-212
-193
-151
-91
-17
63
141
211
268
310
335
347
347
339
325
309
291
274
257
242
229
221
219
224
239
262
291
323
354
379
394
398
390
374
354
336
326
328
344
375
415
460
503
537
557
563
555
537
517
502
497
507
532
570
618
670
718
757
785
799
800
790
774
755
735
718
705
697
694
696
703
715
733
754
776
796
810
816
809
788
754
710
662
615
578
555
551
566
598
642
689
732
763
778
772
748
709
662
612
567
532
508
497
495
499
503
502
493
473
441
400
351
298
243
191
144
102
70
46
34
33
43
65
95
132
170
203
225
232
219
184
131
65
-6
-73
-128
-163
-174
-163
-132
-91
-47
-11
8
6
-20
-66
-127
-195
-262
-319
-361
-383
-386
-370
-340
-299
-255
-211
-173
-145
-129
-126
-135
-156
-184
-216
-247
-272
-287
-290
-280
-260
-233
-205
-180
-163
-157
-163
-179
-201
-224
-242
-253
-253
-243
-225
-204
-184
-169
-164
-170
-189
-219
-257
-300
-343
-385
-420
-446
-460
-460
-445
-415
-372
-321
-266
-216
-175
-151
-148
-166
-204
-254
-311
-365
-407
-431
-434
-416
-380
-332
-279
-229
-188
-160
-145
-143
-152
-168
-189
-212
-236
-262
-287
-313
-337
-359
-376
-386
-387
-379
-362
-337
-309
-281
-258
-241
-232
-231
-236
-243
-247
-246
-238
-223
-203
-182
-166
-158
-163
-185
-222
-271
-326
-380
-424
-452
-459
-443
-406
-353
-293
-234
-185
-151
-137
-143
-166
-201
-240
-277
-306
-323
-326
-317
-297
-271
-243
-216
-195
-180
-176
-181
-195
-217
-243
-271
-294
-309
-310
-293
-259
-209
-147
-81
-19
28
53
49
16
-43
-122
-209
-294
-365
-413
-434
-427
-396
-349
-292
-237
-191
-158
-140
-137
-145
-158
-170
-178
-178
-169
-154
-135
-116
-101
-91
-89
-94
-103
-113
-119
-120
-113
-99
-80
-59
-42
-34
-38
-55
-86
-127
-172
-216
-254
-281
-296
-299
-294
-284
-274
-265
-259
-256
-253
-247
-236
-218
-194
-166
-139
-117
-106
-107
-122
-149
-185
-222
-256
-281
-293
-290
-273
-245
-210
-173
-137
-107
-86
-74
-71
-73
-79
-83
-82
-73
-55
-26
12
55
98
136
162
172
165
139
100
51
1
-43
-75
-89
-85
-62
-25
23
73
122
163
192
208
211
203
187
166
145
126
112
105
107
116
132
153
179
206
236
266
298
329
360
387
408
420
421
409
382
343
295
246
200
165
147
146
162
192
227
260
283
289
275
240
187
123
53
-15
-77
-129
-170
-201
-227
-249
-273
-298
-327
-357
-386
-412
-430
-437
-431
-411
-380
-339
-293
-246
-202
-166
-141
-129
-130
-144
-168
-199
-230
-258
-278
-288
-288
-279
-264
-248
-234
-228
-231
-246
-271
-304
-340
-376
-406
-429
-442
-446
-440
-427
-410
-389
-366
-344
-324
-306
-294
-288
-289
-299
-318
-345
-375
-407
-434
-454
-462
-455
-433
-400
-358
-313
-273
-243
-227
-230
-253
-294
-351
-416
-483
-544
-590
-615
-615
-589
-538
-470
-393
-318
-258
-223
-218
-245
-300
-375
-456
-528
-577
-593
-568
-500
-394
-258
-100
69
243
418
595
780
983
1213
1478
1781
2123
2494
2882
3266
3624
3930
4162
4300
4334
4258
4078
3808
3467
3081
2677
2281
1915
1597
1333
1127
969
852
758
676
592
500
395
280
160
43
-63
-150
-214
-255
-274
-276
-266
-251
-235
-223
-214
-211
-213
-219
-227
-238
-251
-266
-284
-303
-323
-341
-354
-361
-362
-356
-344
-330
-316
-306
-303
-307
-319
-338
-362
-388
-412
-431
-443
-446
-440
-424
-399
-369
-335
-300
-269
-244
-229
-225
-233
-252
-278
-307
-335
-359
-373
-377
-371
-359
-343
-328
-319
-318
-327
-343
-363
-383
-397
-401
-392
-368
-333
-290
-244
-202
-171
-154
-154
-169
-198
-234
-273
-307
-333
-345
-342
-326
-299
-266
-231
-198
-172
-153
-144
-144
-150
-161
-175
-190
-206
-221
-235
-248
-256
-261
-260
-252
-238
-219
-198
-178
-162
-153
-154
-164
-181
-202
-223
-238
-243
-236
-218
-190
-156
-121
-90
-65
-51
-46
-50
-61
-77
-95
-114
-132
-147
-157
-159
-152
-132
-100
-54
1
62
120
166
193
194
166
111
38
-46
-126
-190
-229
-235
-208
-153
-81
-1
73
132
168
180
169
143
108
73
46
31
29
41
63
92
123
153
182
209
233
256
279
301
322
341
358
370
379
383
383
382
381
381
381
384
388
394
399
405
411
419
428
440
456
476
500
527
556
583
607
625
636
640
637
630
621
615
614
618
631
650
674
699
722
741
753
759
759
756
754
754
761
774
790
807
819
821
810
784
743
693
639
589
550
527
525
544
580
627
678
727
765
791
801
798
784
765
745
729
719
715
714
713
705
685
651
599
530
449
362
276
202
145
111
102
116
146
185
223
250
259
244
206
149
80
7
-58
-108
-136
-140
-120
-81
-30
24
72
108
126
125
104
68
22
-26
-71
-109
-135
-150
-153
-150
-145
-142
-146
-158
-180
-209
-243
-278
-309
-334
-349
-356
-353
-341
-324
-301
-275
-246
-215
-183
-152
-126
-107
-100
-107
-132
-174
-229
-292
-356
-411
-452
-472
-470
-447
-408
-359
-311
-270
-244
-236
-245
-271
-306
-346
-383
-412
-431
-438
-434
-423
-406
-389
-373
-359
-347
-338
-330
-320
-307
-291
-272
-250
-228
-208
-193
-186
-186
-194
-211
-236
-266
-299
-333
-365
-393
-415
-429
-435
-432
-420
-401
-375
-346
-315
-287
-265
-250
-247
-254
-274
-302
-337
-372
-404
-428
-440
-439
-425
-400
-369
-337
-308
-287
-278
-282
-299
-326
-360
-396
-430
-459
-479
-488
-486
-471
-446
-412
-372
-328
-284
-243
-209
-185
-175
-179
-197
-229
-271
-318
-364
-403
-430
-440
-434
-411
-377
-337
-296
-262
-240
-232
-238
-256
-281
-307
-330
-344
-347
-339
-322
-300
-278
-260
-250
-249
-256
-269
-284
-297
-306
-306
-297
-280
-255
-228
-200
-176
-159
-148
-146
-150
-159
-171
-183
-192
-199
-203
-207
-210
-216
-226
-241
-260
-281
-302
-319
-330
-333
-328
-316
-300
-286
-276
-274
-280
-295
-314
-332
-344
-345
-331
-301
-258
-206
-154
-109
-78
-65
-72
-97
-136
-181
-226
-262
-285
-291
-281
-256
-222
-185
-149
-121
-103
-99
-109
-133
-167
-208
-253
-297
-336
-366
-385
-390
-381
-361
-331
-297
-262
-230
-206
-191
-184
-186
-192
-199
-202
-200
-189
-172
-147
-119
-90
-63
-39
-21
-7
1
5
4
-1
-11
-25
-43
-64
-86
-105
-121
-129
-129
-121
-106
-88
-69
-53
-43
-38
-38
-40
-38
-30
-12
17
55
101
148
194
231
258
272
274
267
253
234
213
193
175
160
150
144
145
154
172
197
229
264
299
327
345
348
335
306
265
215
164
115
75
46
29
24
26
34
43
48
46
35
13
-19
-60
-106
-154
-200
-240
-269
-286
-290
-282
-266
-246
-228
-218
-219
-234
-261
-296
-332
-363
-381
-380
-360
-322
-271
-214
-161
-121
-100
-102
-126
-169
-224
-281
-332
-369
-387
-386
-367
-335
-296
-258
-227
-207
-201
-207
-223
-246
-270
-293
-311
-325
-334
-340
-347
-356
-368
-383
-402
-421
-439
-452
-461
-464
-462
-458
-453
-450
-450
-453
-459
-465
-469
-467
-459
-445
-425
-404
-384
-368
-359
-357
-360
-367
-374
-378
-379
-376
-373
-374
-384
-406
-443
-491
-546
-597
-636
-651
-634
-579
-486
-358
-199
-16
182
394
618
855
1110
1387
1689
2015
2359
2712
3059
3383
3667
3894
4051
4129
4126
4043
3888
3672
3408
3112
2800
2485
2181
1897
1642
1419
1231
1076
949
848
766
699
642
591
544
496
444
387
323
250
171
86
0
-81
-150
-202
-233
-242
-230
-205
-172
-142
-123
-120
-136
-171
-221
-279
-338
-391
-434
-464
-481
-486
-484
-477
-469
-462
-458
-456
-457
-459
-461
-463
-463
-460
-454
-444
-429
-409
-385
-359
-334
-312
-296
-290
-294
-309
-334
-366
-399
-429
-451
-462
-460
-445
-417
-381
-341
-300
-264
-235
-214
-202
-198
-200
-206
-216
-228
-242
-258
-278
-300
-326
-354
-380
-402
-417
-420
-410
-387
-355
-318
-281
-250
-231
-228
-240
-267
-304
-345
-384
-414
-430
-431
-415
-386
-347
-303
-259
-219
-186
-163
-150
-147
-154
-168
-188
-212
-236
-257
-273
-282
-282
-273
-255
-232
-206
-181
-162
-150
-149
-157
-173
-193
-215
-233
-245
-248
-244
-234
-219
-205
-194
-190
-195
-207
-226
-249
-272
-291
-304
-309
-303
-286
-261
-228
-189
-149
-110
-74
-43
-20
-4
3
3
-4
-14
-26
-36
-43
-44
-38
-26
-10
8
25
38
45
42
28
6
-23
-53
-81
-100
-106
-95
-65
-16
49
126
209
290
362
419
456
471
466
443
409
369
332
303
287
288
304
334
371
409
442
463
469
459
436
404
371
346
337
348
384
441
514
593
669
731
770
782
765
724
665
599
535
484
452
442
452
480
519
566
612
656
694
724
746
760
765
762
750
730
700
665
626
588
554
528
513
509
516
530
547
562
570
567
553
528
495
458
421
389
366
353
350
354
364
374
379
375
361
333
292
241
183
122
64
13
-27
-55
-69
-71
-62
-48
-32
-17
-8
-6
-14
-32
-58
-91
-128
-167
-206
-242
-273
-298
-317
-330
-338
-342
-344
-344
-345
-347
-350
-354
-358
-359
-358
-352
-341
-324
-304
-282
-262
-245
-236
-235
-244
-263
-290
-323
-358
-392
-421
-442
-452
-450
-436
-412
-382
-351
-323
-304
-298
-307
-331
-368
-412
-458
-498
-527
-539
-532
-506
-466
-417
-367
-323
-290
-273
-274
-290
-319
-355
-394
-430
-459
-479
-488
-487
-477
-461
-442
-422
-405
-394
-388
-388
-394
-405
-417
-429
-436
-439
-435
-428
-417
-408
-404
-406
-416
-435
-459
-485
-508
-524
-529
-523
-506
-481
-451
-421
-395
-374
-361
-355
-355
-362
-373
-389
-412
-441
-478
-520
-565
-607
-642
-663
-665
-646
-607
-552
-487
-421
-365
-326
-309
-316
-345
-391
-445
-499
-545
-577
-592
-589
-572
-544
-513
-483
-458
-443
-438
-442
-455
-473
-494
-514
-529
-539
-542
-537
-523
-502
-476
-447
-419
-395
-378
-369
-368
-374
-386
-401
-416
-431
-443
-451
-456
-459
-460
-461
-462
-461
-459
-455
-447
-437
-425
-413
-404
-399
-401
-409
-421
-434
-444
-448
-442
-424
-396
-360
-320
-282
-250
-230
-222
-226
-241
-262
-285
-305
-319
-325
-326
-321
-314
-309
-307
-311
-321
-336
-352
-366
-378
-383
-381
-374
-362
-347
-334
-323
-319
-321
-329
-344
-361
-379
-394
-405
-409
-406
-396
-381
-364
-347
-334
-325
-322
-325
-333
-343
-354
-364
-373
-378
-381
-382
-383
-383
-381
-377
-368
-352
-327
-295
-255
-213
-171
-137
-116
-111
-124
-153
-193
-237
-278
-308
-322
-319
-299
-267
-228
-191
-162
-145
-140
-147
-161
-175
-185
-185
-173
-149
-117
-80
-44
-15
5
14
13
6
-4
-13
-15
-10
5
28
58
90
121
148
167
177
177
168
153
135
116
101
92
92
100
117
141
170
200
228
250
266
274
275
269
259
244
225
200
169
130
83
31
-25
-80
-128
-163
-181
-178
-157
-121
-78
-38
-9
1
-14
-54
-114
-188
-267
-342
-403
-447
-472
-479
-474
-464
-455
-453
-460
-475
-496
-516
-530
-533
-523
-497
-460
-416
-370
-328
-296
-276
-269
-274
-290
-311
-336
-362
-388
-416
-445
-477
-512
-549
-584
-612
-630
-632
-618
-587
-542
-489
-435
-387
-354
-339
-344
-367
-403
-445
-485
-517
-535
-538
-526
-503
-474
-446
-423
-409
-407
-414
-430
-452
-476
-499
-518
-533
-542
-546
-545
-540
-531
-520
-508
-498
-493
-497
-513
-544
-587
-642
-703
-759
-802
-822
-809
-759
-671
-548
-398
-231
-57
115
279
436
589
747
921
1122
1360
1638
1957
2308
2677
3046
3394
3698
3940
4101
4173
4151
4037
3843
3583
3276
2944
2609
2289
1999
1748
1540
1373
1239
1128
1028
928
818
695
557
407
251
99
-42
-161
-253
-314
-344
-344
-322
-284
-239
-198
-168
-157
-167
-199
-250
-312
-376
-433
-474
-494
-491
-466
-424
-374
-328
-293
-280
-291
-326
-382
-452
-525
-593
-647
-681
-693
-682
-652
-608
-556
-504
-457
-419
-393
-382
-383
-396
-417
-443
-469
-493
-510
-518
-515
-501
-476
-446
-413
-382
-358
-344
-345
-359
-385
-419
-455
-488
-512
-522
-516
-495
-461
-419
-375
-335
-304
-286
-281
-288
-304
-322
-337
-346
-345
-332
-310
-283
-255
-233
-221
-222
-239
-269
-307
-349
-386
-415
-431
-433
-421
-400
-373
-348
-330
-321
-322
-332
-348
-366
-379
-387
-386
-377
-362
-344
-327
-313
-303
-295
-286
-273
-254
-225
-189
-149
-112
-83
-70
-77
-104
-148
-202
-256
-298
-319
-311
-274
-212
-134
-52
19
68
84
66
14
-62
-151
-237
-308
-351
-360
-333
-275
-194
-102
-12
65
119
145
143
116
71
16
-39
-85
-118
-133
-132
-118
-95
-70
-48
-32
-23
-19
-17
-11
2
27
65
115
172
233
288
334
365
380
379
367
348
330
317
314
319
333
351
367
379
382
375
361
344
330
325
333
357
397
449
506
559
601
625
627
606
566
512
455
402
363
345
350
378
427
490
559
625
681
722
743
744
728
698
662
626
596
579
577
590
617
654
693
725
745
746
726
686
629
564
501
448
415
406
423
463
519
583
644
694
724
732
717
683
635
580
524
472
426
388
360
339
326
317
312
308
303
294
280
257
224
180
128
68
7
-50
-98
-133
-152
-154
-142
-122
-98
-78
-66
-65
-75
-95
-122
-151
-180
-204
-221
-232
-237
-236
-231
-223
-213
-201
-189
-177
-167
-161
-160
-167
-183
-208
-241
-281
-323
-365
-402
-432
-452
-459
-455
-441
-419
-392
-364
-339
-320
-309
-306
-310
-319
-330
-339
-343
-339
-326
-305
-280
-256
-237
-229
-235
-255
-287
-327
-369
-408
-439
-460
-469
-470
-466
-460
-457
-457
-461
-467
-472
-474
-469
-457
-439
-416
-392
-369
-350
-335
-324
-314
-304
-292
-278
-263
-248
-237
-233
-238
-251
-270
-292
-312
-327
-334
-332
-323
-310
-300
-295
-300
-317
-344
-380
-418
-453
-479
-493
-491
-474
-444
-404
-361
-320
-287
-266
-261
-272
-299
-339
-385
-434
-478
-513
-532
-534
-517
-484
-437
-382
-325
-273
-232
-208
-204
-219
-253
-303
-362
-426
-486
-537
-573
-591
-589
-569
-535
-492
-449
-411
-385
-375
-382
-404
-437
-473
-505
-526
-530
-514
-477
-424
-358
-289
-223
-166
-126
-103
-99
-111
-136
-167
-201
-231
-255
-271
-278
-277
-270
-261
-252
-247
-248
-255
-267
-284
-302
-319
-333
-341
-342
-338
-331
-323
-318
-320
-329
-348
-375
-406
-438
-468
-490
-501
-501
-490
-469
-440
-406
-372
-338
-308
-282
-261
-244
-231
-223
-220
-224
-235
-253
-277
-307
-338
-365
-386
-395
-390
-372
-340
-300
-257
-218
-188
-173
-174
-191
-222
-261
-302
-339
-367
-382
-383
-372
-352
-327
-303
-283
-272
-271
-280
-298
-321
-346
-370
-388
-399
-400
-392
-372
-343
-306
-262
-215
-167
-122
-82
-50
-27
-16
-15
-23
-38
-57
-77
-95
-107
-112
-108
-96
-78
-56
-32
-10
8
17
17
5
-17
-48
-84
-122
-155
-179
-188
-180
-151
-104
-43
27
98
160
206
231
231
207
166
114
63
23
3
9
42
96
165
237
301
347
367
359
326
274
214
154
104
70
51
45
45
44
36
14
-21
-67
-119
-168
-206
-229
-232
-216
-184
-144
-103
-70
-50
-46
-59
-87
-127
-174
-223
-271
-314
-350
-379
-398
-406
-404
-391
-368
-335
-298
-259
-223
-197
-184
-188
-210
-248
-299
-357
-415
-467
-509
-535
-545
-539
-520
-492
-459
-425
-394
-369
-351
-341
-338
-342
-351
-364
-379
-394
-406
-416
-422
-423
-421
-416
-411
-408
-409
-416
-430
-451
-476
-503
-527
-545
-552
-546
-524
-489
-442
-388
-333
-283
-243
-217
-208
-216
-240
-278
-323
-372
-422
-468
-508
-541
-565
-582
-592
-594
-588
-575
-554
-524
-486
-440
-388
-332
-272
-210
-143
-69
18
125
259
429
640
897
1196
1535
1902
2286
2670
3037
3371
3658
3886
4046
4133
4145
4085
3956
3766
3522
3238
2924
2595
2266
1949
1657
1399
1179
1000
858
746
656
579
506
430
349
261
168
75
-15
-97
-168
-227
-275
-312
-341
-362
-377
-386
-388
-385
-375
-363
-351
-342
-341
-351
-372
-402
-437
-472
-501
-517
-516
-499
-468
-427
-384
-345
-318
-306
-308
-320
-340
-360
-376
-385
-387
-384
-379
-377
-380
-389
-403
-418
-430
-432
-423
-402
-372
-339
-310
-294
-296
-320
-362
-419
-481
-536
-575
-589
-575
-535
-472
-398
-321
-254
-204
-175
-169
-181
-208
-240
-271
-296
-309
-311
-302
-286
-267
-250
-237
-232
-237
-250
-273
-301
-334
-368
-399
-425
-443
-452
-451
-439
-418
-390
-358
-324
-292
-266
-247
-234
-228
-226
-226
-224
-219
-208
-191
-169
-143
-118
-96
-81
-77
-84
-103
-131
-165
-201
-234
-260
-277
-282
-278
-266
-249
-231
-216
-206
-200
-200
-201
-202
-200
-192
-176
-152
-121
-85
-46
-9
23
47
60
62
53
32
3
-31
-67
-99
-124
-138
-139
-126
-103
-72
-38
-7
16
26
22
4
-24
-58
-92
-118
-131
-128
-105
-64
-7
61
133
204
267
318
353
373
377
369
351
328
304
284
270
264
269
282
301
325
350
373
389
398
398
390
375
358
342
333
334
349
378
420
473
530
585
634
671
694
701
694
676
652
624
597
572
553
540
532
531
537
552
577
611
653
703
754
800
835
852
846
817
765
699
625
554
497
462
454
475
520
584
656
727
786
827
844
835
803
752
687
616
545
482
432
399
383
385
400
425
451
473
483
477
452
407
347
276
201
129
68
22
-6
-18
-17
-8
4
14
17
10
-7
-33
-65
-99
-130
-156
-171
-176
-168
-149
-121
-90
-58
-32
-17
-15
-28
-57
-98
-148
-200
-248
-288
-317
-333
-339
-338
-334
-333
-336
-344
-355
-366
-372
-370
-356
-331
-296
-257
-219
-190
-174
-173
-186
-211
-243
-275
-302
-320
-328
-327
-319
-308
-296
-286
-277
-270
-260
-246
-227
-203
-178
-155
-141
-140
-155
-187
-234
-290
-348
-400
-438
-457
-455
-433
-397
-352
-307
-268
-242
-232
-237
-256
-284
-316
-347
-371
-384
-385
-372
-350
-320
-287
-257
-233
-219
-216
-224
-242
-264
-288
-307
-319
-322
-316
-304
-291
-279
-274
-280
-296
-322
-356
-392
-424
-449
-463
-464
-454
-435
-411
-386
-363
-345
-332
-324
-320
-318
-316
-312
-308
-305
-304
-307
-315
-330
-351
-376
-404
-431
-455
-471
-481
-481
-473
-457
-436
-413
-392
-374
-361
-354
-353
-356
-360
-363
-361
-352
-335
-311
-283
-254
-228
-211
-206
-215
-238
-271
-312
-351
-384
-404
-407
-390
-357
-310
-256
-203
-160
-133
-126
-140
-175
-225
-284
-343
-395
-430
-445
-437
-407
-359
-299
-235
-177
-132
-103
-94
-103
-126
-159
-195
-229
-255
-271
-275
-270
-259
-245
-230
-218
-210
-206
-205
-207
-209
-211
-213
-216
-220
-227
-237
-251
-268
-287
-305
-320
-331
-336
-334
-328
-317
-306
-294
-285
-277
-273
-269
-265
-258
-247
-231
-210
-187
-166
-148
-139
-140
-153
-175
-205
-238
-269
-290
-299
-292
-271
-239
-201
-163
-132
-110
-103
-111
-130
-157
-186
-211
-228
-231
-221
-198
-166
-128
-89
-53
-25
-6
2
1
-7
-22
-38
-54
-67
-76
-80
-78
-72
-61
-46
-30
-13
4
22
39
56
72
87
103
118
134
151
169
190
213
237
261
280
293
297
291
272
244
208
168
128
95
71
60
62
74
94
118
144
168
189
208
225
242
261
280
298
312
317
310
289
254
206
152
97
48
8
-18
-33
-38
-39
-45
-60
-89
-132
-187
-249
-309
-360
-395
-408
-400
-370
-326
-274
-221
-176
-144
-130
-134
-156
-192
-240
-293
-348
-398
-440
-469
-484
-484
-469
-440
-402
-359
-316
-278
-249
-231
-227
-234
-252
-277
-305
-332
-354
-369
-373
-367
-351
-326
-296
-265
-237
-216
-208
-215
-238
-277
-326
-380
-435
-482
-515
-532
-530
-511
-480
-443
-404
-371
-345
-329
-322
-321
-324
-329
-331
-329
-324
-316
-307
-300
-295
-296
-303
-317
-337
-364
-396
-432
-470
-506
-538
-559
-566
-555
-524
-471
-397
-306
-201
-86
37
165
302
451
619
813
1041
1308
1616
1959
2330
2713
3091
3444
3750
3991
4151
4221
4195
4078
3880
3614
3300
2958
2609
2272
1962
1689
1458
1269
1117
994
890
795
700
600
492
377
257
140
32
-62
-136
-189
-221
-232
-229
-217
-202
-188
-181
-182
-194
-217
-246
-280
-314
-344
-367
-381
-383
-375
-357
-335
-311
-291
-279
-277
-286
-307
-335
-367
-396
-419
-430
-427
-410
-380
-340
-295
-251
-214
-187
-174
-176
-193
-222
-261
-304
-346
-382
-409
-424
-424
-411
-386
-353
-316
-281
-250
-228
-218
-219
-231
-252
-279
-309
-339
-369
-395
-417
-434
-445
-449
-446
-436
-420
-399
-373
-346
-319
-293
-270
-250
-232
-216
-200
-183
-163
-142
-122
-103
-90
-85
-90
-106
-132
-166
-204
-241
-274
-298
-311
-313
-303
-285
-263
-239
-220
-208
-205
-213
-229
-250
-270
-284
-288
-276
-246
-199
-140
-76
-16
31
57
55
26
-27
-96
-171
-239
-289
-312
-305
-269
-209
-135
-59
9
59
86
88
67
28
-22
-77
-130
-175
-210
-232
-240
-234
-215
-185
-147
-102
-53
-6
37
71
94
103
100
86
65
41
19
5
3
13
37
72
115
160
202
234
252
255
241
215
181
147
119
104
106
127
166
218
277
334
382
416
434
435
423
401
375
350
328
313
305
304
311
326
351
387
434
490
551
612
665
700
713
700
661
603
538
478
435
422
443
498
580
676
771
850
902
920
903
856
791
719
653
605
579
579
602
642
692
743
788
820
834
829
805
764
709
646
582
523
477
448
442
459
497
550
611
670
719
748
753
732
687
625
554
483
419
370
337
321
317
321
324
321
309
284
248
204
155
108
67
37
19
13
19
33
50
67
78
81
74
54
23
-19
-69
-123
-178
-227
-268
-297
-313
-315
-305
-285
-259
-230
-202
-177
-157
-144
-136
-136
-142
-155
-175
-203
-237
-276
-315
-350
-375
-385
-377
-350
-309
-260
-211
-173
-156
-166
-205
-269
-350
-436
-512
-566
-588
-575
-527
-453
-364
-275
-200
-150
-131
-146
-188
-250
-320
-386
-439
-471
-479
-465
-435
-394
-353
-317
-294
-287
-296
-318
-350
-386
-420
-446
-460
-459
-442
-411
-368
-319
-270
-226
-193
-174
-170
-183
-208
-242
-279
-314
-343
-361
-368
-362
-346
-325
-301
-281
-266
-262
-269
-289
-321
-364
-413
-467
-520
-567
-604
-625
-628
-609
-570
-514
-445
-370
-299
-238
-193
-170
-169
-190
-227
-275
-326
-373
-412
-438
-450
-450
-439
-423
-406
-392
-383
-384
-392
-407
-425
-444
-458
-462
-451
-425
-383
-328
-266
-203
-149
-112
-98
-112
-155
-221
-305
-394
-476
-541
-580
-588
-563
-510
-438
-356
-275
-207
-157
-131
-128
-144
-173
-208
-242
-269
-288
-298
-300
-300
-299
-301
-308
-320
-337
-354
-371
-384
-393
-397
-396
-391
-381
-368
-350
-328
-300
-269
-234
-200
-170
-150
-143
-153
-179
-220
-271
-325
-374
-410
-428
-424
-397
-352
-294
-230
-170
-121
-87
-71
-75
-94
-126
-165
-206
-246
-280
-305
-320
-324
-316
-298
-271
-239
-204
-170
-143
-125
-121
-130
-154
-190
-234
-281
-325
-359
-382
-390
-382
-360
-328
-290
-252
-218
-193
-179
-179
-191
-212
-240
-269
-294
-312
-319
-312
-291
-258
-218
-173
-130
-93
-65
-48
-42
-46
-58
-74
-92
-110
-126
-139
-150
-159
-165
-168
-167
-162
-151
-135
-116
-94
-72
-54
-40
-32
-28
-26
-22
-11
8
37
76
120
165
204
232
244
238
215
181
140
103
75
65
75
106
153
211
271
324
363
381
376
351
309
257
204
158
127
114
119
141
172
205
231
243
234
202
146
73
-12
-101
-183
-253
-304
-333
-342
-333
-311
-280
-248
-219
-198
-185
-183
-190
-203
-221
-242
-263
-285
-305
-325
-342
-358
-371
-380
-385
-386
-384
-380
-376
-374
-378
-388
-404
-425
-448
-468
-483
-488
-483
-466
-441
-410
-381
-358
-346
-345
-356
-375
-397
-416
-427
-427
-413
-387
-353
-317
-285
-261
-249
-251
-266
-291
-322
-354
-385
-412
-432
-445
-451
-451
-446
-436
-422
-405
-388
-371
-357
-349
-346
-351
-361
-374
-386
-393
-394
-386
-371
-352
-333
-322
-322
-337
-368
-412
-462
-508
-543
-556
-541
-494
-415
-307
-174
-23
144
323
515
724
953
1207
1492
1809
2154
2518
2890
3254
3590
3881
4108
4259
4324
4299
4189
4001
3750
3450
3119
2777
2438
2117
1823
1565
1343
1158
1007
886
786
701
624
548
469
385
294
197
100
7
-77
-145
-194
-221
-228
-218
-197
-170
-147
-131
-129
-140
-165
-202
-245
-291
-337
-379
-415
-445
-467
-480
-483
-476
-457
-428
-391
-349
-306
-270
-245
-235
-243
-266
-302
-344
-385
-417
-434
-434
-416
-384
-343
-300
-262
-235
-222
-225
-242
-271
-308
-349
-388
-422
-448
-464
-469
-464
-449
-427
-402
-377
-357
-347
-348
-361
-386
-418
-451
-479
-496
-495
-475
-435
-380
-315
-248
-186
-137
-104
-92
-97
-117
-147
-182
-216
-248
-274
-295
-311
-326
-339
-352
-364
-373
-378
-377
-368
-353
-333
-311
-290
-275
-268
-272
-284
-303
-326
-345
-358
-360
-351
-329
-298
-263
-230
-203
-188
-187
-198
-219
-244
-266
-278
-276
-256
-218
-165
-102
-38
20
63
85
84
59
14
-47
-116
-183
-240
-278
-294
-284
-250
-196
-128
-55
14
71
110
127
125
105
76
44
16
-4
-12
-11
-3
6
12
11
5
-6
-16
-18
-6
23
70
130
196
258
305
330
329
302
254
194
135
87
60
58
82
128
189
256
322
379
423
455
473
482
484
480
471
457
439
416
390
364
341
326
326
342
378
431
496
568
639
701
748
777
787
780
763
739
715
693
677
666
659
655
652
650
648
649
655
667
684
704
725
741
749
745
730
707
680
658
649
657
687
735
796
861
916
952
959
933
876
793
696
599
515
455
426
431
466
522
589
654
706
734
733
701
639
552
449
340
234
143
74
34
26
50
99
165
237
303
351
371
358
310
233
133
25
-79
-168
-232
-266
-272
-253
-218
-177
-137
-105
-85
-76
-74
-76
-76
-72
-61
-47
-32
-21
-17
-23
-40
-65
-94
-123
-146
-163
-173
-180
-188
-202
-225
-261
-306
-358
-408
-450
-478
-487
-477
-450
-411
-368
-327
-294
-272
-261
-259
-264
-270
-275
-278
-279
-280
-281
-284
-290
-297
-303
-305
-300
-288
-267
-241
-212
-187
-167
-157
-156
-164
-178
-193
-207
-216
-221
-222
-223
-226
-235
-252
-279
-313
-352
-389
-421
-441
-447
-437
-412
-374
-328
-281
-240
-212
-202
-214
-248
-300
-365
-434
-496
-543
-565
-560
-526
-467
-391
-308
-229
-165
-124
-109
-120
-152
-198
-249
-297
-335
-358
-365
-359
-343
-324
-307
-297
-298
-312
-338
-373
-414
-455
-490
-514
-524
-517
-493
-456
-408
-354
-300
-249
-206
-173
-151
-139
-136
-140
-152
-170
-196
-229
-270
-317
-369
-421
-467
-502
-520
-520
-500
-462
-413
-357
-303
-255
-219
-195
-184
-180
-180
-178
-171
-160
-145
-129
-118
-115
-124
-145
-179
-220
-265
-309
-345
-370
-382
-379
-363
-338
-308
-276
-248
-227
-216
-215
-224
-240
-259
-278
-293
-299
-296
-284
-265
-240
-215
-194
-179
-172
-172
-177
-187
-196
-205
-211
-215
-218
-222
-227
-235
-244
-252
-257
-257
-250
-238
-224
-212
-206
-212
-231
-264
-305
-350
-389
-416
-425
-413
-381
-333
-277
-221
-173
-138
-121
-120
-133
-156
-184
-210
-232
-246
-252
-249
-238
-218
-192
-161
-126
-93
-63
-43
-34
-39
-58
-88
-125
-161
-188
-201
-195
-171
-131
-83
-36
0
19
15
-13
-60
-120
-183
-240
-283
-306
-308
-290
-256
-211
-161
-110
-62
-20
16
45
68
85
95
99
96
90
81
75
76
88
116
158
215
280
348
409
454
478
477
450
402
339
271
208
158
129
124
140
175
220
269
312
344
359
354
329
286
229
162
88
13
-60
-127
-185
-233
-269
-292
-301
-299
-286
-265
-241
-217
-199
-188
-188
-198
-216
-241
-268
-292
-309
-318
-317
-308
-293
-278
-268
-267
-278
-302
-337
-378
-421
-457
-480
-486
-472
-440
-392
-337
-283
-239
-211
-205
-221
-257
-307
-362
-412
-449
-466
-461
-435
-394
-344
-295
-257
-237
-241
-267
-313
-372
-434
-491
-533
-554
-553
-531
-493
-446
-399
-359
-334
-328
-340
-370
-411
-456
-499
-531
-547
-544
-524
-487
-440
-389
-342
-305
-283
-281
-297
-331
-378
-433
-489
-541
-582
-608
-617
-605
-574
-524
-460
-383
-298
-208
-114
-16
86
196
320
465
639
849
1100
1392
1724
2089
2476
2871
3256
3611
3920
4163
4327
4402
4382
4269
4069
3794
3463
3096
2717
2350
2013
1723
1489
1312
1185
1097
1031
970
898
805
684
536
369
194
25
-125
-244
-325
-368
-375
-352
-312
-264
-218
-184
-167
-170
-191
-227
-273
-321
-366
-403
-427
-436
-430
-414
-390
-365
-344
-334
-337
-355
-386
-429
-477
-525
-566
-595
-608
-603
-582
-545
-498
-444
-390
-339
-297
-266
-249
-248
-263
-292
-333
-380
-429
-472
-503
-518
-513
-490
-450
-400
-348
-302
-272
-262
-275
-309
-358
-413
-465
-503
-519
-510
-476
-421
-354
-283
-220
-174
-151
-155
-183
-233
-296
-367
-438
-500
-547
-577
-589
-583
-562
-528
-486
-442
-400
-363
-335
-315
-305
-301
-301
-300
-295
-281
-255
-219
-173
-122
-74
-34
-12
-13
-40
-93
-168
-257
-352
-441
-515
-566
-588
-580
-544
-486
-415
-337
-264
-202
-158
-135
-132
-146
-173
-206
-240
-268
-286
-291
-282
-260
-229
-193
-156
-124
-100
-86
-81
-85
-95
-106
-116
-121
-119
-112
-99
-84
-69
-56
-47
-41
-38
-38
-37
-36
-34
-31
-29
-31
-37
-46
-60
-73
-83
-87
-80
-62
-32
6
48
88
118
136
140
132
118
103
97
106
135
184
251
327
403
468
513
532
523
490
440
385
334
300
288
302
339
390
447
500
539
560
561
545
519
492
470
462
469
492
527
568
609
645
670
685
688
684
674
661
648
635
624
612
599
585
570
556
545
541
544
558
581
612
649
688
725
758
783
799
806
803
793
778
761
747
738
735
739
749
762
773
776
766
738
690
622
539
444
347
255
175
112
68
43
35
41
56
76
99
122
145
166
182
192
194
185
162
127
80
25
-34
-92
-142
-181
-206
-215
-211
-197
-178
-158
-142
-131
-127
-131
-141
-156
-174
-192
-208
-221
-230
-234
-235
-235
-236
-240
-250
-268
-293
-324
-358
-392
-420
-439
-446
-440
-423
-400
-376
-357
-349
-354
-372
-398
-427
-449
-458
-446
-413
-359
-291
-218
-151
-98
-68
-64
-87
-131
-190
-254
-315
-364
-398
-415
-416
-404
-385
-363
-340
-322
-308
-300
-298
-302
-312
-328
-350
-378
-411
-445
-477
-501
-513
-509
-487
-448
-396
-337
-279
-232
-202
-195
-213
-252
-307
-366
-418
-453
-465
-449
-410
-353
-290
-233
-193
-177
-187
-221
-271
-326
-374
-407
-417
-404
-373
-333
-293
-266
-258
-274
-312
-366
-428
-486
-531
-556
-558
-539
-504
-461
-418
-382
-358
-347
-349
-359
-371
-382
-388
-389
-387
-386
-388
-399
-419
-448
-483
-518
-546
-560
-557
-535
-494
-441
-384
-328
-283
-254
-240
-240
-252
-267
-283
-293
-297
-294
-287
-278
-272
-269
-271
-275
-281
-285
-288
-288
-289
-293
-303
-321
-348
-382
-417
-447
-466
-467
-449
-411
-357
-295
-233
-180
-144
-128
-134
-158
-194
-235
-272
-298
-309
-303
-283
-252
-217
-184
-161
-152
-159
-184
-223
-271
-322
-368
-402
-420
-417
-394
-354
-302
-244
-188
-142
-110
-95
-99
-118
-150
-187
-225
-258
-282
-294
-294
-285
-269
-251
-235
-222
-216
-217
-224
-235
-246
-256
-262
-261
-253
-239
-220
-199
-179
-162
-150
-145
-147
-156
-168
-181
-194
-203
-205
-201
-190
-173
-151
-127
-105
-87
-75
-71
-75
-86
-102
-119
-134
-144
-146
-138
-118
-88
-48
-1
52
107
160
210
252
284
303
310
305
288
265
239
216
200
195
204
227
261
302
343
378
400
403
385
347
292
227
159
97
48
17
8
19
50
94
145
196
240
273
290
291
274
243
200
150
97
46
0
-39
-69
-91
-105
-112
-114
-113
-111
-109
-109
-110
-114
-121
-131
-144
-161
-183
-208
-236
-267
-297
-326
-352
-374
-391
-403
-411
-417
-422
-429
-439
-453
-470
-486
-499
-505
-500
-481
-447
-401
-346
-287
-234
-193
-169
-167
-185
-221
-267
-313
-352
-375
-377
-357
-317
-264
-207
-156
-118
-101
-108
-136
-182
-237
-294
-345
-386
-414
-430
-437
-441
-444
-452
-464
-481
-499
-512
-516
-505
-478
-434
-379
-317
-257
-207
-174
-163
-175
-209
-262
-326
-393
-457
-509
-545
-561
-556
-530
-486
-428
-358
-280
-199
-116
-32
52
141
237
349
483
649
853
1101
1395
1731
2103
2496
2893
3273
3612
3890
4086
4187
4186
4082
3884
3607
3272
2903
2526
2167
1844
1574
1364
1212
1111
1047
1004
963
910
833
726
589
429
258
87
-69
-199
-296
-357
-383
-380
-355
-318
-276
-239
-211
-197
-198
-212
-238
-272
-310
-347
-380
-404
-417
-418
-407
-386
-358
-329
-302
-282
-272
-274
-284
-301
-321
-339
-350
-352
-343
-323
-296
-266
-237
-215
-202
-201
-214
-238
-272
-310
-350
-385
-413
-431
-437
-433
-419
-400
-378
-359
-346
-341
-345
-360
-381
-406
-429
-445
-451
-444
-424
-392
-350
-304
-259
-219
-188
-170
-164
-171
-186
-209
-235
-264
-292
-317
-340
-359
-374
-384
-386
-380
-366
-342
-311
-275
-239
-205
-182
-172
-179
-203
-242
-291
-341
-384
-410
-413
-389
-337
-263
-175
-85
-3
59
94
97
70
17
-53
-129
-201
-260
-299
-316
-310
-286
-247
-201
-154
-111
-76
-53
-44
-48
-66
-94
-129
-168
-204
-233
-250
-252
-238
-209
-168
-122
-78
-42
-20
-14
-25
-49
-80
-110
-132
-140
-129
-98
-49
12
77
138
189
222
235
227
200
159
111
64
24
-3
-13
-5
23
65
118
177
235
286
327
354
366
365
354
336
316
298
287
286
296
315
343
375
406
433
451
458
455
444
427
412
402
404
418
446
485
529
574
612
638
650
646
630
607
582
561
550
551
564
587
616
649
680
706
727
742
753
761
768
774
778
780
778
769
754
732
706
680
657
642
638
647
669
703
742
782
815
837
843
831
804
764
720
680
649
633
633
647
670
694
710
710
689
646
583
510
435
369
321
296
295
314
345
376
397
399
375
325
254
169
81
0
-66
-109
-128
-125
-105
-76
-43
-15
4
13
11
1
-15
-32
-47
-59
-68
-73
-79
-88
-101
-120
-146
-179
-216
-254
-288
-314
-329
-331
-321
-300
-273
-244
-217
-196
-182
-177
-178
-183
-188
-191
-188
-180
-169
-158
-151
-152
-163
-185
-217
-253
-289
-319
-337
-342
-334
-316
-293
-271
-258
-257
-271
-300
-338
-380
-418
-447
-460
-457
-437
-404
-363
-319
-278
-242
-216
-200
-193
-197
-210
-231
-261
-298
-341
-386
-429
-465
-491
-501
-493
-469
-433
-389
-346
-311
-290
-286
-301
-331
-370
-412
-449
-476
-488
-483
-462
-429
-387
-343
-303
-270
-250
-243
-251
-272
-303
-339
-377
-410
-433
-443
-436
-411
-372
-321
-266
-216
-176
-154
-152
-172
-212
-268
-331
-392
-444
-478
-490
-477
-441
-387
-321
-253
-193
-150
-129
-135
-167
-220
-286
-356
-419
-464
-485
-479
-449
-397
-335
-269
-212
-171
-151
-154
-177
-216
-265
-315
-361
-397
-421
-430
-425
-408
-382
-349
-313
-276
-243
-216
-197
-190
-195
-213
-240
-275
-313
-348
-375
-389
-387
-369
-338
-296
-251
-207
-174
-154
-152
-168
-198
-240
-285
-327
-361
-381
-386
-377
-356
-328
-298
-271
-250
-236
-229
-226
-222
-216
-203
-182
-155
-124
-93
-66
-46
-37
-40
-53
-74
-101
-131
-162
-193
-223
-252
-281
-307
-328
-341
-344
-335
-311
-276
-233
-187
-144
-111
-93
-92
-109
-139
-176
-212
-240
-255
-254
-235
-204
-163
-119
-77
-41
-14
4
15
20
23
24
26
28
28
26
20
10
-3
-17
-31
-40
-42
-35
-17
9
42
77
111
139
157
164
160
147
130
113
102
100
110
130
159
192
224
251
268
275
273
267
261
261
269
288
318
354
391
423
445
453
445
422
388
350
312
280
259
250
252
264
280
297
310
314
307
286
252
206
149
87
22
-40
-95
-138
-166
-178
-174
-156
-129
-97
-67
-45
-33
-34
-48
-74
-109
-149
-191
-233
-273
-310
-346
-380
-410
-435
-452
-459
-452
-432
-399
-357
-312
-270
-237
-219
-217
-229
-252
-277
-298
-307
-301
-280
-246
-208
-174
-153
-151
-171
-211
-264
-320
-369
-400
-405
-382
-333
-267
-193
-126
-76
-54
-64
-105
-172
-256
-343
-421
-479
-510
-512
-487
-442
-387
-330
-283
-253
-242
-250
-273
-304
-333
-354
-362
-355
-334
-306
-277
-255
-246
-256
-285
-332
-391
-454
-513
-557
-580
-576
-545
-488
-408
-311
-201
-82
44
180
330
499
696
925
1192
1495
1830
2187
2554
2916
3255
3557
3808
3998
4123
4178
4164
4084
3941
3741
3491
3200
2878
2537
2192
1856
1545
1270
1038
854
714
612
538
482
431
378
317
249
175
99
29
-32
-81
-116
-140
-157
-171
-185
-202
-222
-245
-269
-290
-308
-320
-327
-328
-326
-323
-319
-317
-315
-313
-309
-303
-293
-278
-260
-238
-217
-197
-182
-176
-178
-192
-215
-248
-287
-328
-368
-401
-424
-434
-429
-411
-382
-346
-310
-278
-255
-244
-245
-257
-274
-294
-311
-320
-319
-307
-285
-257
-226
-197
-175
-161
-159
-168
-187
-213
-244
-276
-304
-327
-342
-347
-344
-333
-316
-298
-282
-271
-269
-277
-295
-321
-353
-384
-411
-428
-432
-421
-395
-356
-307
-253
-199
-150
-110
-84
-71
-74
-88
-113
-143
-174
-202
-222
-233
-233
-224
-207
-187
-167
-151
-142
-140
-146
-156
-171
-187
-203
-218
-232
-244
-254
-263
-269
-269
-262
-244
-215
-174
-123
-68
-14
34
71
93
97
87
66
39
13
-7
-19
-21
-15
-4
6
12
9
-2
-22
-48
-74
-95
-108
-109
-94
-65
-25
23
73
119
157
182
193
191
177
157
133
112
96
89
91
101
118
138
159
178
193
204
212
216
219
222
226
231
237
246
258
274
294
321
355
393
436
478
517
548
569
578
577
568
556
546
544
553
575
607
646
687
721
744
751
741
714
677
635
596
567
552
556
577
614
662
715
766
810
843
863
869
863
849
829
808
791
781
782
793
815
843
875
904
925
933
926
903
864
815
759
703
652
610
579
559
547
540
535
528
516
500
481
461
442
426
413
402
392
380
366
348
327
305
284
266
253
244
238
231
219
198
165
120
65
4
-57
-110
-148
-167
-165
-142
-103
-54
-3
42
75
91
87
64
25
-25
-81
-136
-184
-220
-242
-249
-244
-228
-206
-184
-165
-154
-154
-165
-186
-217
-253
-291
-327
-357
-378
-388
-386
-374
-353
-326
-299
-273
-255
-246
-248
-260
-279
-302
-323
-337
-341
-332
-311
-280
-243
-205
-171
-146
-133
-135
-150
-174
-204
-235
-264
-288
-306
-318
-325
-327
-326
-323
-316
-307
-294
-278
-260
-241
-224
-212
-209
-215
-233
-260
-296
-334
-372
-404
-428
-440
-440
-429
-409
-383
-355
-329
-308
-292
-285
-285
-292
-304
-320
-339
-357
-375
-389
-402
-411
-419
-426
-432
-438
-446
-453
-459
-462
-460
-452
-436
-412
-381
-344
-306
-268
-235
-209
-192
-187
-195
-215
-245
-281
-321
-359
-392
-415
-425
-421
-403
-374
-339
-304
-276
-261
-262
-281
-313
-353
-395
-429
-451
-454
-438
-407
-364
-319
-276
-242
-220
-212
-215
-224
-238
-252
-263
-270
-274
-274
-273
-272
-270
-267
-263
-257
-250
-243
-238
-237
-240
-249
-263
-280
-298
-312
-321
-323
-318
-307
-293
-278
-266
-257
-251
-247
-242
-234
-221
-204
-184
-163
-147
-140
-144
-162
-192
-234
-281
-329
-372
-402
-417
-414
-393
-358
-312
-261
-211
-168
-137
-121
-121
-135
-161
-195
-231
-267
-297
-319
-332
-335
-330
-317
-297
-272
-242
-209
-171
-131
-91
-54
-24
-5
-1
-14
-45
-94
-155
-222
-288
-346
-387
-408
-406
-381
-335
-275
-207
-137
-73
-19
19
38
38
19
-16
-63
-117
-171
-218
-251
-266
-259
-232
-186
-128
-65
-8
37
62
65
48
15
-24
-59
-82
-85
-67
-26
30
95
159
211
245
256
244
215
174
133
100
83
87
114
161
222
292
362
425
474
507
522
519
500
469
429
384
337
291
251
220
200
194
202
222
252
285
314
331
330
306
258
191
109
23
-57
-120
-160
-174
-162
-132
-91
-50
-18
-3
-8
-35
-79
-135
-196
-255
-306
-346
-373
-384
-381
-365
-337
-302
-264
-226
-196
-177
-175
-192
-227
-278
-339
-400
-453
-488
-499
-482
-439
-373
-295
-213
-140
-84
-51
-46
-66
-109
-167
-234
-300
-359
-407
-440
-457
-460
-450
-432
-409
-386
-365
-349
-340
-337
-340
-346
-354
-359
-360
-354
-342
-322
-297
-271
-246
-228
-220
-224
-243
-273
-312
-355
-395
-428
-446
-447
-430
-397
-352
-302
-257
-224
-211
-222
-259
-319
-395
-478
-555
-615
-648
-646
-608
-535
-433
-311
-178
-41
96
233
374
528
705
915
1166
1462
1802
2178
2580
2989
3388
3755
4070
4316
4477
4546
4516
4391
4177
3888
3542
3161
2769
2389
2040
1736
1487
1292
1147
1040
959
889
819
738
643
533
412
287
164
52
-42
-115
-163
-188
-191
-177
-153
-126
-103
-91
-97
-123
-169
-231
-302
-374
-438
-484
-508
-506
-481
-438
-385
-332
-287
-257
-247
-257
-283
-321
-365
-408
-444
-470
-482
-481
-466
-441
-406
-367
-325
-285
-250
-224
-210
-209
-223
-249
-284
-325
-366
-402
-428
-440
-439
-424
-400
-371
-344
-326
-322
-333
-360
-399
-445
-489
-526
-548
-550
-532
-494
-442
-382
-322
-268
-227
-199
-187
-188
-196
-209
-220
-227
-228
-222
-210
-195
-182
-173
-172
-181
-200
-228
-264
-305
-348
-389
-425
-452
-470
-475
-469
-453
-428
-398
-365
-333
-304
-281
-267
-261
-263
-270
-280
-291
-300
-302
-297
-284
-263
-235
-204
-173
-146
-126
-117
-120
-133
-156
-185
-216
-245
-268
-280
-280
-267
-240
-202
-154
-101
-47
4
48
80
99
101
87
59
22
-20
-59
-91
-111
-116
-106
-84
-55
-25
0
15
16
2
-24
-58
-95
-127
-150
-159
-152
-128
-89
-40
16
72
124
167
201
224
237
240
237
231
224
219
218
222
230
242
255
268
279
289
297
302
306
310
315
321
331
343
359
379
403
429
458
487
515
541
564
582
597
609
619
630
643
659
677
694
708
716
714
701
677
644
606
570
542
525
523
537
564
601
643
686
726
762
793
822
847
872
895
913
922
919
900
864
812
748
679
613
557
516
494
491
504
526
551
572
585
584
571
547
513
474
434
395
360
331
311
300
299
306
320
337
349
353
339
303
242
159
57
-52
-158
-247
-307
-332
-317
-267
-190
-97
-2
82
144
178
184
164
124
72
16
-36
-81
-116
-141
-156
-165
-170
-175
-184
-198
-220
-251
-291
-339
-390
-439
-480
-506
-510
-489
-442
-373
-289
-201
-119
-56
-19
-13
-39
-91
-160
-236
-308
-367
-405
-421
-416
-392
-356
-313
-268
-226
-190
-163
-148
-146
-157
-183
-223
-275
-333
-391
-441
-475
-486
-469
-424
-356
-273
-188
-113
-60
-36
-44
-81
-139
-206
-269
-318
-345
-345
-324
-288
-248
-216
-202
-211
-247
-305
-377
-454
-523
-573
-598
-594
-560
-503
-429
-348
-269
-201
-150
-121
-114
-127
-158
-201
-251
-300
-343
-377
-398
-404
-397
-378
-352
-323
-296
-276
-265
-266
-279
-301
-330
-363
-393
-417
-432
-435
-427
-407
-380
-348
-316
-286
-262
-244
-234
-231
-234
-243
-257
-274
-293
-314
-336
-356
-373
-385
-392
-392
-385
-372
-357
-342
-332
-330
-339
-357
-383
-412
-439
-455
-456
-438
-400
-344
-278
-208
-145
-96
-70
-67
-89
-129
-180
-233
-279
-311
-323
-316
-293
-260
-224
-194
-175
-172
-183
-207
-239
-272
-300
-318
-323
-316
-299
-276
-252
-229
-211
-199
-193
-190
-189
-187
-183
-175
-162
-147
-129
-110
-90
-72
-57
-47
-44
-50
-67
-96
-138
-190
-248
-309
-364
-409
-439
-452
-445
-420
-379
-328
-271
-214
-162
-120
-89
-73
-70
-81
-103
-133
-167
-200
-228
-248
-258
-256
-244
-226
-204
-185
-173
-170
-178
-194
-217
-241
-262
-276
-281
-277
-265
-248
-228
-209
-192
-178
-166
-153
-137
-116
-87
-52
-12
30
70
101
121
126
116
94
63
28
-4
-27
-39
-37
-24
-3
20
39
49
47
35
15
-6
-22
-25
-9
27
85
157
239
322
397
458
501
526
534
529
517
502
486
473
461
449
434
414
387
355
318
280
246
220
206
205
219
244
276
310
339
357
359
341
304
249
181
105
27
-46
-109
-159
-195
-216
-222
-217
-204
-185
-164
-143
-126
-115
-113
-120
-137
-162
-194
-227
-257
-282
-297
-302
-296
-283
-267
-252
-242
-240
-246
-260
-278
-296
-311
-320
-324
-323
-320
-318
-320
-326
-335
-344
-349
-347
-334
-311
-281
-250
-224
-211
-218
-248
-300
-368
-444
-517
-573
-605
-604
-570
-505
-417
-318
-219
-135
-74
-44
-45
-74
-126
-192
-260
-322
-368
-393
-396
-379
-345
-301
-255
-214
-186
-173
-180
-207
-251
-306
-367
-425
-474
-508
-524
-522
-503
-473
-437
-404
-378
-365
-366
-379
-396
-411
-412
-390
-338
-249
-123
40
237
462
709
975
1254
1546
1849
2161
2478
2795
3103
3392
3649
3860
4014
4100
4112
4051
3919
3726
3483
3205
2908
2605
2310
2033
1780
1553
1354
1178
1022
883
756
637
525
418
317
223
136
57
-11
-71
-121
-162
-195
-220
-236
-244
-245
-240
-231
-223
-217
-218
-226
-243
-266
-293
-319
-339
-350
-351
-342
-327
-309
-294
-287
-290
-303
-325
-352
-379
-401
-415
-421
-420
-414
-405
-395
-387
-380
-372
-362
-346
-325
-300
-275
-255
-244
-246
-263
-292
-330
-369
-402
-423
-426
-410
-379
-339
-296
-257
-230
-216
-216
-227
-244
-262
-276
-283
-284
-281
-276
-275
-280
-291
-307
-323
-337
-343
-339
-325
-305
-283
-265
-258
-264
-285
-316
-351
-381
-398
-393
-363
-309
-236
-155
-77
-12
28
40
23
-18
-77
-144
-210
-267
-310
-335
-344
-340
-325
-304
-278
-249
-218
-188
-158
-130
-107
-91
-83
-84
-91
-102
-113
-120
-118
-107
-88
-64
-41
-24
-22
-37
-73
-127
-194
-266
-333
-384
-410
-406
-370
-306
-221
-124
-31
47
98
116
98
48
-24
-105
-178
-232
-254
-241
-192
-116
-24
69
149
205
231
228
200
156
106
60
25
3
-5
-4
2
8
14
18
25
38
61
95
139
189
238
280
308
320
315
300
281
268
269
289
328
383
447
507
555
582
585
566
532
491
454
432
430
450
490
544
602
656
698
724
732
723
703
677
650
627
610
601
598
602
611
623
639
658
679
700
719
733
740
738
724
702
673
644
620
608
610
630
665
710
759
802
830
837
821
783
727
659
589
524
472
435
415
409
413
422
430
433
428
414
393
366
336
307
279
255
236
223
215
211
210
208
205
197
181
155
119
75
24
-28
-74
-109
-128
-127
-107
-70
-21
32
82
122
145
147
127
88
33
-32
-102
-168
-227
-274
-306
-322
-324
-314
-294
-271
-249
-233
-226
-230
-246
-273
-307
-344
-379
-407
-427
-437
-436
-426
-411
-393
-375
-357
-341
-326
-312
-298
-285
-273
-264
-259
-259
-265
-275
-285
-294
-297
-293
-280
-261
-238
-218
-206
-206
-220
-249
-290
-338
-385
-423
-447
-453
-441
-410
-369
-322
-275
-236
-208
-193
-193
-203
-223
-247
-273
-297
-317
-332
-342
-349
-353
-357
-362
-369
-380
-394
-412
-433
-455
-476
-494
-506
-510
-505
-489
-464
-429
-387
-341
-294
-252
-217
-193
-183
-189
-211
-246
-290
-338
-384
-422
-447
-456
-449
-428
-398
-366
-339
-322
-320
-334
-363
-402
-444
-483
-512
-528
-528
-513
-486
-452
-415
-382
-357
-342
-339
-348
-366
-393
-425
-458
-489
-514
-530
-534
-526
-504
-469
-425
-375
-324
-277
-240
-215
-204
-207
-220
-240
-262
-283
-297
-303
-301
-292
-278
-264
-253
-249
-254
-268
-291
-318
-346
-371
-390
-399
-398
-386
-364
-336
-305
-275
-249
-231
-221
-221
-230
-247
-269
-294
-321
-345
-365
-377
-380
-374
-356
-330
-298
-262
-228
-200
-183
-179
-190
-214
-248
-285
-321
-349
-366
-368
-356
-332
-302
-272
-247
-234
-234
-247
-272
-304
-337
-367
-388
-397
-393
-376
-349
-315
-277
-239
-206
-180
-163
-156
-158
-167
-183
-200
-217
-229
-233
-228
-214
-190
-161
-130
-101
-78
-64
-60
-67
-81
-102
-124
-143
-158
-164
-161
-149
-129
-103
-75
-47
-21
-1
14
22
24
20
12
4
-4
-8
-6
3
21
47
80
117
156
192
224
247
262
265
257
239
214
183
151
121
96
78
70
70
78
93
111
128
141
147
144
131
108
78
44
10
-20
-41
-52
-52
-43
-27
-10
4
9
1
-24
-67
-126
-197
-273
-349
-415
-467
-499
-509
-499
-472
-433
-389
-348
-317
-302
-305
-328
-367
-419
-476
-531
-578
-608
-618
-607
-574
-526
-467
-406
-352
-312
-291
-291
-314
-354
-406
-462
-514
-557
-586
-597
-591
-568
-532
-488
-440
-395
-356
-326
-309
-304
-312
-332
-358
-389
-419
-443
-459
-464
-458
-444
-426
-407
-394
-391
-401
-426
-462
-506
-553
-596
-629
-649
-653
-640
-613
-576
-533
-490
-452
-423
-406
-402
-410
-430
-459
-496
-534
-571
-601
-619
-623
-609
-576
-525
-458
-380
-293
-202
-109
-12
92
209
347
515
720
968
1259
1589
1948
2322
2694
3044
3355
3609
3795
3904
3933
3884
3763
3577
3339
3062
2760
2448
2139
1845
1575
1337
1134
963
821
701
594
491
386
275
157
35
-85
-194
-286
-354
-395
-410
-402
-379
-348
-319
-299
-296
-311
-344
-391
-445
-500
-546
-579
-593
-587
-561
-521
-472
-423
-379
-349
-335
-341
-365
-403
-450
-500
-547
-584
-606
-610
-594
-560
-511
-449
-381
-314
-253
-207
-180
-176
-197
-240
-301
-370
-439
-497
-538
-556
-549
-521
-478
-428
-381
-343
-319
-310
-313
-325
-338
-349
-355
-354
-349
-343
-340
-342
-351
-366
-384
-401
-413
-416
-410
-397
-380
-363
-351
-346
-349
-358
-368
-376
-377
-370
-353
-328
-299
-271
-247
-229
-219
-215
-215
-216
-215
-210
-203
-196
-192
-195
-206
-228
-259
-293
-328
-356
-373
-374
-357
-324
-279
-226
-172
-124
-87
-64
-57
-67
-91
-124
-162
-200
-233
-258
-273
-278
-273
-261
-245
-227
-209
-194
-182
-171
-161
-150
-136
-118
-98
-78
-59
-44
-37
-40
-52
-72
-98
-126
-152
-171
-183
-185
-177
-163
-144
-123
-103
-85
-69
-56
-46
-37
-28
-18
-7
7
23
42
64
89
116
143
169
193
212
226
235
241
245
251
261
279
303
334
367
399
425
440
440
425
396
358
318
284
264
265
288
335
400
478
559
633
694
734
749
741
715
677
634
597
571
562
570
594
631
674
716
751
774
780
769
743
705
660
616
578
552
542
548
570
605
647
691
731
763
784
793
