591
822
725
510
694
756
633
646
644
562
589
680
681
659
713
735
688
793
799
691
740
811
795
776
932
905
789
1024
1138
1035
1127
1288
1322
1395
1502
1572
1663
1853
1917
1868
2000
2159
2164
2223
2376
2282
2143
2202
2097
1907
1839
1685
1403
1258
1144
897
764
725
629
471
454
483
353
258
308
276
170
219
219
145
143
142
110
26
90
100
-29
42
76
6
44
115
45
-65
44
9
-119
101
70
-117
-37
-23
-28
-37
-62
-62
-76
-52
-79
-160
-141
-103
-138
-177
-155
-209
-272
-145
-129
-238
-166
-150
-281
-269
-175
-270
-404
-262
-196
-349
-290
-221
-316
-347
-291
-241
-321
-347
-263
-295
-304
-228
-249
-309
-263
-315
-376
-243
-253
-323
-286
-299
-325
-287
-246
-280
-335
-284
-200
-308
-363
-260
-263
-291
-270
-268
-310
-273
-235
-319
-344
-265
-265
-297
-219
-220
-272
-169
-115
-206
-195
-82
-131
-210
-108
-89
-93
43
108
24
-63
-157
-313
-313
-232
-299
-341
-303
-342
-360
-346
-382
-393
-386
-378
-371
-335
-317
-298
-318
-329
-272
-313
-333
-379
-502
-518
-226
378
1368
2468
3019
2374
902
101
-160
-420
-278
-79
-139
-94
-35
-175
-177
-35
-141
-213
-93
-96
-148
-133
-82
-98
-108
-22
17
-96
-104
6
-3
25
98
43
36
187
293
266
261
307
240
313
528
517
545
794
883
877
979
1033
1086
1228
1310
1330
1400
1413
1354
1191
1052
1000
787
574
540
388
123
148
66
-225
-168
-88
-255
-292
-204
-328
-432
-323
-356
-401
-340
-355
-415
-373
-308
-393
-338
-244
-362
-415
-342
-301
-340
-340
-236
-229
-314
-238
-223
-410
-340
-208
-308
-279
-196
-288
-360
-218
-172
-335
-267
-185
-295
-287
-244
-309
-346
-274
-278
-349
-229
-223
-305
-273
-200
-216
-366
-252
-201
-379
-227
-174
-351
-260
-225
-257
-232
-246
-239
-223
-229
-220
-235
-283
-160
-152
-287
-220
-208
-327
-235
-113
-200
-206
-144
-219
-222
-107
-95
-213
-191
-110
-207
-163
-94
-216
-219
-192
-218
-184
-201
-175
-178
-118
-9
-145
-139
1
-50
-106
-39
60
54
55
170
121
-56
-113
-205
-236
-120
-157
-284
-268
-183
-215
-298
-253
-217
-215
-180
-207
-297
-294
-169
-227
-281
-147
-192
-278
-211
-313
-474
-235
381
1231
2146
2814
2487
1121
238
-11
-246
-280
-135
-6
-26
-10
-25
-104
-34
-19
-82
2
52
-53
-59
56
11
-28
68
35
-20
41
134
120
42
157
241
136
197
310
266
307
392
381
450
591
589
609
795
933
964
1013
1185
1212
1171
1324
1406
1417
1450
1405
1297
1218
1110
924
749
602
457
234
135
122
-102
-105
-36
-271
-339
-258
-321
-336
-301
-268
-316
-381
-315
-376
-398
-325
-340
-386
-364
-290
-385
-406
-289
-372
-421
-295
-263
-374
-332
-242
-304
-261
-224
-340
-330
-254
-286
-288
-221
-215
-318
-255
-230
-355
-324
-310
-326
-300
-252
-250
-288
-238
-278
-387
-314
-213
-268
-369
-330
-263
-364
-321
-210
-315
-357
-285
-279
-328
-253
-156
-209
-264
-288
-292
-351
-294
-232
-319
-306
-293
-325
-385
-302
-259
-307
-188
-229
-308
-239
-274
-367
-271
-204
-291
-258
-217
-280
-252
-245
-246
-253
-273
-214
-298
-338
-248
-272
-271
-183
-133
-112
-66
-83
-181
-125
-19
-78
-118
-3
57
16
74
99
-112
-244
-173
-188
-196
-98
-197
-367
-217
-90
-270
-326
-194
-240
-337
-256
-153
-276
-314
-178
-176
-168
-124
-181
-278
-339
-291
78
937
2018
2784
2933
1917
540
23
-98
-158
-111
32
94
-3
59
123
7
-30
11
48
30
47
160
39
-17
205
156
7
119
227
149
168
241
207
205
305
326
214
355
458
373
501
580
586
658
744
849
939
1030
1057
1121
1255
1341
1396
1444
1454
1433
1436
1485
1425
1145
1012
991
806
525
299
242
134
0
-28
-164
-185
-85
-253
-321
-256
-295
-300
-309
-284
-302
-336
-271
-387
-420
-263
-296
-375
-306
-283
-406
-356
-258
-300
-306
-238
-295
-344
-174
-157
-238
-172
-188
-330
-356
-230
-220
-305
-259
-238
-379
-342
-195
-360
-386
-211
-368
-433
-214
-305
-434
-327
-315
-360
-367
-308
-310
-386
-341
-330
-338
-290
-285
-402
-422
-270
-345
-479
-361
-264
-324
-323
-347
-415
-362
-252
-309
-407
-266
-269
-394
-306
-233
-330
-343
-259
-285
-296
-254
-239
-282
-259
-219
-352
-371
-226
-239
-240
-229
-313
-319
-270
-243
-285
-290
-228
-243
-265
-231
-256
-283
-215
-159
-157
-147
-82
-41
-98
-86
-51
-76
-17
39
9
-10
31
-68
-243
-264
-331
-351
-205
-184
-343
-346
-256
-347
-408
-234
-189
-366
-311
-215
-267
-256
-232
-258
-272
-167
-163
-361
-467
-346
23
835
1988
2801
2939
2051
669
55
-82
-249
-222
17
151
87
53
94
50
-50
95
169
92
138
127
62
58
190
179
63
171
188
102
204
269
144
124
325
336
192
380
459
304
467
545
475
542
666
803
810
857
975
987
1088
1227
1261
1304
1362
1351
1343
1384
1224
1003
984
851
465
265
287
162
-100
-175
-203
-418
-424
-421
-565
-504
-568
-690
-655
-642
-610
-690
-732
-672
-775
-751
-658
-771
-803
-690
-754
-861
-744
-706
-717
-738
-731
-703
-817
-799
-733
-834
-837
-779
-872
-838
-862
-956
-898
-908
-882
-937
-954
-917
-974
-964
-967
-1002
-1067
-976
-934
-1079
-1068
-1046
-1152
-1108
-1033
-1148
-1237
-1142
-1110
-1235
-1217
-1166
-1286
-1297
-1169
-1170
-1243
-1237
-1235
-1312
-1371
-1232
-1200
-1373
-1284
-1257
-1381
-1291
-1291
-1361
-1336
-1260
-1330
-1447
-1357
-1352
-1463
-1460
-1337
-1404
-1443
-1379
-1442
-1464
-1433
-1386
-1428
-1415
-1366
-1459
-1410
-1365
-1527
-1533
-1447
-1544
-1565
-1431
-1450
-1597
-1550
-1417
-1421
-1457
-1441
-1405
-1471
-1466
-1445
-1482
-1369
-1284
-1322
-1375
-1367
-1465
-1645
-1673
-1688
-1685
-1650
-1696
-1751
-1792
-1758
-1740
-1851
-1842
-1773
-1856
-1784
-1656
-1806
-1865
-1793
-1842
-1874
-1769
-1821
-2005
-2031
-1721
-1002
-29
1020
1536
857
-542
-1421
-1820
-2051
-1878
-1700
-1779
-1810
-1758
-1882
-1893
-1809
-1951
-1999
-1921
-1942
-1985
-1962
-1961
-2050
-2025
-1959
-2046
-2055
-2003
-2046
-2025
-1930
-1860
-1948
-2083
-1996
-1964
-1982
-1899
-1909
-1894
-1745
-1719
-1774
-1677
-1531
-1491
-1482
-1288
-1292
-1353
-1135
-1115
-1196
-1146
-1090
-1142
-1282
-1402
-1525
-1668
-1818
-2022
-2253
-2331
-2410
-2620
-2688
-2655
-2802
-2908
-2876
-2971
-3025
-2949
-2914
-3064
-2974
-2766
-2853
-2842
-2778
-2840
-2897
-2823
-2778
-2821
-2753
-2670
-2775
-2878
-2744
-2692
-2772
-2678
-2615
-2717
-2658
-2546
-2624
-2649
-2531
-2506
-2602
-2624
-2543
-2527
-2507
-2437
-2514
-2421
-2299
-2464
-2530
-2375
-2273
-2468
-2443
-2276
-2374
-2367
-2260
-2318
-2329
-2225
-2315
-2313
-2175
-2129
-2120
-2181
-2156
-2093
-2103
-2061
-1971
-2047
-2030
-1889
-1956
-1943
-1880
-1907
-1906
-1823
-1774
-1822
-1794
-1749
-1775
-1784
-1668
-1608
-1621
-1430
-1336
-1505
-1538
-1356
-1437
-1542
-1337
-1277
-1375
-1350
-1271
-1313
-1339
-1256
-1215
-1239
-1206
-1151
-1178
-1100
-971
-1055
-1053
-948
-1006
-954
-835
-824
-835
-767
-622
-654
-777
-817
-890
-922
-841
-838
-883
-869
-825
-848
-880
-791
-789
-835
-777
-782
-759
-636
-621
-801
-809
-640
-653
-681
-704
-822
-844
-468
346
1331
2157
2415
1461
145
-314
-507
-689
-562
-386
-385
-348
-216
-340
-480
-305
-267
-346
-185
-170
-348
-238
-119
-205
-169
-96
-88
-37
34
11
-45
40
26
-7
137
274
210
204
405
435
352
451
650
665
740
903
925
1038
1153
1168
1194
1296
1452
1447
1457
1573
1502
1318
1246
1178
1004
815
695
566
414
434
290
75
132
111
7
13
33
-39
-46
36
-7
-103
-6
89
-30
-76
53
9
-80
36
8
-30
79
65
41
84
159
164
110
182
206
198
241
167
103
191
266
228
220
212
178
149
188
274
219
225
280
229
181
215
273
240
314
317
208
234
314
325
268
295
318
255
261
346
284
311
417
268
255
386
350
320
368
361
307
355
407
371
392
476
451
415
477
425
412
428
412
424
376
500
510
331
476
557
448
528
581
473
433
566
637
501
546
597
459
541
621
533
579
729
666
623
773
779
709
798
858
760
806
901
856
910
1007
1030
870
696
747
662
660
833
701
581
651
686
611
591
687
637
574
639
686
631
638
714
655
725
792
618
556
565
628
1153
2165
3175
3872
3724
2394
1226
871
725
715
817
946
987
933
901
871
845
899
971
911
914
978
981
956
937
1004
972
992
1092
1013
986
1106
1087
1058
1141
1225
1222
1187
1324
1328
1263
1408
1515
1483
1517
1670
1706
1740
1922
1975
2040
2189
2195
2211
2283
2381
2372
2311
2382
2279
2076
1998
1908
1680
1524
1409
1198
1090
1063
981
855
814
863
746
660
758
689
671
782
694
653
804
732
628
786
844
708
699
761
753
782
780
760
715
767
810
714
762
803
794
785
768
806
765
771
802
770
760
795
793
734
772
826
762
744
733
668
705
773
753
709
774
793
703
701
759
746
723
724
720
699
752
783
681
741
808
711
655
705
708
670
753
745
684
777
726
565
679
806
701
636
768
815
678
688
836
754
649
782
765
663
784
784
622
683
788
753
689
704
719
712
795
782
734
832
889
860
870
846
771
811
904
885
853
1006
1037
937
971
898
728
679
721
671
644
685
714
686
642
697
653
604
731
727
534
597
721
653
659
707
691
658
680
552
418
671
1248
1983
2953
3794
3331
1946
1159
824
545
629
750
787
953
908
771
769
794
833
790
871
903
787
862
876
831
900
930
922
937
952
924
909
963
1012
1022
1057
1099
1130
1107
1150
1235
1211
1240
1369
1442
1417
1534
1670
1676
1789
1919
1965
2023
2085
2048
2063
2177
2089
1971
2005
1916
1695
1496
1392
1244
1017
968
900
705
644
607
442
368
429
355
275
302
244
188
221
237
148
204
331
128
86
295
269
140
105
196
168
116
217
207
178
253
236
156
224
254
186
201
258
190
162
245
207
153
186
191
153
114
159
223
98
99
185
83
136
180
66
91
185
139
46
98
132
70
123
147
98
137
175
86
36
144
171
129
112
159
116
92
179
86
59
199
125
50
154
178
136
91
121
150
71
167
216
-9
84
280
78
44
166
101
125
135
81
57
105
203
173
101
102
73
36
129
171
170
253
301
255
191
249
270
285
410
419
400
515
522
293
176
266
190
115
177
138
124
182
181
93
121
217
114
133
254
222
170
189
259
218
183
303
177
-30
48
334
999
2065
2983
3341
2778
1436
546
268
197
256
376
491
487
373
382
469
415
419
477
507
418
401
467
446
523
552
431
367
533
610
420
466
662
608
608
726
681
667
745
765
801
896
952
939
993
1103
1167
1225
1373
1426
1388
1531
1663
1649
1656
1719
1742
1671
1635
1555
1386
1323
1175
912
773
631
492
398
319
264
154
122
146
19
-28
65
38
-33
4
39
-29
-47
37
-27
-49
64
20
35
92
31
-36
16
39
-25
46
118
36
-43
19
60
24
50
40
-52
-4
103
22
-19
22
4
-19
-6
-46
-57
15
-74
-114
-44
23
-10
-150
-71
-25
-128
-56
8
-140
-116
4
-138
-186
-76
-39
-143
-118
16
-149
-247
-63
0
-110
-122
-60
-50
-115
-74
-12
-91
-41
-40
-97
-4
-23
-100
-31
-4
-59
-19
16
-20
-35
14
29
-35
-46
25
-5
-14
62
26
-17
36
29
-84
-94
43
87
65
176
177
46
104
193
130
158
310
225
196
401
360
230
193
139
12
-13
72
12
-7
62
-2
-50
32
-13
-101
-19
49
21
-37
9
14
-11
80
44
-23
-29
-168
-177
155
830
1837
2735
3310
2660
1056
328
193
-58
-73
184
303
211
157
237
204
99
175
197
138
197
230
220
264
259
191
240
294
234
231
317
381
319
370
474
392
345
429
454
551
627
585
676
776
875
869
861
1044
1091
1206
1384
1319
1324
1453
1470
1415
1461
1511
1340
1183
1166
1010
808
727
519
301
296
224
50
-54
-23
-127
-252
-150
-183
-309
-254
-202
-327
-344
-251
-322
-399
-316
-312
-408
-320
-245
-376
-380
-297
-364
-333
-311
-380
-368
-363
-295
-358
-455
-322
-315
-420
-402
-401
-455
-439
-415
-470
-501
-460
-467
-563
-497
-434
-553
-547
-456
-497
-614
-598
-576
-615
-616
-608
-610
-608
-563
-612
-650
-628
-654
-622
-578
-675
-788
-706
-642
-716
-711
-636
-641
-800
-773
-698
-795
-686
-619
-727
-750
-717
-706
-796
-772
-704
-792
-757
-769
-839
-773
-742
-822
-805
-665
-714
-825
-786
-703
-790
-871
-733
-721
-787
-704
-709
-759
-718
-708
-777
-768
-620
-607
-675
-529
-521
-725
-730
-771
-869
-849
-831
-878
-921
-897
-963
-956
-853
-886
-939
-941
-852
-870
-925
-855
-895
-954
-874
-777
-890
-1004
-997
-880
-350
571
1492
2093
1823
568
-472
-804
-853
-959
-954
-695
-691
-780
-692
-726
-822
-754
-668
-716
-751
-671
-673
-728
-645
-578
-663
-667
-537
-601
-701
-587
-553
-628
-572
-465
-471
-473
-383
-345
-313
-242
-279
-233
-45
34
30
142
227
263
360
445
540
543
572
725
631
538
650
559
369
301
165
-102
-252
-299
-438
-581
-543
-636
-844
-780
-776
-923
-878
-794
-908
-952
-872
-895
-977
-885
-819
-1017
-900
-789
-973
-918
-821
-827
-856
-786
-804
-896
-750
-711
-825
-733
-669
-785
-786
-695
-704
-779
-738
-695
-790
-784
-731
-789
-771
-686
-753
-841
-689
-650
-874
-779
-649
-779
-787
-701
-735
-742
-702
-716
-730
-720
-662
-728
-797
-684
-625
-743
-694
-563
-677
-686
-595
-647
-636
-609
-642
-649
-625
-532
-567
-690
-570
-563
-648
-546
-544
-606
-541
-446
-524
-539
-422
-466
-452
-398
-468
-476
-386
-340
-407
-407
-331
-407
-418
-274
-316
-344
-205
-178
-243
-197
-119
-168
-137
-71
-168
-135
27
26
-55
34
108
7
-185
-249
-139
-237
-278
-135
-234
-285
-227
-298
-354
-339
-268
-359
-351
-226
-356
-361
-284
-363
-366
-305
-369
-481
-473
-323
56
957
2113
2831
2739
1587
368
-168
-326
-266
-272
-190
-79
-220
-291
-151
-142
-280
-254
-162
-196
-261
-197
-154
-215
-171
-186
-251
-140
-91
-210
-169
-61
-129
-129
-11
-3
-78
-31
100
76
28
57
89
116
113
167
186
248
351
311
348
525
576
596
667
564
344
210
-27
-476
-785
-1084
-1512
-1838
-2149
-2465
-2682
-2940
-3191
-3370
-3589
-3751
-3916
-4043
-4069
-4310
-4575
-4596
-4662
-4846
-4914
-4859
-4928
-5082
-5086
-5110
-5163
-5023
-5129
-5319
-5185
-5084
-5158
-5218
-5166
-5160
-5233
-5147
-5090
-5211
-5153
-5089
-5153
-5096
-5099
-5137
-5033
-4984
-4995
-5013
-4884
-4799
-4937
-4856
-4645
-4690
-4702
-4555
-4520
-4523
-4440
-4308
-4314
-4289
-4190
-4238
-4099
-3921
-3897
-3895
-3835
-3703
-3708
-3680
-3551
-3493
-3498
-3356
-3284
-3366
-3200
-3046
-3110
-3057
-2886
-2843
-2833
-2726
-2666
-2672
-2534
-2439
-2572
-2505
-2315
-2304
-2250
-2104
-2078
-2146
-2093
-1952
-1945
-1990
-1885
-1868
-1827
-1621
-1621
-1688
-1662
-1571
-1525
-1450
-1303
-1326
-1331
-1184
-1110
-1194
-1137
-961
-986
-999
-793
-741
-771
-680
-810
-963
-878
-888
-918
-792
-754
-806
-777
-686
-677
-713
-613
-550
-621
-614
-523
-502
-483
-378
-407
-443
-359
-412
-511
-479
-139
498
1428
2474
2946
2289
987
179
-60
-95
3
118
140
211
294
259
327
329
265
395
446
409
408
439
513
509
598
731
682
651
790
802
751
831
879
937
1003
1109
1096
1014
1203
1297
1277
1436
1550
1587
1616
1741
1842
1870
2079
2124
2109
2324
2373
2318
2398
2512
2412
2282
2336
2214
2039
1981
1762
1531
1511
1483
1285
1176
1217
1166
1071
1060
1078
1068
1104
1074
937
1015
1095
987
1035
1082
1073
1094
1122
1114
1046
1109
1193
1169
1110
1137
1239
1162
1108
1272
1213
1125
1251
1241
1229
1260
1209
1198
1252
1249
1183
1173
1255
1211
1127
1232
1210
1061
1117
1168
1088
1150
1261
1160
1076
1152
1126
1058
1142
1181
1119
1112
1156
1134
1047
1120
1170
1073
1103
1123
1074
1147
1193
1125
1090
1115
1088
1070
1168
1142
1043
1162
1192
997
1006
1166
1161
1055
1046
1138
1087
1038
1150
1091
1055
1227
1107
957
1100
1120
1028
1130
1255
1124
1044
1182
1262
1203
1220
1305
1194
1149
1372
1388
1249
1380
1488
1434
1301
1097
1058
1094
1146
1142
1049
1059
1007
1023
1098
1084
1016
1004
1080
1020
1042
1126
1035
1013
1061
1109
1083
950
920
872
1059
1791
2771
3628
4251
3910
2425
1447
1238
959
980
1322
1366
1228
1227
1249
1215
1253
1278
1261
1227
1241
1304
1217
1226
1290
1191
1292
1413
1271
1247
1344
1354
1307
1331
1425
1409
1412
1494
1495
1520
1612
1634
1653
1764
1837
1853
1927
2081
2183
2175
2304
2406
2332
2420
2577
2543
2504
2500
2479
2401
2151
2025
1858
1631
1543
1373
1272
1237
1103
1044
1040
932
796
819
850
733
751
795
739
694
639
668
698
749
732
626
686
789
738
688
759
769
678
742
739
586
670
707
647
674
694
711
690
689
668
564
625
753
639
556
696
586
481
660
575
490
567
558
530
537
615
529
442
513
539
522
520
582
550
438
508
510
426
539
508
384
462
507
441
443
517
503
402
426
439
372
409
536
496
375
463
467
405
433
455
414
423
454
379
377
437
371
334
426
446
386
359
328
325
432
454
341
295
337
372
429
485
484
420
420
507
483
418
517
597
523
559
698
635
502
525
427
221
307
405
282
294
267
236
302
312
246
204
297
273
159
195
276
283
258
198
174
145
129
117
116
537
1516
2511
3257
3445
2285
887
442
293
146
234
434
428
379
451
401
320
440
452
330
349
401
377
361
428
399
356
475
490
406
489
571
508
555
589
551
621
708
765
669
697
863
808
906
1072
1046
1118
1249
1314
1329
1429
1580
1647
1660
1688
1695
1726
1846
1770
1570
1453
1361
1211
994
883
692
521
609
407
169
310
297
129
114
130
40
36
118
137
97
70
41
18
36
50
16
17
157
145
37
101
160
80
87
173
109
61
163
200
112
111
163
122
122
191
178
56
42
155
99
66
184
104
27
170
154
42
74
58
-50
73
194
16
27
150
120
74
64
73
64
65
105
104
48
76
97
36
45
78
52
31
82
92
100
161
86
66
131
149
139
158
163
33
73
175
107
91
145
132
80
165
181
57
79
164
148
169
220
108
48
246
347
204
185
277
236
225
287
290
320
368
411
408
441
455
239
112
191
143
47
143
248
108
47
144
43
-24
73
133
113
69
57
84
62
115
133
35
163
147
-120
-88
262
881
1927
2848
3114
2370
1087
412
111
8
107
148
254
324
256
213
252
268
219
266
296
195
260
370
247
207
337
333
315
435
374
254
399
445
381
405
454
520
460
484
653
609
635
819
855
879
971
1043
1074
1184
1329
1361
1434
1593
1512
1455
1712
1678
1443
1476
1401
1201
1149
961
675
538
528
374
130
176
217
8
-94
29
-70
-158
12
-77
-144
-65
-105
-142
-191
-123
-85
-138
-62
-99
-192
-38
-2
-100
-81
-65
-37
-44
18
43
-18
10
48
19
13
24
-48
-28
8
-7
-18
-10
12
-121
-109
84
20
-72
-11
-42
-32
76
44
-72
-62
3
-12
-22
15
-1
-19
22
-23
-122
-25
87
-27
-80
12
-20
-50
-19
-41
-17
0
-1
-40
-71
12
0
-86
-53
3
-9
-13
58
11
-94
10
7
-52
61
21
-69
-14
49
39
10
61
4
-73
37
61
30
75
114
111
71
129
156
91
185
254
96
132
274
193
209
399
395
242
271
214
-32
-50
37
-9
-5
29
-25
-56
-5
-6
-68
-39
-18
-90
-118
17
-27
-149
-75
-58
-50
-98
-202
-315
-262
337
1285
2208
3006
2996
1704
496
112
-161
-312
-93
66
-16
15
32
-134
-148
-9
-87
-109
13
-63
-119
-27
-12
-114
-148
-86
-46
-57
-63
-68
-97
-38
19
-70
-34
84
29
88
205
175
171
292
342
314
521
605
519
624
838
894
840
947
945
948
1036
1036
989
882
774
612
354
227
167
-75
-197
-249
-509
-590
-526
-580
-671
-667
-674
-801
-757
-722
-833
-847
-758
-799
-914
-752
-722
-904
-787
-677
-832
-850
-721
-785
-813
-684
-732
-803
-721
-754
-803
-769
-716
-725
-797
-749
-753
-853
-780
-728
-756
-735
-776
-845
-895
-816
-787
-894
-928
-912
-891
-912
-887
-841
-928
-848
-752
-935
-905
-816
-941
-882
-786
-935
-988
-840
-886
-986
-871
-773
-879
-938
-820
-876
-981
-861
-778
-816
-848
-829
-824
-807
-730
-853
-959
-770
-732
-908
-852
-700
-786
-852
-815
-861
-878
-826
-817
-885
-806
-713
-825
-800
-737
-825
-810
-697
-704
-767
-678
-568
-744
-803
-574
-600
-630
-496
-541
-567
-594
-743
-797
-813
-874
-917
-875
-825
-859
-891
-810
-802
-908
-870
-829
-853
-885
-909
-828
-852
-908
-806
-823
-881
-946
-1114
-862
-75
884
1767
2310
1800
418
-466
-670
-820
-920
-749
-612
-616
-599
-546
-607
-726
-639
-620
-638
-495
-489
-613
-569
-428
-471
-509
-397
-469
-497
-386
-434
-441
-345
-285
-339
-319
-140
-192
-272
-112
-73
-58
120
185
176
306
435
447
468
622
663
670
867
901
825
876
895
745
561
574
500
200
35
-6
-231
-381
-303
-489
-695
-593
-617
-711
-645
-694
-812
-726
-689
-792
-806
-748
-760
-771
-723
-741
-801
-747
-654
-723
-790
-672
-579
-726
-732
-604
-647
-655
-605
-624
-642
-573
-573
-642
-620
-593
-654
-643
-588
-585
-633
-648
-654
-720
-615
-607
-725
-661
-575
-641
-685
-587
-653
-746
-637
-585
-696
-731
-632
-664
-684
-605
-667
-738
-651
-603
-690
-670
-581
-633
-755
-662
-598
-713
-638
-578
-672
-702
-611
-622
-706
-587
-614
-745
-596
-557
-677
-696
-610
-605
-641
-546
-581
-700
-571
-466
-616
-626
-518
-603
-668
-514
-456
-480
-420
-397
-498
-511
-331
-393
-428
-243
-234
-229
-195
-261
-383
-457
-450
-457
-480
-439
-389
-453
-455
-443
-495
-502
-440
-408
-472
-459
-422
-478
-451
-374
-417
-394
-284
-376
-625
-584
-207
423
1505
2527
2910
2288
912
11
-258
-335
-279
-163
-71
-34
-70
-146
-131
-145
-148
14
38
-77
-59
-30
-81
-42
111
27
-69
38
44
32
149
178
64
117
331
331
228
369
423
363
439
552
572
646
796
814
860
1036
1106
1091
1241
1355
1297
1385
1497
1374
1324
1378
1271
1061
900
737
580
469
338
168
35
-3
-70
-178
-128
-127
-329
-354
-259
-294
-268
-197
-251
-356
-313
-215
-286
-374
-273
-212
-330
-277
-180
-252
-266
-198
-245
-277
-199
-227
-221
-196
-194
-220
-237
-143
-208
-264
-193
-194
-246
-227
-187
-255
-243
-209
-296
-315
-254
-256
-234
-231
-325
-309
-256
-252
-287
-297
-157
-196
-317
-232
-197
-274
-303
-282
-252
-252
-302
-327
-316
-208
-166
-298
-221
-154
-336
-324
-194
-234
-254
-177
-179
-280
-276
-165
-237
-263
-166
-216
-193
-157
-274
-273
-131
-176
-306
-263
-178
-178
-190
-99
-187
-310
-199
-147
-200
-126
48
-39
-94
-8
-38
-71
-78
-41
-1
38
180
217
96
98
8
-192
-134
-63
-205
-195
-77
-213
-213
-62
-168
-217
-125
-111
-196
-222
-188
-203
-133
-36
-114
-224
-192
-191
-388
-310
313
1171
2177
3061
3109
1856
583
149
-142
-133
120
101
61
108
59
-5
48
113
79
85
54
5
46
134
204
123
30
50
164
202
152
134
138
263
287
171
227
341
272
287
477
503
498
618
661
669
802
907
902
1019
1142
1115
1190
1339
1372
1362
1400
1353
1205
1186
1167
896
652
590
494
337
300
203
-91
-127
-60
-205
-263
-246
-253
-310
-309
-218
-318
-345
-297
-397
-374
-225
-274
-383
-290
-239
-335
-315
-215
-328
-355
-226
-256
-326
-262
-209
-286
-268
-154
-262
-362
-218
-214
-301
-213
-243
-353
-273
-220
-311
-354
-311
-286
-320
-297
-213
-303
-331
-254
-309
-320
-295
-266
-295
-371
-286
-308
-331
-195
-344
-440
-282
-320
-407
-338
-244
-305
-366
-278
-396
-475
-299
-337
-391
-303
-249
-286
-357
-308
-387
-380
-214
-316
-382
-262
-295
-371
-326
-338
-390
-396
-315
-256
-383
-378
-280
-331
-344
-233
-270
-440
-275
-238
-320
-199
-186
-163
-150
-166
-207
-185
-68
-73
-18
71
-46
-276
-289
-168
-295
-353
-232
-271
-323
-240
-242
-346
-349
-295
-303
-323
-281
-269
-327
-309
-255
-315
-285
-217
-390
-513
-440
-150
552
1585
2483
2818
2062
753
28
-258
-291
-249
-181
12
4
-125
-51
17
-88
-106
-7
-10
-29
22
4
-9
43
69
35
63
111
104
93
141
171
141
215
314
235
212
415
474
348
447
569
555
712
843
842
880
998
1102
1100
1206
1353
1284
1346
1469
1340
1312
1340
1178
968
841
734
532
369
267
108
20
21
-74
-154
-111
-169
-296
-280
-220
-283
-341
-240
-229
-330
-266
-281
-390
-280
-164
-262
-283
-186
-240
-344
-248
-122
-213
-270
-201
-155
-180
-199
-229
-232
-104
-130
-270
-239
-207
-209
-201
-199
-156
-250
-230
-156
-245
-172
-152
-309
-235
-62
-166
-254
-160
-203
-266
-206
-219
-185
-104
-133
-185
-209
-158
-146
-224
-162
-69
-201
-213
-115
-241
-283
-117
-85
-284
-229
-104
-207
-187
-145
-200
-154
-65
-157
-215
-148
-121
-114
-149
-118
-97
-148
-100
-53
-124
-109
-44
-103
-130
-58
-80
-102
-30
-56
-70
44
126
40
7
88
143
135
149
217
182
209
417
376
235
324
165
-13
65
114
106
70
136
80
-4
116
85
5
72
96
78
61
34
27
51
98
120
108
88
-73
-169
129
704
1498
2531
3345
3098
1727
647
319
37
10
309
363
271
386
299
133
287
340
237
285
337
251
231
349
330
306
401
363
278
338
449
412
366
441
497
469
550
564
448
574
711
662
642
811
881
923
1117
1071
1061
1271
1414
1421
1421
1514
1570
1546
1578
1599
1434
1353
1332
1070
895
833
588
354
347
242
14
-10
1
-72
-155
-115
-126
-282
-263
-179
-261
-279
-203
-253
-254
-195
-253
-273
-200
-243
-280
-213
-168
-190
-243
-168
-159
-235
-179
-209
-300
-168
-93
-158
-155
-146
-189
-278
-241
-176
-313
-286
-132
-274
-318
-191
-336
-376
-211
-219
-280
-275
-273
-313
-320
-208
-219
-396
-397
-287
-324
-282
-208
-308
-315
-227
-285
-388
-308
-264
-341
-264
-229
-376
-390
-274
-252
-317
-320
-289
-371
-292
-257
-390
-286
-238
-330
-322
-303
-351
-350
-327
-317
-295
-324
-310
-325
-386
-347
-302
-365
-349
-314
-368
-392
-384
-366
-334
-275
-287
-300
-294
-290
-267
-266
-228
-268
-262
-170
-153
-90
-110
-196
-349
-456
-408
-435
-430
-398
-420
-454
-445
-451
-507
-516
-494
-486
-510
-503
-497
-522
-467
-412
-496
-524
-489
-579
-693
-660
-304
378
1406
2391
2660
1794
455
-251
-534
-582
-486
-425
-241
-210
-379
-367
-267
-331
-378
-282
-313
-387
-290
-182
-215
-271
-225
-202
-239
-207
-143
-168
-171
-114
-187
-175
8
20
-37
97
138
17
161
295
242
359
503
547
590
745
863
812
933
1059
1015
1064
1145
1138
1054
1005
911
706
608
533
301
95
4
-112
-218
-240
-304
-447
-471
-396
-459
-530
-477
-458
-503
-488
-469
-600
-591
-455
-501
-472
-428
-504
-499
-425
-452
-514
-469
-405
-431
-478
-386
-387
-456
-329
-323
-428
-419
-444
-466
-396
-299
-367
-475
-424
-386
-419
-382
-406
-509
-465
-398
-458
-506
-464
-433
-491
-453
-403
-532
-533
-398
-426
-501
-452
-390
-451
-475
-424
-495
-519
-412
-468
-558
-424
-446
-585
-434
-336
-525
-579
-418
-488
-540
-430
-457
-492
-503
-420
-422
-521
-413
-407
-501
-445
-463
-509
-457
-368
-404
-400
-353
-449
-463
-395
-353
-428
-468
-367
-377
-397
-267
-231
-293
-226
-153
-188
-266
-254
-184
-166
-74
-72
-101
-70
-265
-389
-306
-294
-354
-389
-304
-277
-359
-254
-226
-425
-341
-242
-393
-341
-175
-290
-452
-253
-145
-188
-159
-296
-454
-332
266
1147
2028
2867
2930
1620
436
159
-106
-292
-54
161
75
30
86
40
3
101
133
111
142
87
37
189
235
111
191
236
129
160
272
217
210
334
336
277
302
394
388
419
525
537
562
649
758
801
858
990
995
1079
1257
1262
1295
1440
1451
1334
1464
1560
1324
1210
1222
1055
791
665
506
332
301
234
29
-141
-68
-149
-313
-180
-225
-379
-306
-290
-317
-322
-318
-314
-392
-337
-292
-482
-436
-270
-335
-344
-339
-321
-311
-357
-292
-302
-318
-255
-304
-305
-267
-357
-349
-256
-300
-362
-292
-297
-401
-297
-224
-366
-373
-250
-292
-448
-356
-277
-417
-443
-347
-356
-410
-273
-307
-469
-369
-342
-387
-322
-280
-308
-297
-295
-338
-384
-427
-348
-353
-386
-243
-256
-419
-319
-276
-386
-305
-261
-346
-363
-246
-234
-358
-290
-199
-315
-279
-226
-350
-285
-211
-248
-239
-222
-195
-255
-294
-191
-214
-312
-256
-221
-231
-175
-192
-239
-199
-140
-170
-217
-186
-219
-265
-153
-11
-75
-134
-30
-102
-135
-2
-52
-107
86
201
114
78
-22
-173
-169
-78
-140
-243
-108
-128
-269
-152
-156
-269
-157
-117
-214
-196
-154
-135
-176
-112
-30
-199
-161
-108
-341
-388
-75
553
1546
2619
3199
2688
1252
288
63
-128
-110
126
186
116
162
183
72
108
149
56
105
146
56
165
224
117
206
293
180
142
258
284
309
297
320
403
350
393
502
443
480
573
544
683
821
779
855
999
1062
1133
1247
1375
1327
1325
1508
1537
1528
1649
1608
1471
1436
1304
1100
934
841
609
398
427
297
120
103
53
-111
-127
-11
-54
-140
-151
-136
-168
-180
-168
-197
-188
-115
-119
-199
-144
-170
-218
-88
-181
-253
-125
-121
-166
-142
-134
-227
-206
-113
-146
-200
-167
-109
-162
-247
-188
-148
-226
-204
-181
-230
-198
-152
-247
-292
-237
-275
-364
-301
-185
-310
-314
-220
-347
-312
-198
-313
-405
-312
-267
-398
-372
-243
-355
-335
-235
-320
-371
-279
-315
-440
-324
-268
-392
-391
-288
-325
-385
-358
-407
-417
-366
-350
-323
-354
-353
-333
-379
-420
-416
-461
-418
-329
-428
-402
-309
-356
-379
-374
-392
-410
-349
-350
-505
-463
-316
-370
-414
-407
-348
-278
-299
-276
-288
-312
-274
-292
-237
-170
-145
-166
-233
-169
-349
-553
-390
-415
-525
-418
-464
-591
-557
-495
-539
-556
-455
-502
-574
-474
-488
-533
-497
-508
-527
-509
-496
-625
-777
-703
-299
418
1333
2205
2457
1543
280
-346
-565
-559
-520
-475
-391
-414
-417
-456
-412
-421
-506
-358
-351
-500
-449
-307
-374
-463
-323
-330
-416
-280
-263
-352
-309
-277
-317
-317
-212
-162
-208
-121
-68
-143
-6
118
75
169
303
281
286
485
625
569
641
764
673
713
871
836
774
705
588
433
261
158
-56
-216
-249
-471
-622
-607
-750
-866
-739
-701
-903
-999
-823
-807
-944
-903
-886
-948
-902
-871
-967
-946
-824
-900
-980
-844
-820
-920
-894
-834
-861
-841
-761
-848
-910
-803
-821
-875
-792
-760
-816
-814
-792
-860
-934
-858
-814
-933
-848
-776
-880
-858
-809
-860
-942
-862
-819
-924
-916
-823
-833
-891
-809
-829
-943
-760
-748
-926
-838
-848
-911
-800
-785
-798
-781
-795
-788
-877
-868
-774
-838
-800
-678
-745
-884
-827
-795
-850
-688
-680
-842
-835
-711
-756
-830
-729
-701
-728
-720
-761
-759
-746
-661
-600
-722
-700
-642
-748
-721
-576
-658
-707
-636
-650
-668
-615
-563
-608
-573
-484
-542
-616
-411
-354
-574
-496
-360
-395
-359
-257
-282
-364
-416
-589
-710
-590
-512
-553
-576
-573
-667
-690
-566
-597
-651
-589
-616
-642
-599
-602
-609
-620
-552
-573
-641
-636
-750
-866
-568
253
1219
2139
2667
1984
595
-125
-393
-631
-559
-323
-304
-332
-260
-317
-392
-313
-320
-402
-257
-173
-329
-300
-177
-250
-285
-132
-60
-220
-197
-98
-196
-195
22
24
-134
24
90
38
106
163
194
269
402
389
402
629
727
708
814
902
893
965
1096
1143
1130
1159
1204
1139
969
789
671
545
346
154
86
79
-104
-298
-310
-305
-389
-449
-426
-480
-562
-504
-470
-526
-484
-488
-565
-538
-458
-435
-524
-474
-424
-533
-477
-434
-497
-426
-384
-438
-394
-342
-321
-375
-398
-367
-430
-390
-252
-314
-436
-316
-315
-448
-391
-329
-345
-354
-369
-338
-358
-343
-258
-319
-360
-318
-352
-383
-333
-357
-408
-373
-310
-340
-360
-258
-296
-331
-317
-380
-290
-226
-277
-281
-284
-293
-311
-313
-257
-242
-322
-273
-240
-340
-236
-132
-211
-258
-161
-169
-258
-165
-226
-333
-183
-117
-206
-193
-156
-168
-219
-177
-113
-203
-170
-101
-160
-152
-120
-168
-151
-106
-117
-80
-104
-148
-114
-56
50
92
-60
-16
166
-35
-21
218
137
162
329
298
202
109
22
-39
20
36
-147
-173
-72
-58
-79
-43
-43
-125
-88
-13
-91
-125
-30
-18
-85
-5
77
-23
-32
-84
-298
-159
466
1348
2291
3123
3233
1912
615
345
80
-70
154
242
150
240
287
145
211
267
196
225
240
234
217
223
265
241
282
371
316
240
343
370
269
348
481
419
389
510
559
548
652
719
628
725
837
814
902
1081
1110
1096
1314
1400
1299
1420
1536
1476
1499
1530
1474
1399
1368
1196
907
721
674
552
357
362
207
25
76
78
-88
-171
2
-112
-188
-33
-126
-150
-129
-142
-133
-153
-118
-135
-113
-96
-155
-143
-33
-19
-116
-29
-64
-136
-42
-58
-15
-29
-83
-1
-50
-65
-16
-47
4
0
-75
-22
68
32
-108
-84
-10
-118
-61
49
-85
-107
5
-64
-162
-72
-24
-158
-49
70
-56
-48
-21
-29
19
42
13
-5
3
36
-10
-86
5
72
41
37
5
-29
21
79
42
25
85
98
65
111
159
69
25
116
61
18
167
85
37
144
21
-30
51
28
4
77
131
63
35
116
91
12
48
102
57
117
211
153
121
153
120
57
174
259
204
281
398
346
194
100
58
-38
-61
38
-50
-111
32
-13
-129
-80
-18
-173
-243
-90
-235
-292
-49
-103
-191
-37
-76
-209
-231
-291
-325
-78
702
1668
2399
2888
2181
668
86
-65
-336
-320
-125
-70
-82
-13
-37
-147
-123
-19
-76
-191
-99
-27
-113
-113
-48
-78
-80
-9
-49
-120
-14
-38
-191
-5
92
-3
107
151
47
115
258
259
233
318
421
482
551
574
639
739
875
907
894
1090
1021
943
1083
970
932
855
622
513
311
154
92
-147
-272
-243
-437
-612
-544
-554
-678
-677
-634
-732
-766
-683
-740
-806
-758
-764
-809
-760
-749
-843
-854
-801
-830
-800
-726
-787
-903
-829
-701
-865
-863
-715
-844
-838
-758
-869
-902
-841
-844
-910
-945
-893
-905
-942
-911
-922
-994
-995
-972
-1051
-997
-956
-1116
-1103
-1000
-986
-1041
-1101
-1097
-1094
-1038
-1049
-1123
-1122
-1019
-1004
-1188
-1147
-1041
-1136
-1147
-1083
-1094
-1138
-1157
-1120
-1133
-1133
-1057
-1086
-1174
-1154
-1142
-1123
-1059
-1077
-1084
-1107
-1086
-1094
-1115
-1088
-1158
-1148
-1103
-1175
-1162
-1043
-1123
-1223
-1133
-1142
-1151
-1114
-1096
-1085
-1198
-1122
-1027
-1117
-1093
-1019
-1032
-1055
-1021
-997
-1000
-1001
-956
-961
-865
-720
-829
-851
-746
-897
-1108
-1103
-1030
-1036
-1112
-1106
-1081
-1141
-1151
-1099
-1122
-1103
-1102
-1140
-1076
-999
-1109
-1218
-1089
-1113
-1116
-964
-1047
-1266
-1292
-995
-357
596
1670
2307
1731
339
-532
-860
-1050
-978
-854
-802
-727
-742
-845
-824
-779
-828
-706
-586
-781
-799
-666
-709
-730
-672
-658
-678
-642
-624
-610
-568
-488
-459
-533
-432
-385
-521
-329
-180
-318
-297
-102
-5
24
125
183
239
320
417
455
534
668
651
708
814
833
775
685
643
436
288
220
-5
-186
-283
-423
-557
-608
-648
-758
-820
-756
-790
-832
-828
-809
-839
-946
-858
-836
-852
-762
-821
-855
-738
-743
-835
-801
-783
-802
-725
-605
-737
-839
-674
-641
-741
-739
-585
-613
-736
-624
-606
-677
-572
-600
-719
-706
-575
-555
-694
-633
-578
-670
-697
-633
-701
-752
-599
-591
-636
-619
-642
-629
-576
-560
-601
-583
-535
-551
-580
-515
-582
-657
-514
-502
-588
-522
-438
-483
-587
-522
-408
-481
-446
-371
-516
-520
-348
-435
-480
-376
-464
-484
-407
-443
-432
-370
-310
-334
-409
-333
-310
-409
-299
-247
-422
-363
-216
-324
-418
-272
-281
-419
-302
-231
-333
-283
-169
-192
-243
-174
-141
-189
-89
-52
-109
-63
-50
-98
-26
141
158
104
140
64
-104
-141
-95
-155
-217
-126
-118
-181
-148
-191
-285
-203
-93
-137
-156
-94
-50
-153
-161
-50
-153
-107
-6
-161
-302
-222
145
834
1963
2897
3068
2328
1047
292
47
-30
-36
55
274
266
106
184
285
208
135
209
270
215
282
380
275
264
386
348
311
425
470
375
478
586
435
435
637
660
601
716
760
734
884
974
919
990
1167
1214
1287
1455
1478
1454
1576
1682
1675
1743
1808
1710
1637
1708
1574
1302
1326
1284
949
784
795
641
460
444
349
222
253
314
173
108
312
165
53
227
135
88
191
186
148
134
253
256
148
283
249
144
320
350
217
256
302
301
286
322
336
231
296
361
271
282
341
263
270
350
318
277
298
302
259
292
313
253
260
338
342
218
249
348
208
192
278
242
222
240
271
277
291
299
256
270
306
223
197
339
346
243
322
322
193
269
356
247
208
308
329
261
290
314
244
305
299
204
250
315
296
205
254
297
220
238
252
251
224
276
315
155
201
366
284
253
412
381
286
359
355
307
360
428
482
494
489
365
171
183
115
37
136
112
41
20
22
-42
-58
34
29
-28
-6
31
-74
-111
-13
-62
-85
15
-33
-149
-198
-109
370
1307
2271
2868
2663
1440
315
-66
-153
-169
-136
-32
55
37
-40
-86
-15
13
-27
16
-72
-94
14
-118
-125
-27
-116
-93
4
4
-56
-70
10
28
-5
68
93
47
115
200
177
193
327
363
350
447
519
526
687
781
684
854
1008
911
935
1072
1030
946
959
793
627
524
362
134
-72
-132
-258
-376
-394
-539
-680
-689
-721
-802
-838
-795
-803
-864
-856
-832
-910
-933
-901
-970
-973
-931
-941
-944
-912
-944
-1044
-975
-851
-862
-950
-999
-1001
-1083
-1049
-948
-1024
-979
-937
-1064
-1067
-970
-1034
-1116
-1045
-1013
-1094
-1062
-996
-1177
-1220
-1113
-1152
-1198
-1149
-1103
-1182
-1246
-1178
-1201
-1331
-1218
-1212
-1323
-1225
-1239
-1378
-1324
-1209
-1360
-1425
-1253
-1251
-1363
-1334
-1306
-1358
-1364
-1312
-1291
-1372
-1398
-1359
-1461
-1430
-1307
-1436
-1444
-1319
-1419
-1480
-1377
-1384
-1465
-1424
-1403
-1470
-1464
-1421
-1464
-1505
-1476
-1518
-1531
-1469
-1459
-1521
-1501
-1451
-1507
-1508
-1463
-1432
-1426
-1350
-1308
-1431
-1387
-1286
-1437
-1410
-1209
-1231
-1225
-1138
-1159
-1361
-1514
-1424
-1460
-1547
-1460
-1460
-1527
-1454
-1409
-1573
-1632
-1516
-1517
-1590
-1555
-1491
-1570
-1542
-1436
-1582
-1592
-1461
-1530
-1641
-1592
-1523
-1262
-219
959
1577
1622
577
-760
-1290
-1402
-1482
-1403
-1213
-1224
-1292
-1267
-1213
-1214
-1305
-1195
-1139
-1257
-1194
-1151
-1213
-1192
-1137
-1171
-1147
-1046
-1140
-1175
-974
-969
-1072
-1006
-882
-882
-931
-839
-746
-753
-728
-585
-543
-522
-374
-337
-255
-97
-50
-4
96
201
234
324
409
319
348
389
169
-14
-18
-143
-391
-497
-643
-851
-882
-933
-1097
-1101
-1068
-1182
-1261
-1210
-1156
-1264
-1326
-1230
-1273
-1330
-1196
-1148
-1222
-1229
-1190
-1230
-1246
-1165
-1180
-1233
-1093
-1067
-1259
-1179
-1048
-1116
-1157
-1166
-1140
-1170
-1110
-1047
-1144
-1139
-1149
-1197
-1175
-1091
-1086
-1208
-1121
-1073
-1252
-1200
-1089
-1189
-1226
-1130
-1136
-1186
-1176
-1171
-1205
-1215
-1094
-1094
-1173
-1108
-1104
-1129
-1065
-1014
-1128
-1110
-976
-1078
-1087
-945
-963
-1067
-1007
-938
-1005
-976
-869
-901
-898
-776
-861
-948
-791
-775
-811
-725
-699
-729
-727
-661
-701
-742
-625
-559
-619
-620
-506
-502
-521
-412
-370
-488
-429
-329
-463
-396
-256
-314
-272
-145
-209
-232
-100
-92
-167
-113
-23
-10
89
191
163
31
-85
-65
-127
-172
-104
-148
-159
-62
-11
-128
-128
-17
-100
-109
-6
-55
-126
-1
37
-34
36
99
57
-38
-133
-117
216
1025
2052
2897
3295
2504
1066
407
243
96
132
310
464
399
392
436
293
338
443
380
400
511
486
375
396
471
498
524
581
565
546
633
646
597
630
676
656
753
854
788
820
981
1008
981
1110
1289
1281
1314
1538
1579
1554
1703
1772
1744
1903
1987
1887
1920
1905
1755
1693
1630
1398
1160
1090
1024
856
782
655
433
449
473
398
399
400
371
247
302
460
306
249
359
310
288
374
321
246
366
437
359
354
372
415
373
347
505
429
393
538
499
413
482
479
390
519
548
396
488
577
442
430
540
510
431
478
497
464
498
459
417
485
552
510
447
489
447
405
473
487
481
439
442
469
423
437
427
372
438
503
460
436
443
445
463
527
539
509
502
514
481
416
496
524
474
553
615
550
480
532
489
461
620
594
467
513
555
480
532
663
534
406
537
585
568
647
690
624
640
740
676
586
706
801
776
880
887
766
733
701
574
502
611
579
454
577
599
458
518
643
564
451
562
602
543
593
544
474
531
572
567
515
500
403
385
838
1669
2608
3436
3677
2612
1248
797
626
447
621
829
786
798
850
752
725
819
777
730
758
749
715
760
876
856
811
860
857
810
884
934
869
872
936
954
965
980
961
988
1092
1150
1134
1240
1378
1353
1425
1564
1602
1656
1788
1934
1912
1915
2058
2030
2020
2112
2029
1862
1731
1596
1354
1246
1232
903
686
775
675
510
418
348
333
373
432
303
213
319
276
189
288
276
109
219
322
194
181
226
228
212
285
293
159
205
325
260
198
301
308
205
208
287
244
225
326
249
161
228
270
240
266
288
181
168
288
225
93
189
214
121
228
213
37
123
155
81
133
174
177
174
174
140
93
128
178
104
94
81
61
136
70
40
66
115
173
62
44
170
173
97
120
169
132
116
162
125
78
145
115
0
126
248
127
105
221
188
122
189
175
82
171
229
172
220
302
251
211
313
245
136
345
417
332
502
576
449
282
189
174
153
182
232
236
168
165
145
134
154
55
25
149
206
55
23
127
126
109
211
213
25
9
-16
18
569
1489
2455
3265
3241
1966
704
359
251
66
188
431
342
280
389
295
265
366
293
258
315
333
343
309
371
409
284
360
456
308
392
502
402
384
471
559
485
531
702
648
655
790
781
867
1008
983
1027
1185
1306
1338
1354
1505
1603
1623
1679
1687
1688
1709
1634
1392
1327
1287
1002
851
745
517
386
318
243
139
128
175
17
-93
-36
-31
-112
-95
-47
-173
-134
29
-34
-123
-92
-107
-117
-11
-12
-102
-84
-30
-114
-103
0
-123
-160
5
3
-66
-33
-17
-33
-108
-51
-36
-154
-32
-19
-148
-57
-31
-152
-173
-135
-106
-144
-148
-126
-153
-151
-118
-140
-192
-131
-89
-215
-214
-105
-190
-190
-103
-201
-252
-74
-33
-246
-230
-124
-221
-186
-71
-195
-242
-75
-109
-242
-197
-124
-136
-183
-159
-249
-317
-189
-246
-321
-184
-185
-268
-182
-170
-220
-292
-279
-195
-233
-174
-109
-183
-153
-153
-211
-152
-126
-180
-170
-67
12
-53
-71
52
6
-93
-4
89
61
135
200
58
124
116
-185
-199
-101
-126
-148
-134
-149
-213
-176
-112
-181
-194
-103
-132
-213
-200
-93
-144
-214
-51
-127
-241
-94
-245
-421
-111
540
1445
2451
3196
2770
1376
509
92
-262
-208
28
82
122
101
-72
-24
110
69
27
89
124
95
95
154
109
27
138
145
92
226
232
169
269
295
228
325
469
445
423
521
580
548
656
836
765
806
1060
1102
1122
1201
1234
1355
1432
1499
1551
1541
1595
1525
1378
1370
1196
940
937
824
495
350
346
123
28
118
-88
-230
-135
-170
-278
-317
-313
-328
-346
-203
-142
-361
-366
-299
-466
-401
-275
-385
-425
-328
-287
-353
-336
-307
-361
-404
-318
-345
-448
-381
-356
-414
-468
-369
-379
-471
-400
-426
-517
-574
-579
-612
-583
-500
-621
-668
-534
-600
-757
-637
-643
-760
-647
-675
-791
-735
-736
-836
-831
-739
-805
-870
-840
-898
-821
-820
-862
-862
-984
-954
-942
-959
-952
-966
-1014
-1098
-1018
-1001
-1123
-1085
-1001
-1072
-1118
-1069
-1142
-1252
-1188
-1165
-1223
-1174
-1250
-1384
-1269
-1224
-1315
-1311
-1281
-1334
-1367
-1331
-1278
-1340
-1384
-1274
-1367
-1411
-1213
-1255
-1405
-1320
-1285
-1330
-1239
-1174
-1224
-1299
-1375
-1528
-1704
-1603
-1474
-1602
-1661
-1667
-1691
-1703
-1689
-1768
-1908
-1768
-1720
-1820
-1755
-1751
-1875
-1882
-1738
-1787
-1957
-1969
-2004
-2115
-1786
-844
204
1036
1365
430
-1021
-1611
-1819
-2024
-1924
-1757
-1776
-1794
-1820
-1856
-1864
-1932
-1901
-1954
-2001
-1873
-1955
-1945
-1847
-1992
-2016
-1885
-1873
-1929
-1893
-1839
-1870
-1759
-1672
-1805
-1828
-1698
-1606
-1684
-1644
-1449
-1482
-1483
-1298
-1285
-1249
-1056
-890
-834
-774
-640
-633
-558
-410
-436
-513
-402
-357
-586
-654
-699
-954
-1092
-1131
-1326
-1546
-1583
-1615
-1686
-1697
-1687
-1788
-1790
-1733
-1826
-1796
-1716
-1722
-1737
-1758
-1719
-1681
-1681
-1588
-1597
-1680
-1548
-1432
-1585
-1526
-1342
-1396
-1392
-1253
-1257
-1281
-1172
-1256
-1296
-1165
-1069
-1086
-1114
-1012
-980
-955
-874
-869
-866
-775
-729
-765
-671
-540
-545
-504
-338
-349
-361
-206
-110
-113
-26
128
70
117
300
316
352
566
661
663
716
791
936
914
996
1207
1170
1179
1288
1331
1395
1466
1432
1392
1536
1660
1601
1644
1713
1648
1692
1735
1641
1631
1699
1684
1638
1679
1665
1577
1561
1594
1542
1472
1533
1420
1335
1482
1486
1378
1450
1521
1407
1401
1487
1461
1272
1094
1105
1030
949
908
795
780
805
808
659
517
506
370
222
248
52
-268
-373
-637
-965
-1102
-1262
-1468
-1756
-1975
-1979
-1761
-993
-144
443
469
-814
-2137
-2627
-2907
-3045
-3157
-3209
-3135
-3197
-3286
-3331
-3477
-3622
-3603
-3645
-3809
-3854
-4052
-4341
-4334
-4335
-4547
-4651
-4778
-4891
-4903
-4975
-5072
-5243
-5287
-5211
-5466
-5680
-5508
-5630
-5836
-5547
-5485
-5651
-5404
-5285
-5382
-5250
-5059
-5137
-5182
-5006
-5101
-5188
-5112
-5167
-5194
-5119
-5121
-5339
-5415
-5322
-5392
-5527
-5465
-5408
-5529
-5552
-5497
-5439
-5410
-5297
-5198
-5165
-5080
-4960
-4952
-5019
-4893
-4901
-4991
-4842
-4780
-4885
-4845
-4739
-4782
-4791
-4702
-4754
-4772
-4667
-4706
-4818
-4812
-4807
-4860
-4951
-5090
-5364
-5647
-5676
-5808
-6030
-6034
-6111
-6285
-6293
-6267
-6421
-6447
-6340
-6438
-6519
-6470
-6459
-6494
-6405
-6461
-6598
-6509
-6366
-6368
-6465
-6355
-6294
-6448
-6340
-6187
-6300
-6231
-6070
-6093
-6128
-6033
-5950
-5974
-5942
-5866
-5896
-5926
-5798
-5721
-5779
-5727
-5676
-5695
-5591
-5504
-5595
-5532
-5380
-5545
-5574
-5538
-5893
-6334
-6581
-6719
-6876
-7039
-7159
-7260
-7518
-7615
-7568
-7730
-7831
-7871
-8008
-8068
-7982
-7999
-8086
-8012
-7993
-8098
-7941
-7734
-7793
-7700
-7514
-7545
-7658
-7700
-7660
-7644
-7525
-7420
-7455
-7377
-7197
-7175
-7224
-7049
-6961
-6978
-6840
-6691
-6647
-6619
-6446
-6360
-6346
-6139
-6049
-6124
-6104
-6033
-5785
-5073
-3877
-2813
-2177
-2402
-3693
-4636
-4822
-4869
-4900
-4722
-4399
-4297
-4335
-4248
-4083
-4015
-3929
-3749
-3695
-3689
-3532
-3454
-3417
-3244
-3069
-3028
-2980
-2797
-2761
-2687
-2447
-2359
-2355
-2229
-1980
-1869
-1838
-1669
-1466
-1350
-1242
-1087
-990
-812
-641
-561
-324
-163
-28
197
363
532
620
755
915
916
989
1077
939
857
880
692
557
603
549
431
386
404
339
313
483
516
485
607
617
587
716
768
774
893
996
1084
1085
1137
1266
1255
1331
1470
1476
1521
1655
1719
1761
1822
1875
1898
1951
2050
2041
2076
2240
2264
2209
2364
2435
2334
2411
2474
2412
2448
2574
2635
2520
2552
2689
2659
2687
2820
2903
2866
2868
2918
2893
3002
3077
2988
3049
3103
3012
3037
3260
3221
3110
3341
3336
3168
3285
3431
3372
3311
3470
3560
3473
3514
3581
3507
3588
3749
3705
3659
3781
3765
3711
3891
3881
3784
3872
3940
3907
3867
3990
4016
3959
4051
4047
3973
4106
4171
4043
4033
4134
4138
4123
4239
4256
4238
4350
4370
4228
4266
4418
4349
4322
4520
4611
4554
4530
4507
4422
4236
4212
4306
4249
4263
4312
4229
4271
4407
4373
4282
4293
4275
4253
4311
4261
4327
4408
4359
4351
4339
4425
4335
4132
4185
4601
5452
6389
7271
7594
6496
5226
4765
4486
4358
4451
4543
4568
4645
4562
4526
4712
4662
4525
4566
4614
4513
4517
4650
4588
4505
4553
4583
4564
4645
4689
4532
4544
4663
4626
4659
4703
4676
4654
4699
4796
4790
4786
4918
4933
4953
5140
5177
5140
5299
5452
5343
5382
5573
5475
5474
5643
5551
5415
5415
5307
5029
4943
4879
4471
4305
4386
4179
4003
4068
4035
3807
3733
3848
3746
3605
3701
3723
3601
3609
3625
3514
3524
3547
3479
3567
3633
3462
3405
3498
3470
3414
3451
3498
3408
3397
3566
3497
3328
3406
3443
3379
3346
3361
3400
3400
3347
3320
3289
3273
3244
3167
3188
3168
3129
3137
3126
3130
3089
3112
3127
3011
3027
3084
2993
2990
3089
2987
2874
3000
3002
2870
2953
2999
2896
2859
2940
2909
2798
2906
2943
2769
2784
2937
2870
2829
2907
2902
2798
2723
2812
2794
2788
2898
2813
2756
2855
2828
2751
2777
2790
2771
2772
2775
2710
2721
2823
2820
2763
2841
2916
2799
2843
2938
2795
2793
2930
2946
2958
3068
3034
2895
2849
2755
2640
2678
2734
2679
2652
2583
2525
2562
2570
2589
2548
2497
2560
2606
2507
2466
2480
2451
2533
2583
2433
2333
2411
2334
2550
3331
4227
5153
5653
4823
3368
2623
2449
2297
2235
2449
2532
2516
2571
2494
2401
2471
2555
2432
2381
2518
2544
2413
2402
2481
2416
2410
2489
2467
2377
2463
2543
2406
2446
2604
2535
2524
2609
2592
2632
2745
2785
2758
2846
2953
3000
3019
3051
3162
3283
3365
3429
3475
3525
3591
3521
3466
3527
3385
3216
3182
2987
2734
2632
2481
2232
2175
2158
1995
1860
1896
1890
1750
1771
1828
1701
1671
1734
1669
1619
1639
1666
1603
1558
1581
1578
1610
1671
1652
1585
1637
1641
1546
1656
1715
1566
1597
1676
1590
1607
1663
1616
1541
1533
1600
1545
1467
1581
1549
1426
1532
1614
1504
1442
1463
1409
1475
1574
1519
1438
1465
1490
1372
1406
1518
1381
1347
1439
1389
1371
1427
1397
1331
1407
1417
1301
1355
1430
1303
1249
1368
1381
1275
1275
1285
1228
1266
1314
1292
1247
1236
1263
1243
1267
1334
1261
1226
1300
1210
1180
1313
1238
1054
1158
1281
1142
1149
1218
1152
1114
1175
1190
1125
1194
1188
1092
1162
1234
1226
1185
1199
1212
1166
1209
1223
1145
1237
1322
1474
2097
2796
3132
3232
3461
3701
3736
3831
4039
4077
4078
4217
4240
4192
4282
4391
4291
4293
4484
4497
4485
4638
4645
4474
4550
4569
4372
4293
4452
4969
5867
6869
7582
7399
6101
4942
4451
4252
4282
4282
4336
4404
4317
4171
4128
4182
4070
3956
4024
3974
3890
3925
3853
3780
3829
3845
3731
3697
3776
3672
3629
3728
3622
3521
3585
3615
3590
3614
3692
3590
3516
3673
3717
3717
3818
3868
3843
3938
4036
4022
4102
4163
4191
4170
4208
4294
4205
4074
3979
3802
3601
3460
3203
3026
2935
2781
2533
2362
2450
2278
2078
2177
2103
1986
2051
2020
1898
1838
1838
1809
1763
1805
1765
1534
1554
1736
1659
1672
1732
1523
1493
1655
1569
1473
1525
1523
1474
1464
1505
1439
1286
1379
1453
1285
1280
1379
1248
1217
1302
1199
1158
1261
1167
1000
1146
1204
1078
1103
1109
1031
988
997
991
918
927
997
936
903
996
901
775
898
880
752
808
827
753
776
861
781
713
808
730
621
762
820
688
683
683
649
692
689
636
584
654
711
555
556
722
633
615
724
652
546
610
683
619
618
697
637
526
695
720
615
778
674
591
804
786
711
718
781
881
862
918
870
649
619
661
585
505
581
627
554
556
597
485
495
645
554
540
638
610
547
567
607
546
517
609
583
396
418
665
1286
2321
3218
3649
2992
1645
832
580
484
433
503
747
780
584
670
744
598
595
678
646
644
707
650
591
630
693
620
482
607
684
597
638
918
1400
1790
1969
1994
1968
2017
2051
2026
2144
2259
2170
2174
2293
2281
2301
2453
2447
2361
2472
2576
2562
2526
2504
2442
2365
2313
2099
1903
1816
1552
1306
1243
1079
888
801
708
582
422
426
485
329
194
237
157
111
190
71
7
112
27
-98
-24
15
-103
-139
-9
-31
-130
-91
-83
-131
-189
-161
-143
-199
-122
-157
-280
-230
-210
-279
-225
-218
-355
-302
-220
-372
-428
-332
-344
-401
-470
-471
-416
-438
-410
-388
-486
-519
-489
-514
-521
-467
-454
-529
-503
-493
-589
-524
-483
-549
-545
-550
-556
-555
-525
-589
-619
-513
-527
-631
-621
-532
-629
-696
-575
-624
-680
-564
-603
-702
-662
-605
-669
-706
-611
-671
-792
-717
-629
-678
-679
-649
-707
-738
-672
-651
-744
-721
-665
-760
-659
-516
-640
-594
-503
-624
-638
-557
-551
-575
-473
-407
-654
-794
-726
-760
-800
-808
-802
-786
-798
-785
-857
-932
-864
-853
-916
-903
-842
-858
-860
-835
-927
-937
-838
-960
-1099
-1059
-926
-412
571
1548
2168
1976
721
-482
-827
-838
-949
-999
-799
-652
-802
-825
-732
-840
-874
-784
-785
-854
-799
-727
-828
-822
-684
-743
-831
-683
-691
-822
-682
-605
-699
-675
-542
-563
-594
-414
-433
-572
-409
-232
-302
-253
-60
-18
11
133
177
248
406
427
429
584
617
486
495
524
395
191
99
-5
-254
-378
-428
-650
-826
-773
-833
-1005
-981
-945
-1020
-1000
-1039
-1159
-1136
-1096
-1080
-1123
-1098
-1071
-1191
-1164
-1063
-1115
-1158
-1089
-1096
-1129
-1035
-1050
-1132
-1008
-955
-1052
-1085
-1041
-1041
-1093
-998
-999
-1096
-1028
-1009
-1094
-1135
-1059
-1047
-1155
-1077
-995
-1115
-1060
-984
-1100
-1132
-1027
-1048
-1130
-1014
-1048
-1174
-1068
-1001
-1127
-1071
-1040
-1198
-1151
-1046
-1007
-1039
-1102
-1019
-1033
-1174
-1079
-983
-1077
-1070
-930
-978
-1046
-983
-1025
-1024
-965
-958
-995
-989
-942
-1020
-1033
-919
-1006
-1027
-859
-866
-957
-927
-895
-924
-859
-780
-911
-1048
-913
-869
-1037
-880
-769
-951
-868
-764
-784
-806
-727
-654
-772
-728
-643
-699
-705
-604
-501
-504
-482
-439
-536
-647
-708
-782
-778
-739
-698
-706
-665
-672
-737
-714
-706
-699
-641
-584
-661
-683
-553
-546
-572
-526
-543
-624
-681
-657
-573
-137
823
1875
2646
2727
1564
207
-211
-310
-454
-334
-108
-175
-286
-195
-101
-194
-237
-41
-67
-212
-76
-50
-120
33
56
-52
39
133
105
106
181
192
164
260
344
316
371
472
492
535
696
758
711
866
976
965
1145
1319
1334
1446
1697
1732
1695
1885
1948
1953
2101
2109
1988
1869
1827
1737
1566
1521
1407
1169
1127
1162
1034
985
990
955
975
1010
1011
979
1044
1085
1041
1068
1176
1193
1016
1063
1248
1121
1104
1296
1218
1152
1330
1256
1155
1300
1285
1221
1327
1439
1345
1250
1390
1343
1204
1363
1469
1328
1323
1472
1399
1304
1423
1432
1276
1361
1488
1421
1429
1477
1414
1374
1450
1417
1399
1464
1432
1381
1439
1475
1389
1377
1508
1546
1450
1480
1484
1442
1496
1431
1395
1428
1474
1543
1450
1435
1415
1260
1348
1404
1229
1277
1382
1230
1106
1254
1265
1059
1118
1138
905
944
1083
949
838
861
859
734
741
859
698
652
721
589
572
677
703
548
472
539
548
526
498
467
433
544
560
433
437
340
124
72
93
-20
-78
15
13
-129
-142
-109
-280
-326
-218
-225
-251
-301
-340
-339
-336
-358
-492
-467
-380
-551
-629
-266
362
1159
2144
2664
1786
345
-281
-526
-704
-611
-485
-488
-454
-413
-521
-547
-451
-501
-597
-537
-430
-532
-587
-481
-523
-552
-511
-484
-504
-509
-455
-514
-558
-423
-433
-486
-386
-379
-382
-250
-188
-297
-181
-22
-93
-15
139
152
187
386
445
366
479
572
581
625
647
487
334
353
224
-7
-161
-251
-440
-639
-689
-802
-886
-868
-961
-1044
-1025
-1025
-1120
-1112
-1041
-1181
-1220
-1090
-1161
-1220
-1069
-1040
-1206
-1257
-1137
-1118
-1134
-1084
-1090
-1102
-1076
-1050
-1132
-1143
-1067
-1097
-1054
-1034
-1093
-1134
-1102
-1072
-1120
-1127
-1068
-1095
-1188
-1120
-1100
-1200
-1182
-1159
-1222
-1168
-1137
-1221
-1183
-1155
-1238
-1179
-1069
-1116
-1246
-1239
-1094
-1189
-1277
-1163
-1184
-1274
-1260
-1209
-1252
-1266
-1149
-1162
-1290
-1288
-1206
-1205
-1199
-1120
-1192
-1233
-1176
-1283
-1312
-1184
-1124
-1205
-1251
-1188
-1256
-1241
-1138
-1191
-1188
-1116
-1160
-1229
-1150
-1081
-1163
-1174
-1091
-1195
-1237
-1057
-1024
-1171
-1097
-958
-1131
-1089
-947
-1099
-1064
-895
-887
-900
-820
-737
-930
-1130
-1050
-1123
-1213
-1175
-1215
-1219
-1162
-1134
-1220
-1303
-1242
-1234
-1315
-1237
-1207
-1320
-1281
-1201
-1241
-1291
-1223
-1246
-1394
-1437
-1358
-907
26
1072
1703
1682
657
-632
-1099
-1238
-1381
-1283
-1084
-1039
-1112
-1111
-1031
-1070
-1177
-1096
-1083
-1206
-1093
-987
-1137
-1155
-999
-1014
-1086
-1006
-907
-969
-978
-844
-878
-941
-777
-730
-815
-730
-637
-669
-602
-521
-578
-493
-313
-239
-224
-102
-14
-24
137
248
190
296
415
324
276
285
181
8
-100
-231
-485
-625
-704
-874
-1000
-1014
-1104
-1283
-1220
-1210
-1397
-1332
-1234
-1358
-1379
-1286
-1386
-1455
-1328
-1338
-1430
-1351
-1278
-1432
-1433
-1250
-1305
-1420
-1326
-1217
-1353
-1358
-1266
-1354
-1317
-1243
-1269
-1271
-1268
-1278
-1343
-1306
-1271
-1350
-1299
-1267
-1369
-1431
-1332
-1312
-1459
-1456
-1351
-1326
-1383
-1401
-1370
-1451
-1415
-1339
-1455
-1459
-1364
-1457
-1505
-1353
-1434
-1560
-1443
-1467
-1535
-1462
-1445
-1522
-1578
-1448
-1399
-1590
-1568
-1456
-1564
-1528
-1453
-1579
-1561
-1496
-1520
-1547
-1513
-1475
-1593
-1597
-1478
-1459
-1451
-1441
-1477
-1513
-1473
-1416
-1444
-1414
-1359
-1448
-1517
-1385
-1321
-1430
-1353
-1278
-1384
-1325
-1197
-1259
-1261
-1109
-1110
-1167
-1130
-1107
-1075
-1018
-935
-957
-978
-914
-1141
-1249
-1125
-1231
-1287
-1200
-1139
-1186
-1290
-1235
-1155
-1208
-1169
-1155
-1291
-1280
-1130
-1150
-1177
-1081
-1100
-1131
-1088
-1121
-1317
-1267
-665
209
1176
2066
2130
899
-336
-788
-1036
-1097
-917
-873
-850
-733
-880
-974
-831
-812
-913
-880
-809
-816
-828
-796
-732
-749
-696
-673
-795
-714
-581
-661
-679
-568
-575
-559
-424
-447
-513
-421
-291
-330
-339
-165
-114
-93
55
168
192
261
454
493
460
580
624
649
706
685
593
536
495
304
128
-35
-225
-305
-412
-549
-680
-696
-660
-795
-831
-761
-805
-943
-897
-767
-893
-865
-783
-911
-933
-907
-914
-841
-811
-878
-893
-855
-831
-836
-813
-770
-786
-815
-754
-692
-787
-760
-663
-686
-703
-734
-801
-752
-630
-701
-839
-759
-660
-783
-811
-725
-709
-718
-726
-739
-850
-765
-645
-799
-768
-642
-745
-807
-714
-712
-833
-813
-714
-777
-809
-683
-705
-807
-686
-627
-764
-764
-675
-738
-804
-705
-702
-735
-685
-700
-728
-703
-719
-767
-757
-741
-655
-686
-727
-649
-706
-713
-645
-706
-769
-715
-677
-648
-576
-613
-681
-605
-467
-533
-618
-477
-458
-552
-489
-386
-367
-318
-286
-410
-519
-489
-590
-689
-607
-598
-647
-596
-548
-680
-773
-664
-579
-611
-658
-642
-734
-733
-598
-711
-701
-555
-663
-838
-789
-767
-721
-28
1048
1827
2362
1954
470
-381
-578
-737
-718
-598
-512
-541
-523
-501
-569
-595
-588
-584
-611
-616
-467
-520
-631
-554
-528
-600
-596
-506
-597
-583
-450
-544
-564
-473
-477
-485
-377
-326
-412
-305
-204
-276
-187
-25
-57
-18
165
164
191
356
420
385
396
528
516
375
386
299
123
34
-86
-317
-543
-593
-782
-1018
-1006
-1087
-1218
-1188
-1206
-1352
-1414
-1376
-1407
-1475
-1428
-1408
-1539
-1518
-1428
-1490
-1501
-1428
-1442
-1535
-1525
-1476
-1535
-1541
-1444
-1501
-1556
-1489
-1557
-1581
-1573
-1621
-1549
-1464
-1504
-1594
-1573
-1504
-1601
-1649
-1564
-1611
-1682
-1625
-1632
-1668
-1598
-1613
-1663
-1706
-1710
-1670
-1675
-1603
-1564
-1696
-1724
-1615
-1694
-1775
-1670
-1634
-1698
-1689
-1633
-1636
-1741
-1720
-1640
-1733
-1658
-1561
-1678
-1658
-1659
-1723
-1632
-1563
-1692
-1732
-1568
-1577
-1659
-1623
-1595
-1668
-1684
-1629
-1687
-1694
-1555
-1481
-1631
-1710
-1600
-1627
-1598
-1517
-1648
-1703
-1582
-1601
-1679
-1564
-1479
-1507
-1457
-1456
-1500
-1456
-1428
-1431
-1434
-1340
-1220
-1246
-1234
-1297
-1517
-1536
-1493
-1533
-1595
-1526
-1431
-1556
-1524
-1425
-1574
-1615
-1426
-1426
-1555
-1515
-1424
-1435
-1516
-1493
-1450
-1491
-1514
-1589
-1708
-1475
-722
249
1167
1820
1419
39
-918
-1243
-1472
-1487
-1205
-1109
-1140
-1117
-1193
-1216
-1151
-1133
-1182
-1117
-1095
-1154
-1159
-1066
-1074
-1150
-977
-954
-1077
-1005
-924
-980
-900
-822
-922
-810
-734
-765
-704
-655
-586
-564
-517
-409
-340
-308
-140
-22
-64
70
234
234
318
466
442
475
592
540
402
317
236
33
-169
-272
-409
-647
-814
-797
-844
-992
-1015
-1066
-1159
-1099
-1131
-1205
-1044
-1081
-1233
-1135
-1127
-1167
-1150
-1128
-1203
-1199
-1049
-1066
-1164
-1155
-1063
-1076
-1123
-1031
-1052
-1060
-939
-1031
-1104
-1003
-983
-1134
-1149
-930
-1055
-1197
-982
-1074
-1227
-1090
-1128
-1228
-1201
-1137
-1198
-1314
-1214
-1298
-1455
-1355
-1364
-1495
-1587
-1669
-1828
-1945
-1983
-2140
-2271
-2295
-2351
-2460
-2532
-2552
-2705
-2799
-2715
-2810
-2975
-2949
-3062
-3264
-3196
-3142
-3286
-3355
-3304
-3292
-3412
-3433
-3307
-3393
-3398
-3316
-3439
-3400
-3242
-3304
-3373
-3261
-3223
-3297
-3281
-3256
-3330
-3267
-3140
-3164
-3153
-3089
-3115
-3198
-3114
-2990
-2951
-2934
-2865
-2832
-2913
-2825
-2794
-2863
-2698
-2571
-2585
-2545
-2616
-2827
-2871
-2808
-2873
-2855
-2773
-2737
-2742
-2789
-2726
-2724
-2803
-2715
-2709
-2772
-2668
-2623
-2624
-2602
-2635
-2700
-2601
-2539
-2677
-2765
-2641
-2125
-1291
-227
712
803
-409
-1666
-2027
-2273
-2463
-2288
-2117
-2073
-1952
-2018
-2126
-2036
-2057
-2057
-1981
-1981
-1991
-1932
-1860
-1900
-1929
-1903
-1858
-1981
-2050
-1893
-1964
-1981
-1840
-1943
-1950
-1726
-1658
-1742
-1683
-1510
-1439
-1419
-1277
-1170
-1146
-959
-827
-819
-628
-455
-478
-413
-256
-182
-133
-79
-71
-136
-162
-199
-398
-554
-614
-775
-957
-945
-996
-1220
-1167
-1068
-1202
-1244
-1164
-1181
-1253
-1163
-1068
-1144
-1091
-1040
-1159
-1137
-1036
-990
-1019
-981
-919
-934
-864
-783
-810
-779
-715
-762
-748
-667
-667
-684
-617
-571
-690
-639
-524
-644
-574
-448
-492
-538
-541
-507
-528
-546
-422
-385
-520
-433
-319
-449
-456
-361
-423
-395
-312
-302
-334
-320
-317
-371
-299
-262
-301
-249
-169
-237
-281
-172
-158
-267
-244
-170
-208
-279
-216
-192
-261
-212
-169
-222
-211
-145
-230
-308
-235
-225
-294
-261
-210
-265
-265
-234
-350
-324
-194
-264
-389
-316
-247
-353
-343
-256
-316
-338
-221
-243
-306
-134
-105
-288
-226
-122
-181
-169
7
8
-221
-284
-282
-388
-408
-329
-356
-383
-338
-349
-394
-364
-326
-439
-416
-284
-401
-448
-364
-378
-356
-295
-250
-318
-423
-461
-459
24
1007
1910
2600
2685
1527
261
-72
-178
-372
-285
-39
-42
-112
6
21
-103
-47
-9
-58
-6
11
-35
-41
25
123
92
28
70
71
107
217
149
95
252
281
210
318
393
366
410
441
490
521
605
755
736
880
1039
950
1096
1361
1257
1170
1371
1404
1331
1375
1374
1156
936
932
796
538
470
384
199
76
-10
-111
-152
-159
-193
-259
-197
-179
-250
-219
-204
-209
-275
-243
-151
-216
-218
-193
-286
-239
-138
-211
-190
-114
-138
-92
-25
-33
-53
-16
-46
-112
-12
108
62
12
98
141
66
58
212
126
28
261
131
-18
178
177
126
210
235
175
162
231
212
170
318
400
244
292
429
356
347
427
385
340
446
497
460
426
469
490
466
516
514
517
593
606
554
603
687
574
606
790
694
633
753
792
704
723
757
730
772
765
725
796
860
810
839
924
948
861
835
962
977
946
1044
1071
1044
1113
1101
1023
1107
1201
1165
1209
1349
1385
1333
1239
1115
1043
1048
1093
1145
1113
1056
1100
1109
1082
1091
1067
1065
1080
1114
1127
1143
1148
1080
1191
1252
1156
1136
1089
946
1084
1735
2599
3548
4395
4380
3019
1845
1542
1173
1069
1348
1467
1420
1419
1456
1396
1369
1403
1378
1418
1472
1430
1360
1431
1498
1435
1457
1526
1512
1524
1537
1519
1552
1587
1635
1653
1675
1787
1773
1743
1852
1892
1857
1944
2127
2097
2116
2376
2389
2319
2530
2587
2560
2718
2762
2708
2723
2773
2607
2441
2418
2189
1966
1870
1745
1540
1316
1253
1176
1061
1098
1063
944
919
915
826
868
978
868
808
876
801
685
813
838
617
629
720
670
688
666
612
593
606
673
546
492
595
512
563
597
468
441
512
522
370
437
464
296
282
304
270
240
304
312
243
259
294
241
170
232
204
116
264
263
125
219
251
131
150
196
117
123
182
188
163
148
176
144
144
248
212
126
230
269
118
188
368
269
185
248
285
242
218
255
210
201
326
255
130
276
245
170
364
388
192
257
461
381
310
359
337
366
392
341
322
361
471
493
460
485
494
530
583
621
591
543
689
727
726
836
618
408
474
484
387
400
454
386
419
533
488
387
483
497
327
352
476
435
409
556
452
308
463
406
234
327
455
857
1782
2827
3713
3769
2738
1657
1214
1195
1183
1238
1448
1562
1543
1520
1607
1631
1554
1656
1696
1617
1671
1761
1725
1693
1798
1768
1677
1747
1853
1839
1832
1954
1916
1826
1945
2014
2024
1996
1985
2053
2053
2181
2265
2238
2395
2471
2398
2467
2594
2650
2720
2829
2875
2866
2935
2944
2848
2791
2651
2453
2327
2146
1953
1779
1695
1602
1365
1315
1294
1116
1074
1089
998
992
1017
901
861
975
943
811
826
883
838
802
826
766
726
772
752
745
759
774
874
822
711
774
746
722
775
696
698
782
711
621
641
635
600
666
640
494
497
615
601
493
511
544
467
484
602
444
342
519
501
412
437
454
382
320
379
418
351
438
475
336
454
460
280
313
442
368
227
321
344
314
385
276
237
360
329
238
329
348
158
151
267
205
158
329
400
189
99
250
228
140
192
158
122
218
318
231
158
216
199
277
405
341
211
340
409
261
300
422
412
430
612
634
466
398
363
227
145
277
330
247
275
233
168
257
273
196
212
325
283
218
340
212
61
274
357
244
235
240
63
54
573
1374
2260
3197
3606
2486
1010
613
416
192
369
525
493
574
609
488
525
613
559
486
558
631
559
601
716
638
578
722
721
653
746
754
710
800
852
799
814
907
848
914
1107
1039
1011
1053
1154
1276
1282
1383
1491
1554
1609
1651
1674
1757
1871
1847
1852
1845
1680
1552
1544
1345
1015
944
848
541
430
372
166
71
92
-42
-147
-82
-133
-213
-208
-276
-346
-340
-368
-339
-307
-327
-342
-393
-461
-488
-513
-485
-445
-475
-573
-638
-587
-588
-573
-518
-561
-585
-607
-664
-696
-696
-671
-729
-729
-729
-852
-809
-732
-816
-886
-928
-873
-842
-914
-921
-940
-952
-952
-1020
-1098
-1025
-957
-1046
-1103
-1141
-1184
-1193
-1190
-1189
-1233
-1216
-1182
-1292
-1319
-1208
-1323
-1408
-1250
-1352
-1451
-1294
-1346
-1484
-1480
-1419
-1472
-1508
-1385
-1445
-1505
-1415
-1414
-1449
-1441
-1389
-1444
-1514
-1476
-1555
-1592
-1467
-1515
-1650
-1583
-1577
-1717
-1653
-1501
-1527
-1697
-1669
-1522
-1620
-1660
-1562
-1506
-1507
-1480
-1442
-1507
-1478
-1387
-1466
-1385
-1266
-1352
-1302
-1179
-1200
-1306
-1342
-1412
-1517
-1469
-1377
-1371
-1365
-1347
-1418
-1482
-1381
-1250
-1308
-1330
-1276
-1315
-1239
-1115
-1170
-1205
-1107
-1017
-1045
-1040
-1020
-1088
-730
125
1014
1957
2671
2085
629
-123
-195
-334
-390
-55
46
-84
115
213
123
283
431
339
438
626
731
827
815
920
978
1079
1301
1282
1310
1481
1564
1553
1619
1823
1824
1872
2067
2054
2144
2353
2419
2519
2712
2846
2887
3010
3212
3319
3461
3614
3690
3790
3869
3975
4016
4061
4178
4067
3977
3954
3762
3626
3632
3517
3294
3310
3309
3131
3085
3148
3118
3064
3172
3201
3107
3149
3244
3188
3146
3297
3356
3287
3381
3439
3427
3583
3694
3763
3871
4011
4051
4070
4264
4332
4314
4466
4702
4684
4581
4707
4763
4644
4637
4680
4531
4531
4657
4609
4652
4798
4728
4619
4658
4708
4641
4668
4694
4512
4537
4484
4315
4259
4198
4191
4037
4001
4014
3801
3745
3767
3583
3449
3502
3484
3328
3229
3229
3045
2896
2931
2760
2684
2833
2690
2429
2438
2464
2330
2221
2262
2244
2105
2108
2071
1961
2044
1962
1737
1791
1870
1698
1594
1733
1725
1549
1547
1636
1619
1621
1643
1585
1610
1740
1849
2007
2409
2794
2936
3184
3554
3684
3716
3858
4008
4150
4198
4183
4007
3866
3999
3891
3747
3914
3888
3715
3699
3738
3724
3658
3703
3718
3524
3575
3663
3493
3493
3515
3492
3491
3479
3369
3147
3169
3498
4084
5061
5999
6279
5499
4121
3284
3016
2863
2911
3072
2992
2946
2929
2825
2888
2841
2670
2701
2798
2740
2652
2659
2705
2669
2585
2564
2560
2635
2662
2568
2588
2574
2481
2509
2571
2530
2494
2626
2658
2523
2553
2687
2691
2737
2899
2871
2812
2955
2983
2984
3104
3088
3049
3086
3117
3075
2889
2817
2732
2443
2276
2112
1869
1745
1551
1303
1197
1152
1032
870
904
941
739
652
709
620
510
518
521
449
453
475
366
283
331
297
176
273
327
172
110
99
46
50
81
20
-71
-49
-57
-190
-189
-119
-311
-377
-262
-337
-343
-320
-457
-509
-393
-397
-594
-615
-467
-569
-670
-577
-638
-766
-636
-617
-760
-720
-708
-758
-843
-856
-813
-867
-862
-804
-897
-937
-867
-876
-958
-928
-881
-940
-948
-968
-989
-978
-949
-932
-969
-952
-947
-1049
-1001
-885
-960
-1023
-996
-972
-976
-948
-918
-1034
-1019
-959
-1061
-1024
-957
-983
-1023
-1013
-969
-1037
-963
-873
-1038
-1058
-921
-931
-905
-806
-862
-907
-878
-865
-834
-871
-801
-703
-780
-699
-698
-966
-1032
-999
-1049
-1053
-1029
-1045
-1077
-1016
-1013
-1158
-1076
-1002
-1082
-1093
-1128
-1096
-1090
-1056
-1037
-1137
-1062
-983
-1178
-1297
-1195
-916
-227
884
1874
2212
1488
122
-729
-998
-1074
-1031
-892
-785
-840
-878
-842
-869
-908
-918
-815
-840
-927
-900
-979
-918
-757
-770
-906
-825
-728
-842
-824
-734
-742
-766
-665
-633
-702
-641
-480
-487
-657
-512
-316
-383
-293
-138
-122
-71
111
263
199
275
418
365
422
556
475
375
396
314
101
-95
-193
-407
-592
-690
-834
-905
-957
-1082
-1187
-1127
-1129
-1237
-1173
-1202
-1343
-1298
-1198
-1289
-1395
-1231
-1183
-1257
-1217
-1270
-1304
-1207
-1214
-1269
-1245
-1232
-1205
-1242
-1248
-1130
-1169
-1218
-1094
-1209
-1375
-1205
-1131
-1229
-1227
-1250
-1311
-1276
-1254
-1327
-1342
-1233
-1326
-1411
-1318
-1362
-1416
-1404
-1343
-1366
-1427
-1376
-1367
-1450
-1483
-1427
-1521
-1566
-1415
-1428
-1504
-1455
-1511
-1572
-1472
-1483
-1566
-1511
-1452
-1552
-1627
-1510
-1505
-1612
-1534
-1524
-1621
-1556
-1522
-1641
-1667
-1540
-1523
-1641
-1589
-1528
-1647
-1675
-1613
-1621
-1677
-1641
-1565
-1610
-1609
-1686
-1806
-1672
-1621
-1744
-1638
-1627
-1780
-1717
-1585
-1534
-1615
-1644
-1564
-1643
-1679
-1554
-1554
-1613
-1500
-1416
-1481
-1453
-1493
-1667
-1748
-1704
-1719
-1805
-1799
-1792
-1788
-1748
-1750
-1832
-1852
-1786
-1826
-1875
-1737
-1697
-1870
-1863
-1730
-1804
-1851
-1742
-1919
-2084
-1739
-1123
-279
708
1330
771
-622
-1410
-1667
-1883
-1869
-1723
-1616
-1569
-1538
-1555
-1636
-1621
-1594
-1665
-1599
-1542
-1630
-1607
-1539
-1552
-1512
-1492
-1563
-1508
-1450
-1475
-1498
-1463
-1419
-1449
-1438
-1376
-1324
-1328
-1323
-1227
-1167
-1191
-1080
-1018
-1038
-841
-744
-762
-646
-584
-575
-474
-377
-436
-466
-339
-327
-470
-585
-708
-952
-1087
-1138
-1333
-1509
-1595
-1700
-1819
-1811
-1894
-2039
-1981
-1952
-2065
-2152
-2094
-2126
-2191
-2058
-2044
-2198
-2177
-2050
-2132
-2172
-2049
-2054
-2071
-2014
-1996
-2017
-2048
-1999
-1989
-2069
-2023
-1967
-1998
-1957
-1918
-1952
-1941
-1889
-1945
-2044
-1932
-1930
-2039
-1965
-1941
-1990
-1952
-1955
-2031
-2012
-1895
-1930
-2068
-2049
-1951
-1982
-2065
-1959
-1971
-2022
-1906
-2006
-2133
-2005
-1894
-2002
-2074
-2021
-2051
-2062
-1974
-1985
-2076
-1978
-1931
-2119
-2056
-1986
-2169
-2113
-1988
-2002
-2017
-2072
-2143
-2260
-2204
-2073
-2152
-2239
-2217
-2218
-2280
-2248
-2235
-2279
-2324
-2277
-2301
-2380
-2246
-2366
-2530
-2404
-2380
-2481
-2526
-2500
-2567
-2625
-2538
-2585
-2773
-2735
-2651
-2878
-2893
-2734
-2969
-3015
-2767
-2841
-3036
-3099
-3246
-3412
-3414
-3396
-3482
-3521
-3447
-3492
-3577
-3532
-3530
-3614
-3653
-3738
-3819
-3798
-3684
-3683
-3806
-3606
-3433
-3437
-3331
-3291
-3199
-2668
-1620
-526
277
527
-476
-1751
-2102
-2232
-2400
-2289
-2058
-2000
-2011
-1953
-1931
-1982
-1965
-1909
-2008
-2018
-1885
-1903
-1986
-1930
-1854
-1953
-1871
-1791
-1955
-1892
-1738
-1777
-1875
-1781
-1667
-1699
-1674
-1599
-1592
-1559
-1473
-1441
-1381
-1327
-1213
-1145
-1150
-970
-850
-829
-703
-681
-706
-569
-493
-555
-538
-465
-616
-758
-767
-1025
-1247
-1272
-1429
-1608
-1686
-1727
-1795
-1922
-1945
-1928
-1988
-1944
-1912
-2066
-2076
-1889
-1967
-2065
-1897
-1906
-2032
-1949
-1842
-1881
-1883
-1769
-1814
-1889
-1727
-1709
-1794
-1685
-1636
-1705
-1683
-1575
-1609
-1692
-1576
-1520
-1632
-1554
-1470
-1605
-1542
-1442
-1582
-1586
-1479
-1571
-1561
-1404
-1398
-1480
-1534
-1420
-1406
-1461
-1319
-1331
-1452
-1357
-1341
-1403
-1340
-1296
-1319
-1322
-1231
-1208
-1237
-1216
-1189
-1271
-1261
-1114
-1190
-1177
-1066
-1135
-1175
-1123
-1038
-1087
-1154
-1113
-1069
-1026
-1034
-1065
-1058
-982
-1015
-1084
-982
-916
-951
-937
-884
-962
-1020
-855
-846
-938
-869
-896
-900
-895
-884
-845
-882
-816
-769
-845
-777
-642
-718
-720
-588
-599
-609
-520
-525
-555
-483
-452
-443
-376
-308
-393
-607
-629
-520
-645
-694
-571
-616
-630
-561
-603
-637
-611
-566
-626
-679
-556
-540
-514
-505
-560
-531
-444
-459
-641
-693
-570
-229
584
1724
2578
2824
1983
597
-132
-329
-303
-295
-204
-36
-137
-225
-130
-115
-159
-166
-104
-66
-88
-36
-53
-124
-25
46
20
-8
47
126
17
83
200
160
240
289
234
359
456
356
445
617
641
685
846
915
902
1056
1156
1181
1305
1398
1382
1396
1556
1612
1528
1533
1560
1376
1174
1099
962
781
711
668
445
338
363
213
127
231
211
106
183
212
125
166
256
205
158
227
201
158
286
311
242
279
287
303
332
409
467
361
396
476
355
395
563
446
401
515
491
506
533
444
402
495
536
481
479
559
535
484
561
519
462
542
590
504
502
645
602
532
551
538
528
534
622
629
544
618
587
526
597
588
564
626
649
598
643
663
610
526
625
690
543
696
806
614
611
724
692
649
711
712
619
688
791
714
667
738
730
673
746
758
625
686
756
686
760
797
758
732
791
886
839
880
932
834
786
863
940
901
941
1065
1019
999
1022
790
671
802
792
726
773
814
693
647
711
674
716
770
705
648
746
733
597
728
794
676
744
733
563
503
706
1276
2105
3042
3785
3511
2254
1324
899
660
757
882
853
966
1089
976
945
997
928
913
1000
1021
994
1015
1107
1086
1024
1138
1076
1040
1217
1181
1119
1156
1198
1181
1170
1304
1290
1279
1419
1417
1375
1482
1623
1636
1660
1821
1895
1907
2021
2114
2061
2134
2338
2293
2237
2372
2310
2182
2222
2161
1907
1636
1546
1376
1176
1193
1095
885
829
783
700
748
654
546
666
704
600
575
660
648
553
564
633
559
583
702
660
558
642
797
693
673
803
683
639
816
751
617
720
792
700
664
775
765
718
826
748
631
725
734
663
691
719
609
657
745
615
571
705
716
586
642
698
628
618
660
635
582
629
618
569
613
647
600
580
640
545
426
546
650
522
518
629
482
476
643
573
476
522
574
500
483
552
453
439
524
455
409
470
487
418
460
543
404
381
495
406
380
413
392
374
392
455
353
364
570
440
335
524
574
543
534
494
471
552
590
562
664
715
608
488
367
368
401
348
391
384
350
370
321
289
357
361
308
384
374
329
344
373
412
330
355
395
205
139
234
467
1217
2364
3285
3624
2911
1510
716
470
345
357
512
651
562
465
533
569
499
455
560
592
452
529
602
503
564
624
461
445
625
666
663
681
609
545
640
699
615
684
808
774
802
908
923
953
1095
1239
1288
1332
1474
1502
1537
1703
1757
1707
1746
1887
1897
1860
1792
1642
1550
1421
1183
972
965
901
665
611
679
624
582
718
815
815
943
1048
1084
1240
1434
1498
1437
1529
1625
1560
1629
1731
1750
1759
1768
1693
1700
1844
1820
1758
1775
1818
1741
1682
1745
1665
1621
1705
1697
1597
1593
1609
1491
1488
1522
1379
1364
1476
1419
1286
1284
1371
1296
1222
1245
1161
1140
1203
1180
1051
1022
1068
979
966
1069
986
891
949
951
880
907
929
795
778
912
832
643
744
828
685
629
660
639
642
711
652
577
612
547
518
592
574
457
442
586
525
397
501
457
322
416
449
356
361
416
385
267
318
398
305
336
290
161
232
265
286
308
304
334
261
306
386
304
351
420
370
433
533
433
230
122
123
58
48
139
72
16
98
73
-66
-26
86
15
6
92
14
-23
78
44
-56
-12
-20
-106
-144
-175
-17
576
1579
2498
3048
2659
1261
248
42
0
-127
-64
150
117
1
50
95
31
39
88
20
26
102
43
-28
29
101
54
49
137
133
71
87
90
43
124
164
119
188
255
285
296
329
382
393
494
613
610
712
903
923
867
1015
1156
1061
1076
1166
1093
1112
1189
962
717
673
510
262
183
67
-134
-166
-197
-359
-402
-369
-515
-590
-509
-569
-673
-621
-591
-673
-650
-623
-675
-646
-627
-647
-714
-701
-574
-669
-764
-651
-615
-706
-633
-578
-668
-595
-564
-666
-625
-567
-614
-675
-673
-623
-693
-718
-578
-607
-759
-664
-633
-793
-726
-619
-773
-752
-655
-745
-726
-708
-748
-778
-730
-697
-785
-799
-745
-796
-836
-761
-749
-841
-811
-667
-790
-888
-757
-847
-924
-780
-763
-855
-822
-806
-877
-829
-758
-875
-918
-811
-757
-848
-908
-830
-906
-887
-777
-880
-862
-799
-890
-902
-833
-823
-916
-874
-797
-935
-969
-833
-824
-876
-791
-797
-877
-809
-793
-894
-899
-823
-778
-807
-757
-632
-776
-1037
-1029
-1009
-1108
-1086
-1096
-1165
-1179
-1225
-1217
-1215
-1224
-1210
-1269
-1236
-1249
-1314
-1254
-1272
-1365
-1324
-1278
-1370
-1419
-1441
-1416
-1055
-162
899
1606
1642
551
-778
-1242
-1346
-1480
-1409
-1192
-1161
-1303
-1316
-1257
-1302
-1259
-1242
-1345
-1292
-1225
-1270
-1283
-1245
-1214
-1258
-1273
-1174
-1176
-1235
-1152
-1108
-1169
-1091
-1025
-1103
-1085
-969
-955
-942
-758
-771
-872
-730
-524
-501
-535
-349
-262
-264
-109
60
97
96
154
160
143
88
-60
-179
-266
-440
-696
-847
-915
-1077
-1193
-1248
-1325
-1400
-1418
-1437
-1519
-1500
-1441
-1490
-1601
-1537
-1506
-1632
-1520
-1470
-1609
-1532
-1491
-1596
-1549
-1432
-1473
-1588
-1488
-1379
-1485
-1486
-1382
-1443
-1506
-1423
-1405
-1451
-1384
-1393
-1485
-1486
-1411
-1430
-1508
-1407
-1414
-1522
-1434
-1450
-1518
-1507
-1485
-1462
-1519
-1473
-1454
-1527
-1494
-1465
-1520
-1527
-1416
-1459
-1624
-1509
-1429
-1507
-1412
-1452
-1571
-1453
-1368
-1466
-1502
-1339
-1368
-1510
-1401
-1316
-1414
-1417
-1321
-1352
-1355
-1332
-1365
-1368
-1311
-1333
-1429
-1310
-1268
-1413
-1401
-1263
-1227
-1356
-1310
-1194
-1296
-1242
-1136
-1214
-1227
-1185
-1221
-1240
-1193
-1107
-1135
-1200
-1141
-1159
-1144
-1027
-1087
-1140
-1003
-968
-989
-906
-891
-947
-936
-879
-886
-936
-857
-726
-735
-734
-702
-890
-1007
-930
-967
-1043
-977
-852
-1002
-1064
-893
-1000
-1042
-895
-943
-1005
-908
-886
-945
-861
-794
-917
-922
-776
-873
-1061
-1002
-724
-84
1013
2057
2484
1861
563
-288
-630
-790
-730
-569
-503
-499
-476
-503
-486
-428
-473
-420
-358
-434
-363
-279
-337
-371
-310
-244
-241
-219
-178
-214
-210
-72
-35
-47
35
78
78
131
244
271
348
481
489
517
700
805
811
1033
1197
1120
1223
1488
1429
1281
1492
1571
1377
1401
1341
1112
1021
906
724
574
448
327
189
194
193
56
57
122
26
-22
166
152
43
179
278
202
302
463
365
372
480
487
421
408
456
455
486
510
480
473
583
568
406
511
624
518
565
665
516
457
642
650
545
642
669
533
600
669
577
587
597
604
593
582
650
565
534
718
648
492
651
664
558
636
664
629
648
672
658
649
712
708
597
660
772
686
640
734
637
579
754
756
698
749
701
579
602
730
655
624
767
716
653
677
714
701
658
734
735
670
734
729
650
730
765
639
654
744
627
645
803
692
672
773
726
713
812
913
752
636
814
832
730
849
944
878
921
840
627
533
537
669
592
529
583
456
455
533
498
457
489
432
406
520
527
427
416
540
522
419
487
428
223
324
658
1234
2234
3208
3489
2596
1332
643
312
321
447
442
523
594
508
487
548
505
454
528
603
479
414
562
531
469
561
524
501
597
581
532
622
612
497
510
635
707
673
729
761
719
804
879
855
878
985
1024
1073
1246
1250
1207
1342
1471
1444
1424
1495
1458
1299
1280
1222
943
781
677
451
289
190
-18
-143
-73
-147
-362
-385
-368
-515
-534
-479
-522
-608
-595
-556
-710
-686
-623
-763
-748
-669
-698
-765
-705
-672
-833
-793
-697
-813
-831
-722
-794
-868
-802
-826
-880
-832
-813
-932
-965
-910
-926
-982
-974
-1001
-1082
-1060
-1050
-1128
-1133
-1098
-1194
-1284
-1164
-1163
-1339
-1294
-1222
-1313
-1355
-1257
-1349
-1455
-1336
-1376
-1496
-1478
-1415
-1515
-1567
-1490
-1558
-1644
-1616
-1569
-1641
-1715
-1663
-1705
-1750
-1657
-1721
-1862
-1836
-1777
-1876
-1899
-1804
-1896
-1946
-1902
-1990
-2010
-1902
-1937
-2027
-1938
-1873
-1999
-2074
-2029
-2072
-2140
-2098
-2036
-2150
-2136
-2025
-2165
-2233
-2133
-2119
-2159
-2064
-2036
-2144
-2161
-2125
-2181
-2196
-2060
-2046
-2083
-1988
-2020
-2182
-2332
-2377
-2376
-2433
-2376
-2390
-2513
-2438
-2405
-2484
-2432
-2384
-2427
-2447
-2382
-2386
-2469
-2395
-2348
-2442
-2428
-2351
-2424
-2496
-2471
-2458
-2092
-1182
-143
625
784
-278
-1631
-2060
-2177
-2353
-2304
-2030
-1964
-2054
-2005
-1970
-2031
-2030
-1927
-1917
-1984
-1892
-1808
-1910
-1845
-1715
-1762
-1729
-1593
-1635
-1717
-1578
-1547
-1555
-1456
-1448
-1488
-1445
-1298
-1228
-1279
-1241
-1070
-969
-901
-797
-769
-707
-476
-430
-530
-321
-118
-106
-28
98
41
-27
54
-50
-242
-359
-557
-697
-738
-891
-1088
-1149
-1165
-1239
-1336
-1325
-1299
-1471
-1511
-1369
-1435
-1481
-1389
-1417
-1434
-1365
-1362
-1431
-1373
-1283
-1296
-1276
-1254
-1302
-1281
-1178
-1204
-1279
-1190
-1087
-1090
-1117
-1100
-1070
-1092
-1063
-1033
-1102
-1038
-951
-1040
-1042
-940
-978
-1018
-888
-879
-1028
-1013
-895
-933
-961
-831
-875
-994
-860
-796
-870
-817
-776
-894
-901
-709
-758
-912
-720
-685
-848
-767
-728
-797
-745
-629
-663
-758
-636
-612
-704
-621
-587
-657
-679
-580
-583
-668
-571
-531
-578
-587
-567
-516
-513
-452
-409
-539
-506
-371
-423
-395
-304
-387
-420
-292
-318
-406
-301
-278
-354
-309
-269
-370
-411
-317
-286
-313
-289
-257
-296
-288
-227
-271
-307
-201
-200
-281
-191
-110
-147
-211
-330
-492
-567
-501
-518
-568
-431
-357
-453
-367
-218
-270
-256
-103
-62
-59
96
141
80
164
235
231
287
318
197
93
336
981
1927
2970
3735
3379
1984
1045
629
366
445
682
723
672
758
730
730
821
746
671
767
824
781
834
928
891
824
915
959
904
1015
1063
1032
1112
1100
1114
1185
1284
1338
1246
1329
1453
1518
1611
1637
1625
1712
1933
1987
1999
2162
2268
2351
2438
2455
2453
2552
2694
2590
2446
2446
2239
2023
1973
1814
1549
1439
1416
1238
1162
1211
1104
950
947
1005
962
885
959
977
845
891
955
903
892
930
910
830
893
946
884
891
926
885
915
1016
946
896
1026
981
865
954
1000
899
895
946
881
848
942
929
876
969
972
889
909
959
897
850
957
919
808
957
1004
869
900
917
806
832
936
881
817
889
870
792
843
882
794
761
870
910
834
844
863
781
791
847
806
820
893
783
763
899
821
714
781
798
693
724
774
678
634
698
734
665
693
769
704
645
662
632
577
622
594
555
626
655
616
573
608
595
541
645
705
660
700
740
691
624
691
726
756
847
846
801
806
821
603
508
629
529
494
537
501
490
515
514
404
416
510
465
468
503
449
385
442
530
417
343
469
403
219
301
557
1085
2048
3007
3423
2792
1459
592
329
304
268
259
356
418
367
309
392
429
374
457
509
411
438
493
466
471
499
526
515
612
696
546
569
688
599
649
803
755
699
772
891
926
992
1117
1093
1169
1310
1328
1435
1585
1645
1650
1707
1830
1865
1919
1934
1870
1852
1808
1700
1483
1318
1215
1006
871
786
596
466
444
364
260
267
197
108
182
176
63
72
122
73
-27
82
218
18
20
208
134
105
167
114
85
149
150
101
120
200
194
165
223
262
143
76
210
188
124
223
205
103
171
211
131
175
205
132
160
199
158
136
154
154
107
106
146
109
111
192
162
111
144
170
103
84
185
133
113
182
107
57
154
201
104
138
148
111
163
166
161
120
131
199
195
207
160
102
199
259
211
172
264
301
198
291
384
281
317
375
276
286
415
365
330
413
376
330
395
522
430
330
507
590
567
615
682
661
626
685
663
697
859
915
869
871
910
723
563
668
654
577
636
627
605
693
728
624
577
635
590
647
756
693
588
632
756
652
658
790
629
458
543
828
1449
2555
3551
3972
3394
1959
1047
751
654
783
886
889
898
868
848
910
858
795
925
931
782
834
932
847
839
958
920
893
990
934
860
971
997
959
1036
1089
1024
1023
1122
1147
1159
1224
1276
1330
1399
1481
1525
1595
1764
1825
1812
1957
2081
2019
2031
2131
2088
2022
2018
1852
1647
1491
1308
1138
906
803
700
502
520
413
165
212
269
187
136
132
161
109
63
63
38
91
121
41
31
132
84
-16
146
172
-40
32
157
78
63
145
112
41
102
114
98
111
79
21
77
80
28
52
41
28
-109
-39
105
-58
-77
31
-24
-104
-24
49
-92
-151
-49
-110
-168
-55
-78
-165
-105
-145
-143
-80
-107
-127
-189
-144
-113
-159
-80
-83
-162
-166
-172
-256
-263
-60
-89
-240
-154
-167
-289
-220
-142
-206
-244
-235
-232
-220
-195
-207
-239
-228
-192
-185
-208
-167
-143
-219
-190
-154
-234
-204
-146
-262
-242
-82
-148
-205
-159
-185
-166
-112
-78
-120
-100
17
-7
-28
54
-6
-99
26
76
84
195
302
191
-51
-42
-126
-220
-64
-10
-87
-105
-30
-19
-71
-82
-52
-7
-46
-56
-39
-35
48
49
-13
22
87
6
-11
-18
44
681
1668
2634
3318
3061
1751
747
450
256
253
397
488
487
492
548
584
519
517
631
628
627
668
602
620
730
673
620
753
801
737
731
741
710
731
829
862
818
879
983
941
971
1090
1083
1101
1269
1296
1244
1452
1568
1503
1591
1711
1702
1711
1834
1850
1778
1785
1768
1626
1418
1278
1122
902
756
674
495
365
317
184
133
127
8
-57
36
17
-140
-92
-22
-129
-152
-104
-161
-190
-148
-144
-172
-158
-134
-213
-205
-119
-170
-215
-137
-149
-232
-161
-143
-233
-184
-111
-160
-222
-200
-163
-235
-241
-141
-165
-227
-215
-260
-313
-224
-220
-291
-250
-257
-357
-321
-211
-296
-340
-234
-243
-305
-258
-225
-332
-333
-150
-215
-357
-221
-195
-269
-205
-171
-207
-209
-149
-153
-196
-115
-175
-296
-187
-98
-171
-152
-60
-108
-156
-57
-122
-221
-23
-27
-192
-104
-8
-125
-139
-17
-53
-90
-43
-54
-94
-27
54
-36
-102
7
16
-51
6
86
79
79
122
83
69
108
158
213
209
284
318
315
305
94
41
142
42
-24
70
98
55
34
73
32
-14
138
108
-67
18
60
-45
10
130
77
53
116
10
-123
-96
104
647
1637
2678
3266
2832
1519
548
155
36
87
163
286
368
307
243
348
336
227
320
376
304
314
378
370
364
380
356
360
421
461
441
512
530
427
437
580
629
564
653
745
734
791
858
904
1010
1111
1159
1199
1368
1497
1438
1565
1792
1735
1679
1806
1830
1736
1725
1640
1357
1249
1152
880
748
692
572
369
217
200
172
116
126
113
38
51
53
-21
1
50
-13
-49
17
53
-2
28
11
-75
43
93
-5
14
99
60
22
69
67
16
65
84
-5
118
161
-25
31
184
134
20
101
151
25
66
139
58
38
118
82
30
66
101
65
-3
66
88
101
195
174
77
65
130
113
133
168
87
84
178
154
120
186
173
79
100
194
158
154
207
156
149
221
218
123
169
291
198
141
265
226
150
245
274
194
207
297
267
233
275
269
263
276
274
231
209
264
248
192
296
310
178
258
315
224
243
285
211
203
370
355
194
334
488
325
309
455
342
306
486
497
510
598
548
356
232
262
204
150
248
278
141
133
179
125
197
193
57
137
224
89
21
151
208
132
161
249
133
-42
-9
107
604
1665
2697
3382
3322
2041
727
326
170
132
296
449
397
244
302
366
278
271
338
298
268
351
338
284
361
412
334
307
445
404
323
491
512
433
486
558
466
450
611
655
674
754
806
828
924
1039
1099
1112
1237
1380
1403
1516
1623
1592
1623
1749
1734
1621
1629
1581
1346
1221
1118
877
705
636
491
268
237
209
52
82
91
-36
-40
-9
-86
-103
-24
-25
-108
-85
-8
-105
-137
1
-25
-117
-1
23
-151
-69
29
-136
-110
21
-19
-47
-4
-49
-92
7
4
-74
5
28
-85
-124
-45
-23
-103
-79
-89
-174
-79
-11
-118
-173
-101
-144
-205
-102
-98
-163
-114
-85
-167
-148
-66
-125
-213
-155
-97
-155
-132
-42
-111
-199
-64
-82
-189
-78
-75
-145
-119
-59
-95
-135
-60
-52
-62
-22
-67
-119
-69
-14
-29
-99
-61
-25
-14
24
-1
8
13
35
39
-27
-4
86
36
38
92
7
43
140
128
101
171
204
134
176
259
203
195
333
297
235
368
396
364
323
173
91
120
125
54
24
75
41
9
89
87
-16
-20
72
18
-33
61
30
-23
130
151
18
16
-7
-155
-138
251
994
1995
2863
3247
2411
971
365
186
5
56
211
200
289
341
237
256
289
246
214
302
333
273
327
373
278
276
425
335
202
399
463
339
428
502
432
460
554
565
574
663
676
708
824
826
843
1031
1214
1199
1222
1441
1477
1423
1622
1734
1606
1638
1785
1627
1438
1422
1269
1038
907
789
586
442
401
251
146
191
146
4
8
29
-121
-95
17
-100
-160
-99
-144
-203
-141
-75
-150
-138
-86
-105
-60
-78
-178
-150
-2
-26
-120
-55
-45
-100
-37
45
-20
-66
53
61
-33
-56
-12
-41
-63
10
-59
-119
-70
-27
-88
-98
-55
-106
-91
-84
-115
-144
-30
23
-98
-100
-73
-92
-97
-54
-72
-90
-9
-41
-135
-88
-13
-102
-135
-21
-16
2
99
-5
-96
13
73
20
-22
36
51
-57
28
157
39
36
122
37
75
163
96
90
184
222
53
23
224
191
94
246
276
169
185
216
203
213
316
298
203
310
306
290
434
322
232
408
499
378
422
614
493
379
538
645
595
615
756
768
685
680
584
438
519
572
459
477
532
472
507
571
481
452
568
550
442
510
622
473
429
579
554
567
576
485
377
381
811
1542
2698
4124
4806
4135
2967
2476
2277
2206
2451
2616
2711
2848
2906
2919
3041
3154
3103
3142
3310
3276
3267
3425
3449
3434
3507
3537
3440
3470
3637
3561
3544
3645
3530
3503
3621
3637
3650
3686
3698
3714
3790
3868
3827
3943
4038
3972
4033
4179
4272
4170
4150
4383
4371
4271
4409
4323
4150
4230
4044
3671
3550
3421
3155
2958
2879
2779
2553
2409
2406
2209
2148
2234
2094
2025
2080
1978
1863
1908
1867
1864
1907
1832
1742
1689
1726
1753
1688
1716
1787
1651
1574
1684
1595
1425
1501
1561
1471
1490
1492
1362
1328
1372
1337
1232
1232
1251
1151
1146
1169
1050
1014
1070
987
859
919
980
852
763
792
733
709
745
636
553
622
632
508
395
446
402
311
405
327
211
295
219
100
191
184
29
-44
20
-1
-77
8
-22
-188
-195
-133
-228
-331
-247
-286
-416
-358
-357
-468
-501
-397
-467
-640
-540
-560
-677
-636
-675
-788
-796
-790
-855
-905
-854
-906
-1000
-923
-944
-1116
-1075
-993
-1136
-1112
-991
-1137
-1221
-1100
-1166
-1286
-1266
-1134
-1142
-1244
-1156
-1230
-1478
-1568
-1567
-1694
-1735
-1690
-1771
-1765
-1797
-1913
-1882
-1763
-1851
-2093
-2039
-1945
-2057
-2069
-2016
-2063
-2122
-2062
-2055
-2270
-2325
-2261
-2294
-1801
-764
138
743
566
-745
-1867
-2110
-2290
-2484
-2405
-2200
-2183
-2254
-2199
-2242
-2331
-2293
-2228
-2318
-2407
-2279
-2281
-2387
-2328
-2267
-2344
-2369
-2246
-2316
-2350
-2244
-2234
-2219
-2232
-2183
-2203
-2171
-2068
-2146
-2078
-1888
-1903
-1947
-1795
-1676
-1713
-1621
-1434
-1415
-1362
-1185
-1139
-1171
-1085
-1009
-1090
-1118
-1108
-1307
-1425
-1465
-1726
-1967
-2015
-2129
-2286
-2340
-2445
-2461
-2483
-2533
-2547
-2615
-2587
-2619
-2659
-2580
-2623
-2643
-2604
-2537
-2511
-2582
-2498
-2470
-2558
-2465
-2349
-2422
-2390
-2295
-2344
-2378
-2338
-2283
-2263
-2258
-2221
-2242
-2267
-2143
-2154
-2254
-2179
-2090
-2124
-2071
-2016
-2089
-2062
-1985
-2026
-2087
-1975
-1925
-2041
-1953
-1858
-1927
-1862
-1811
-1861
-1907
-1834
-1785
-1843
-1788
-1757
-1803
-1773
-1736
-1759
-1768
-1720
-1692
-1739
-1713
-1633
-1656
-1718
-1645
-1568
-1614
-1572
-1554
-1668
-1595
-1497
-1553
-1538
-1443
-1449
-1500
-1406
-1392
-1530
-1451
-1323
-1427
-1399
-1242
-1289
-1337
-1228
-1214
-1241
-1159
-1149
-1142
-1131
-1143
-1107
-1132
-1050
-1008
-1045
-948
-907
-958
-873
-726
-780
-771
-641
-654
-684
-590
-553
-613
-534
-385
-381
-367
-221
-284
-531
-557
-468
-512
-543
-448
-475
-601
-553
-477
-572
-617
-510
-542
-580
-489
-611
-667
-478
-539
-673
-533
-477
-674
-807
-827
-673
-108
894
1844
2410
2173
812
-351
-643
-753
-879
-783
-557
-548
-662
-655
-645
-695
-704
-678
-717
-772
-779
-726
-722
-789
-910
-1239
-1493
-1591
-1773
-1897
-1955
-2087
-2170
-2184
-2197
-2259
-2285
-2275
-2346
-2364
-2298
-2286
-2334
-2287
-2150
-2160
-2175
-2014
-1999
-2034
-1845
-1756
-1805
-1758
-1737
-1814
-1844
-1890
-2039
-2168
-2325
-2546
-2792
-2935
-3052
-3225
-3309
-3384
-3513
-3614
-3617
-3616
-3754
-3822
-3765
-3851
-3898
-3881
-3930
-3901
-3823
-3844
-3936
-3962
-3925
-3949
-3976
-3911
-3910
-3939
-3919
-3934
-3981
-3949
-3868
-3930
-3928
-3771
-3905
-4055
-3921
-3856
-3883
-3897
-3894
-3915
-3862
-3798
-3881
-3940
-3890
-3910
-3964
-3863
-3827
-3950
-3951
-3897
-3950
-3917
-3841
-3917
-3942
-3822
-3825
-3929
-3889
-3776
-3822
-3899
-3812
-3763
-3830
-3786
-3712
-3791
-3792
-3680
-3680
-3753
-3666
-3577
-3682
-3634
-3525
-3577
-3554
-3502
-3518
-3498
-3389
-3316
-3398
-3353
-3278
-3342
-3269
-3201
-3245
-3232
-3152
-3101
-3165
-3108
-2974
-3034
-3057
-2968
-2950
-2935
-2886
-2901
-2937
-2806
-2670
-2775
-2796
-2609
-2608
-2694
-2545
-2515
-2561
-2401
-2399
-2456
-2360
-2282
-2273
-2232
-2162
-2157
-2127
-1963
-1861
-1884
-1889
-1897
-2041
-2205
-2064
-2013
-2085
-1928
-1932
-2110
-2063
-1878
-1934
-2000
-1838
-1837
-1933
-1888
-1832
-1852
-1803
-1744
-1800
-1778
-1682
-1767
-1918
-1851
-1641
-1197
-166
990
1611
1359
191
-865
-1413
-1634
-1542
-1424
-1294
-1233
-1285
-1378
-1321
-1211
-1335
-1279
-1109
-1214
-1220
-1094
-1155
-1216
-1102
-1013
-1085
-1057
-943
-1010
-1034
-923
-941
-939
-755
-790
-831
-668
-675
-641
-449
-434
-506
-408
-208
-107
-87
32
167
193
259
398
468
479
597
603
472
543
483
267
180
128
-57
-288
-382
-490
-610
-701
-808
-932
-979
-926
-1034
-1130
-976
-994
-1149
-1072
-1012
-1088
-1065
-1019
-1043
-1065
-1042
-979
-1080
-1051
-860
-976
-1005
-844
-879
-901
-797
-846
-939
-819
-725
-820
-798
-679
-799
-874
-755
-750
-797
-745
-744
-833
-770
-666
-759
-859
-761
-667
-804
-758
-623
-826
-814
-657
-826
-897
-766
-800
-930
-867
-732
-838
-965
-881
-905
-990
-875
-946
-1060
-887
-842
-1011
-988
-839
-935
-1034
-931
-987
-1005
-875
-906
-915
-942
-935
-885
-900
-870
-915
-1021
-972
-870
-955
-1004
-909
-915
-942
-878
-874
-999
-949
-838
-952
-961
-833
-820
-894
-911
-924
-956
-896
-869
-960
-957
-814
-832
-863
-750
-815
-884
-778
-745
-829
-800
-722
-785
-700
-599
-772
-975
-1062
-1056
-1062
-1079
-1059
-1130
-1151
-1058
-1142
-1222
-1124
-1171
-1324
-1279
-1232
-1319
-1325
-1234
-1233
-1364
-1356
-1257
-1404
-1544
-1504
-1394
-842
151
960
1542
1339
-5
-1013
-1267
-1404
-1508
-1444
-1210
-1224
-1372
-1294
-1305
-1378
-1289
-1253
-1280
-1282
-1266
-1269
-1294
-1294
-1264
-1290
-1231
-1148
-1234
-1221
-1184
-1248
-1254
-1150
-1052
-1099
-1096
-1038
-1066
-1087
-1008
-952
-967
-845
-811
-848
-737
-640
-591
-607
-586
-527
-604
-639
-561
-655
-773
-796
-967
-1155
-1285
-1508
-1829
-2052
-2192
-2396
-2533
-2623
-2753
-2886
-2917
-2976
-3099
-3060
-3046
-3137
-3133
-3113
-3153
-3206
-3138
-3136
-3258
-3144
-3120
-3240
-3178
-3116
-3191
-3168
-3044
-3123
-3169
-3049
-3019
-3069
-3049
-2985
-3038
-3056
-2932
-2977
-3042
-2920
-2950
-3035
-2882
-2876
-3048
-2955
-2834
-2892
-2948
-2880
-2847
-2913
-2842
-2776
-2908
-2911
-2748
-2769
-2873
-2775
-2699
-2718
-2630
-2601
-2652
-2621
-2528
-2593
-2684
-2570
-2497
-2591
-2513
-2352
-2462
-2477
-2327
-2392
-2471
-2346
-2201
-2274
-2279
-2155
-2209
-2236
-2109
-2024
-2143
-2081
-1980
-2098
-2084
-1996
-1962
-1995
-1898
-1854
-1988
-1859
-1806
-1935
-1791
-1645
-1671
-1679
-1582
-1555
-1636
-1530
-1422
-1446
-1368
-1241
-1283
-1351
-1269
-1192
-1115
-962
-896
-895
-702
-619
-725
-628
-467
-426
-392
-207
-93
-250
-338
-331
-401
-441
-406
-316
-340
-281
-218
-330
-244
-182
-268
-263
-150
-153
-207
-110
-56
-92
-70
27
44
-34
-105
-163
-28
629
1677
2642
3322
3069
1626
596
398
160
44
317
488
398
456
498
473
448
484
549
513
564
615
509
569
707
660
624
718
747
650
737
786
737
869
922
843
905
1063
1050
1039
1204
1244
1266
1413
1544
1629
1662
1810
1888
1895
2130
2220
2150
2290
2423
2366
2406
2490
2384
2236
2154
2021
1719
1585
1526
1247
1096
1127
1041
835
793
789
662
629
653
575
599
661
593
583
613
567
472
499
607
602
558
554
556
527
546
585
552
589
609
525
576
647
535
530
645
570
537
624
586
533
583
622
611
552
496
522
501
464
513
478
408
478
436
350
438
442
406
400
397
377
344
414
364
274
354
366
289
307
292
198
186
275
278
209
298
278
108
184
255
100
126
216
113
89
136
89
29
21
42
-13
-29
-1
-79
-92
-50
-73
-150
-160
-114
-220
-257
-177
-212
-255
-250
-229
-316
-346
-308
-397
-373
-336
-425
-450
-374
-398
-515
-504
-480
-502
-519
-492
-484
-500
-402
-451
-525
-405
-424
-510
-442
-376
-360
-304
-268
-354
-558
-651
-595
-660
-693
-637
-732
-722
-616
-690
-764
-709
-659
-751
-793
-653
-671
-760
-670
-667
-749
-733
-601
-659
-851
-833
-766
-374
571
1620
2380
2534
1502
114
-410
-521
-623
-616
-420
-304
-398
-412
-370
-416
-403
-361
-393
-355
-298
-295
-312
-234
-222
-347
-291
-180
-164
-195
-171
-107
-100
1
55
-21
38
125
112
166
314
386
384
488
652
689
711
894
944
934
1135
1199
1184
1348
1440
1352
1354
1434
1298
1149
1088
927
729
637
562
278
173
273
104
-83
-40
-7
-132
-86
39
-16
-24
-48
-117
-106
-9
47
-62
-25
54
-34
-25
72
138
74
89
180
102
112
241
182
127
254
234
178
310
316
257
308
309
225
257
413
356
259
310
364
382
401
425
379
367
450
429
379
510
539
416
473
589
542
522
592
581
559
622
675
593
624
728
694
751
762
671
702
850
856
769
858
929
902
885
912
891
914
1040
1031
992
971
994
1011
993
1084
1116
1089
1092
1056
1064
1109
1122
1086
1059
1172
1156
1096
1210
1207
1116
1137
1224
1183
1179
1340
1302
1204
1290
1337
1267
1273
1375
1387
1389
1505
1538
1428
1373
1320
1132
1090
1180
1097
1085
1216
1205
1083
1135
1137
1019
1115
1156
1060
1071
1151
1116
1070
1198
1215
1089
1128
1126
881
865
1306
2006
2937
3886
4335
3457
2021
1444
1156
953
1073
1186
1229
1299
1266
1140
1174
1192
1127
1186
1265
1199
1151
1184
1177
1153
1180
1235
1170
1143
1216
1195
1179
1249
1288
1241
1242
1325
1317
1317
1408
1432
1415
1476
1565
1608
1721
1852
1846
1899
2065
2101
2126
2255
2294
2242
2272
2365
2242
2101
2122
1942
1695
1582
1398
1203
1075
1008
856
697
714
618
596
612
500
495
574
535
400
431
505
418
375
474
504
417
438
536
447
417
568
534
426
527
570
509
550
565
513
546
603
543
494
572
594
540
605
599
460
557
649
551
532
560
560
543
553
587
536
499
600
582
488
590
629
490
552
637
484
514
656
584
548
642
631
589
648
628
497
559
677
571
546
656
687
607
547
625
617
579
700
696
646
761
763
686
699
752
763
718
754
781
740
786
795
734
795
840
812
866
905
890
887
935
908
820
928
941
793
885
1001
972
964
1038
1104
1114
1059
1132
1160
1014
1128
1215
1170
1297
1420
1344
1293
1228
1035
1040
1103
1035
1034
1127
1122
1060
1169
1185
1084
1113
1168
1185
1132
1210
1277
1166
1206
1320
1329
1282
1236
1132
1031
1320
1970
2868
3933
4682
4355
3002
1974
1634
1423
1369
1582
1693
1695
1689
1565
1586
1710
1687
1631
1726
1715
1637
1777
1833
1682
1715
1827
1779
1712
1782
1873
1785
1818
1878
1827
1883
1902
1937
1999
2048
2140
2150
2190
2256
2305
2427
2541
2567
2604
2762
2865
2879
2939
3029
3058
3081
3160
3126
2986
2882
2806
2602
2450
2324
2043
1971
1903
1702
1571
1503
1471
1385
1362
1376
1327
1341
1351
1282
1216
1256
1298
1202
1171
1243
1175
1147
1291
1227
1179
1279
1230
1202
1297
1314
1238
1270
1331
1307
1222
1264
1296
1217
1287
1326
1203
1178
1320
1280
1154
1241
1291
1230
1220
1219
1165
1162
1284
1280
1171
1245
1254
1133
1235
1299
1184
1205
1266
1204
1184
1241
1236
1155
1224
1268
1176
1281
1309
1233
1209
1328
1358
1175
1266
1340
1223
1230
1332
1364
1248
1292
1370
1258
1303
1386
1316
1284
1326
1268
1214
1362
1417
1239
1251
1367
1281
1274
1346
1301
1286
1323
1303
1275
1315
1375
1344
1287
1336
1283
1261
1370
1316
1346
1486
1356
881
490
306
-89
-305
-182
-267
-446
-382
-316
-564
-900
-1067
-1127
-1269
-1290
-1267
-1386
-1386
-1414
-1484
-1449
-1456
-1562
-1663
-1595
-1493
-1580
-1531
-1410
-1482
-1515
-1429
-1330
-1390
-1458
-1492
-1413
-849
111
1041
1729
1764
504
-678
-865
-1082
-1326
-1146
-834
-835
-871
-763
-787
-792
-704
-663
-671
-621
-527
-569
-533
-419
-432
-403
-326
-279
-231
-157
-57
-34
-46
42
53
71
270
368
367
522
673
661
709
854
931
1016
1170
1267
1303
1423
1605
1633
1661
1847
1827
1690
1783
1733
1555
1517
1373
1208
1061
910
771
625
624
602
372
295
444
398
323
410
322
236
373
368
328
456
442
314
334
424
396
402
472
477
474
533
594
528
553
631
552
582
722
701
630
737
796
675
672
785
785
765
855
835
790
815
784
795
856
916
873
835
931
926
857
933
947
833
861
952
899
882
956
936
898
971
962
883
936
1069
1000
835
942
970
877
935
940
895
895
875
898
874
860
853
747
837
939
796
774
811
661
706
813
713
677
710
716
636
624
680
566
535
548
448
452
506
489
377
353
390
294
274
332
289
243
278
270
192
200
203
151
199
186
127
137
174
187
120
130
81
-156
-267
-188
-240
-428
-423
-376
-528
-485
-465
-715
-717
-647
-709
-776
-776
-749
-827
-867
-837
-886
-905
-834
-900
-1127
-1127
-690
46
1056
1987
2128
1067
-161
-763
-1120
-1168
-1054
-954
-886
-911
-999
-1056
-1002
-1064
-1189
-1093
-1049
-1240
-1249
-1107
-1222
-1257
-1089
-1172
-1301
-1209
-1146
-1272
-1224
-1123
-1341
-1354
-1153
-1197
-1280
-1150
-1109
-1206
-1097
-1004
-1041
-1000
-838
-738
-745
-609
-537
-529
-406
-355
-334
-316
-266
-307
-449
-464
-592
-861
-1052
-1139
-1260
-1492
-1608
-1699
-1846
-1919
-1980
-2058
-2063
-2044
-2127
-2188
-2120
-2092
-2226
-2222
-2140
-2235
-2219
-2122
-2168
-2198
-2109
-2092
-2157
-2064
-1955
-2027
-2042
-1950
-1988
-1975
-1840
-1881
-1920
-1792
-1807
-1928
-1823
-1740
-1855
-1824
-1711
-1708
-1751
-1719
-1640
-1657
-1683
-1641
-1635
-1658
-1578
-1547
-1610
-1556
-1512
-1554
-1509
-1467
-1536
-1571
-1476
-1476
-1553
-1477
-1644
-2051
-2225
-2276
-2467
-2723
-2786
-2841
-3135
-3253
-3233
-3449
-3622
-3600
-3727
-3820
-3676
-3690
-3774
-3693
-3654
-3739
-3698
-3616
-3705
-3754
-3645
-3655
-3751
-3645
-3629
-3717
-3619
-3581
-3606
-3583
-3582
-3532
-3574
-3490
-3381
-3554
-3441
-3312
-3429
-3366
-3256
-3265
-3278
-3212
-3151
-3210
-3169
-3071
-3132
-3115
-3052
-2982
-2972
-3003
-2939
-2950
-2883
-2687
-2663
-2703
-2752
-2932
-3010
-2956
-3004
-3065
-3038
-2974
-3017
-3133
-3115
-3087
-3160
-3202
-3164
-3271
-3338
-3220
-3338
-3474
-3370
-3425
-3602
-3594
-3609
-3814
-3911
-3494
-2778
-1869
-806
-450
-1349
-2664
-3398
-3738
-3862
-3787
-3675
-3601
-3571
-3597
-3657
-3587
-3590
-3683
-3581
-3484
-3563
-3471
-3357
-3421
-3345
-3191
-3103
-3123
-3055
-2878
-2855
-2749
-2536
-2486
-2463
-2315
-2128
-2078
-2030
-1826
-1754
-1665
-1348
-1236
-1270
-1131
-977
-871
-710
-471
-356
-303
-137
-89
-39
140
184
122
127
109
-39
-263
-363
-449
-581
-604
-716
-806
-757
-816
-891
-872
-800
-781
-801
-690
-636
-673
-626
-588
-598
-581
-491
-434
-457
-459
-418
-369
-333
-291
-285
-299
-215
-175
-169
-35
-8
-41
23
67
51
40
125
133
123
254
334
339
292
310
359
380
515
542
448
538
594
500
635
810
697
690
843
834
825
993
1137
1103
1139
1268
1236
1241
1425
1430
1361
1543
1618
1528
1612
1715
1704
1709
1837
1898
1780
1849
1979
1938
1962
2083
2048
2048
2164
2091
2081
2199
2225
2209
2263
2276
2214
2276
2369
2316
2278
2445
2521
2378
2392
2516
2495
2404
2458
2527
2487
2567
2572
2517
2587
2609
2603
2635
2719
2756
2720
2748
2798
2746
2781
2848
2801
2847
3003
2990
2784
2782
2738
2586
2616
2647
2625
2595
2636
2591
2468
2548
2609
2483
2558
2717
2559
2514
2612
2556
2583
2643
2600
2563
2587
2541
2413
2454
2900
3696
4542
5392
5678
4455
3125
2843
2583
2385
2540
2596
2606
2676
2646
2613
2680
2633
2576
2596
2600
2631
2560
2568
2633
2525
2571
2675
2548
2633
2799
2692
2643
2711
2726
2618
2636
2750
2679
2711
2826
2793
2729
2764
2835
2840
2936
3093
3078
3072
3270
3316
3198
3325
3389
3319
3418
3467
3310
3124
3103
3028
2819
2693
2558
2414
2325
2257
2132
2018
2069
1974
1805
1880
1892
1786
1802
1829
1715
1653
1762
1720
1665
1774
1705
1646
1720
1658
1563
1546
1607
1573
1498
1583
1558
1454
1479
1558
1502
1411
1523
1535
1412
1477
1526
1404
1398
1483
1403
1395
1531
1455
1293
1351
1486
1428
1327
1439
1454
1367
1451
1444
1390
1480
1493
1359
1412
1555
1467
1415
1504
1500
1433
1542
1578
1505
1583
1645
1594
1595
1726
1711
1600
1762
1853
1759
1833
1884
1792
1807
1958
1938
1858
1945
1947
1878
1948
2018
1987
1980
2027
2058
1998
2052
2094
1974
1998
2086
2006
1992
2173
2110
1981
2079
2130
2064
2115
2244
2174
2122
2245
2213
2156
2287
2243
2129
2275
2370
2314
2371
2446
2291
2067
2054
2084
1982
1948
1993
1932
1931
1996
1931
1847
1913
1928
1823
1868
1850
1724
1801
1863
1819
1780
1771
1812
1706
1563
1573
1773
2484
3563
4413
4886
4295
2879
2048
1782
1647
1630
1770
1916
1831
1802
1906
1889
1822
1831
1886
1822
1835
1927
1864
1846
1901
1916
1932
1953
1924
1916
1907
1916
1923
1876
1972
2025
1952
1979
2043
2032
2015
2154
2212
2160
2356
2433
2355
2463
2627
2685
2711
2841
2870
2855
2953
2961
2874
2882
2839
2613
2413
2351
2141
1835
1767
1629
1433
1404
1287
1131
1154
1187
1052
902
946
935
846
890
890
786
753
842
755
650
770
790
704
713
772
761
740
809
765
682
771
751
674
764
852
817
746
786
765
686
816
830
706
796
822
712
719
741
723
736
739
769
768
673
674
683
666
782
755
606
694
723
584
693
771
634
617
685
639
590
647
607
577
642
646
592
560
592
608
603
612
577
511
576
683
675
593
563
531
527
619
576
539
620
645
559
524
609
618
589
666
624
517
629
669
548
590
636
558
518
600
661
578
537
602
628
598
663
675
570
628
709
684
768
803
716
735
830
778
778
913
968
973
994
994
847
658
709
733
627
676
712
666
670
735
686
596
654
648
575
630
682
657
680
729
674
679
812
713
530
505
586
936
1755
2831
3750
4143
3410
1956
1151
1028
888
848
1044
1138
1067
1028
1040
1034
1036
1090
1063
965
1051
1127
1039
1033
1108
1136
1103
1136
1188
1104
1105
1189
1182
1209
1265
1199
1162
1293
1328
1326
1519
1653
1594
1656
1847
1915
1963
2103
2260
2332
2468
2554
2452
2580
2765
2742
2680
2681
2640
2482
2367
2207
1941
1795
1735
1545
1390
1338
1252
1110
1066
1084
977
936
991
938
837
844
870
794
842
919
767
739
809
746
703
760
779
701
694
763
730
706
808
740
656
745
727
669
691
726
672
676
750
658
616
719
714
624
617
648
593
597
650
523
518
650
617
563
606
610
511
493
614
560
467
581
560
507
588
587
513
493
587
629
551
600
630
546
585
636
596
547
626
612
520
603
605
625
681
654
590
605
760
739
717
837
772
729
823
863
815
814
942
901
814
943
963
852
935
1021
916
929
1005
908
946
1122
1107
1093
1171
1199
1169
1167
1219
1146
1189
1362
1361
1349
1371
1277
1102
1074
1143
1095
1041
1065
1085
1013
1025
1074
976
1014
1046
957
958
1032
957
838
976
1034
913
912
965
820
668
781
1110
1818
2814
3659
3801
2781
1534
938
762
772
817
912
988
998
942
902
943
891
814
936
930
787
891
887
750
864
1045
954
804
886
849
772
910
954
895
907
942
913
924
1049
1028
941
1065
1194
1181
1235
1421
1445
1336
1484
1643
1593
1699
1813
1722
1757
1852
1734
1632
1632
1494
1280
1183
1026
731
597
548
341
211
215
50
-94
-50
-36
-129
-163
-99
-199
-311
-228
-234
-290
-266
-273
-306
-304
-266
-289
-343
-306
-286
-321
-282
-221
-321
-355
-201
-278
-366
-225
-243
-359
-338
-357
-411
-389
-387
-364
-462
-513
-419
-480
-475
-436
-571
-610
-521
-544
-636
-599
-633
-729
-660
-691
-815
-768
-710
-791
-823
-754
-793
-887
-837
-753
-874
-913
-828
-951
-1010
-933
-935
-1020
-1022
-990
-1082
-1090
-998
-1045
-1121
-1114
-1137
-1102
-1055
-1136
-1222
-1218
-1112
-1184
-1307
-1192
-1194
-1286
-1257
-1229
-1236
-1199
-1188
-1299
-1330
-1245
-1313
-1365
-1253
-1270
-1354
-1309
-1272
-1322
-1366
-1338
-1330
-1346
-1243
-1163
-1287
-1306
-1163
-1202
-1303
-1238
-1189
-1227
-1111
-1030
-1109
-1091
-1196
-1398
-1355
-1314
-1396
-1442
-1391
-1339
-1393
-1382
-1316
-1444
-1488
-1378
-1453
-1507
-1360
-1338
-1471
-1383
-1284
-1377
-1403
-1386
-1501
-1595
-1298
-596
310
1339
1999
1436
69
-705
-1021
-1333
-1303
-1094
-1035
-1018
-986
-1004
-955
-847
-826
-894
-806
-677
-720
-696
-597
-630
-664
-535
-474
-519
-475
-362
-378
-379
-200
-220
-270
-108
-14
-36
96
272
207
279
459
447
490
646
681
651
815
1001
954
991
1066
972
1029
1139
997
808
726
611
357
180
82
-218
-420
-374
-462
-688
-740
-726
-885
-866
-689
-732
-670
-371
-191
-211
-153
33
50
33
229
284
248
398
406
272
426
560
433
468
586
534
503
606
596
517
610
707
594
571
676
608
580
635
654
588
548
615
523
474
600
540
432
469
396
277
387
381
269
328
302
212
202
245
196
108
153
128
64
102
111
24
-37
10
10
-74
-77
-53
-102
-102
-119
-237
-208
-151
-274
-292
-229
-251
-357
-413
-350
-380
-472
-425
-377
-503
-492
-428
-557
-562
-501
-589
-620
-521
-564
-677
-633
-584
-643
-676
-663
-710
-739
-649
-627
-717
-643
-566
-670
-708
-634
-633
-673
-654
-667
-593
-434
-430
-503
-548
-655
-820
-843
-768
-830
-893
-850
-856
-925
-888
-821
-905
-936
-814
-826
-927
-895
-916
-987
-919
-867
-939
-912
-923
-1141
-1203
-879
-207
652
1580
2350
2032
594
-369
-673
-916
-929
-807
-717
-686
-705
-737
-767
-723
-708
-756
-723
-699
-711
-730
-666
-657
-677
-599
-631
-645
-511
-498
-621
-546
-413
-444
-473
-411
-367
-346
-216
-221
-286
-125
-28
-36
36
159
267
292
420
597
582
633
758
703
667
775
765
650
584
473
288
123
-46
-256
-335
-398
-600
-752
-731
-750
-897
-911
-860
-945
-961
-894
-922
-955
-945
-957
-1012
-983
-935
-970
-952
-937
-978
-986
-880
-854
-956
-886
-813
-889
-895
-791
-747
-782
-718
-660
-781
-821
-740
-766
-767
-662
-649
-707
-642
-636
-787
-729
-530
-602
-721
-583
-587
-726
-598
-560
-716
-712
-553
-562
-678
-612
-589
-671
-604
-530
-619
-595
-514
-574
-657
-571
-529
-587
-528
-528
-601
-529
-410
-499
-586
-482
-472
-493
-459
-553
-546
-454
-432
-473
-547
-447
-434
-546
-418
-365
-482
-428
-323
-366
-436
-355
-351
-396
-323
-333
-422
-332
-221
-357
-378
-206
-192
-274
-187
-88
-169
-164
-39
-105
-124
-30
7
30
43
107
127
0
-117
-209
-293
-151
-103
-242
-137
-97
-247
-190
-98
-192
-200
-124
-165
-183
-87
-68
-150
-83
-14
-95
-67
-6
-176
-277
130
953
1892
2770
3148
2245
875
361
143
-49
45
182
215
254
286
231
185
239
260
168
245
339
248
296
383
291
326
440
379
341
426
477
427
495
575
500
513
584
584
557
714
833
766
878
994
1011
1103
1186
1231
1285
1402
1546
1541
1629
1729
1609
1653
1728
1638
1557
1448
1306
1144
985
874
634
452
477
337
120
170
183
-12
-21
44
-30
-34
2
-64
-56
-39
-118
-194
-132
4
-61
-122
-26
-99
-218
-107
-34
-81
-62
2
-64
-98
19
0
-95
-2
35
-119
-96
42
-15
-132
-6
34
-148
-82
10
-86
-67
-13
-111
-107
-26
-129
-195
-69
-63
-201
-175
-82
-154
-172
-104
-183
-170
-41
-117
-239
-216
-179
-163
-153
-171
-233
-273
-194
-108
-165
-212
-181
-214
-237
-130
-132
-281
-215
-161
-270
-193
-99
-216
-253
-215
-188
-189
-231
-226
-267
-231
-167
-224
-249
-170
-200
-303
-205
-110
-184
-171
-120
-191
-201
-147
-133
-83
-55
-93
-94
-32
5
-51
-73
42
99
77
172
196
9
-147
-174
-198
-208
-118
-104
-215
-221
-216
-274
-273
-263
-230
-236
-257
-243
-272
-195
-169
-240
-185
-157
-274
-385
-371
-296
51
945
2040
2826
3047
2093
627
96
-66
-322
-225
10
41
-57
-46
-20
-127
-113
-23
-44
-91
-30
34
-67
-67
-3
-56
-53
20
30
8
55
89
42
55
128
113
109
225
219
228
385
369
367
508
616
674
710
829
892
917
1116
1180
1216
1345
1290
1193
1216
1269
1130
920
834
692
437
264
203
18
-170
-215
-293
-440
-483
-471
-490
-488
-577
-652
-624
-545
-622
-751
-610
-557
-670
-648
-580
-654
-725
-650
-672
-727
-649
-629
-696
-680
-651
-716
-693
-621
-681
-767
-708
-673
-745
-743
-657
-707
-824
-761
-751
-812
-745
-787
-900
-845
-793
-927
-962
-835
-878
-963
-906
-840
-924
-992
-937
-960
-999
-955
-1002
-1103
-1027
-978
-1131
-1147
-1044
-1124
-1191
-1172
-1221
-1290
-1200
-1178
-1317
-1243
-1200
-1338
-1363
-1316
-1389
-1433
-1326
-1338
-1409
-1355
-1304
-1373
-1408
-1295
-1303
-1351
-1293
-1273
-1302
-1302
-1266
-1300
-1285
-1187
-1219
-1271
-1170
-1124
-1174
-1122
-1070
-1156
-1167
-1070
-1048
-1042
-958
-942
-1015
-930
-807
-868
-903
-765
-802
-874
-632
-560
-728
-802
-852
-941
-957
-887
-881
-951
-940
-918
-959
-864
-870
-951
-895
-934
-940
-952
-944
-893
-1007
-935
-804
-955
-1006
-951
-1099
-1028
-440
409
1397
2243
2123
775
-362
-686
-871
-952
-848
-729
-733
-715
-649
-709
-737
-640
-643
-701
-649
-655
-657
-580
-635
-713
-659
-554
-525
-632
-573
-455
-554
-456
-337
-456
-484
-339
-270
-277
-159
-124
-173
-15
124
75
193
385
342
388
625
693
666
816
841
775
845
904
900
729
608
530
247
136
169
-96
-305
-230
-340
-528
-477
-479
-616
-560
-498
-563
-576
-574
-548
-552
-523
-537
-607
-531
-480
-523
-506
-473
-496
-458
-415
-444
-426
-397
-377
-376
-401
-335
-305
-390
-286
-221
-329
-295
-265
-322
-297
-288
-302
-300
-254
-203
-263
-294
-287
-371
-359
-277
-315
-320
-232
-265
-343
-277
-265
-303
-259
-235
-307
-326
-226
-248
-384
-319
-184
-300
-345
-207
-240
-287
-245
-271
-318
-302
-208
-227
-301
-240
-294
-389
-263
-232
-305
-273
-265
-339
-376
-321
-347
-376
-279
-268
-318
-297
-274
-294
-309
-331
-342
-313
-254
-255
-334
-264
-236
-326
-270
-165
-180
-164
-117
-158
-177
-180
-86
-39
-88
77
142
-19
39
-64
-304
-213
-133
-246
-291
-168
-210
-318
-159
-90
-279
-230
-132
-285
-265
-153
-182
-222
-175
-115
-217
-172
-115
-350
-370
-18
521
1357
2437
3159
2766
1454
493
83
-107
20
148
127
163
202
164
178
185
115
186
287
197
165
239
237
198
270
340
282
310
387
335
306
392
422
410
458
513
540
552
630
669
628
714
802
842
990
1112
1128
1210
1363
1415
1449
1582
1654
1633
1719
1779
1680
1613
1552
1405
1228
1073
913
659
549
575
335
178
222
112
34
76
62
-24
23
74
-39
-57
9
-33
-102
1
12
-120
-44
56
-20
-53
39
6
-26
111
96
-26
27
82
11
16
83
46
6
69
127
-7
-62
46
16
46
133
48
15
75
49
65
76
51
28
6
53
70
6
21
77
11
56
79
-45
-30
47
14
-28
12
-16
-36
-19
-1
-35
-52
34
-64
-176
-66
-79
-222
-164
-47
-120
-220
-161
-142
-163
-142
-170
-219
-204
-163
-217
-247
-189
-224
-260
-162
-139
-239
-231
-187
-243
-195
-132
-183
-178
-131
-126
-149
-132
-105
-151
-208
-99
-56
-177
-110
-47
-93
-31
2
-71
-36
-22
-115
-55
128
191
71
105
168
-71
-144
-51
-195
-309
-245
-210
-234
-179
-148
-294
-302
-211
-321
-320
-230
-304
-360
-259
-185
-270
-281
-189
-207
-392
-496
-322
158
1212
2339
2911
2805
1552
236
-74
-174
-286
-132
-9
-63
-95
-84
-30
-53
-100
-7
-9
-100
-18
76
-55
-75
57
-13
-73
53
106
73
122
173
79
19
215
264
76
161
329
308
351
452
453
501
668
682
681
868
956
954
1074
1221
1174
1160
1316
1298
1194
1215
1124
903
804
664
442
286
150
32
-101
-129
-169
-372
-404
-345
-482
-518
-400
-482
-593
-495
-473
-585
-582
-512
-543
-582
-540
-587
-626
-533
-523
-560
-553
-544
-591
-572
-487
-582
-627
-490
-482
-555
-520
-475
-551
-605
-495
-505
-622
-498
-472
-619
-549
-493
-539
-522
-504
-527
-563
-581
-580
-587
-524
-516
-623
-597
-522
-578
-619
-573
-571
-654
-652
-569
-611
-631
-540
-569
-640
-606
-600
-677
-680
-563
-653
-764
-645
-669
-760
-743
-713
-735
-767
-739
-822
-868
-788
-825
-920
-918
-893
-951
-939
-891
-914
-945
-947
-1022
-1089
-954
-933
-1108
-1105
-1003
-1034
-1046
-1048
-1061
-1061
-987
-954
-1090
-1004
-923
-1060
-1016
-873
-850
-925
-837
-735
-962
-1074
-1018
-1157
-1165
-1064
-1127
-1178
-1131
-1115
-1177
-1165
-1178
-1237
-1144
-1036
-1081
-1145
-1105
-1067
-1110
-1117
-1020
-1028
-1120
-1112
-1148
-1012
-288
754
1592
2080
1609
189
-658
-780
-947
-992
-829
-705
-693
-659
-548
-597
-672
-599
-622
-640
-556
-515
-506
-433
-393
-452
-435
-393
-432
-377
-292
-336
-353
-184
-77
-222
-153
-40
-112
-12
109
123
155
290
392
414
512
643
741
815
937
945
913
1084
1223
1151
1170
1246
1093
946
858
725
496
343
247
48
-66
-57
-151
-292
-271
-275
-364
-388
-360
-441
-466
-389
-391
-398
-359
-345
-448
-418
-308
-383
-410
-319
-286
-314
-300
-280
-304
-292
-225
-226
-251
-176
-178
-252
-207
-173
-211
-190
-140
-181
-176
-133
-199
-175
-134
-205
-265
-200
-126
-237
-294
-244
-271
-310
-283
-310
-379
-321
-325
-386
-357
-386
-483
-515
-494
-509
-610
-626
-556
-705
-723
-589
-739
-819
-755
-810
-888
-848
-798
-872
-871
-852
-1043
-1181
-1088
-1140
-1287
-1237
-1237
-1380
-1369
-1276
-1372
-1428
-1371
-1475
-1554
-1446
-1447
-1554
-1505
-1458
-1553
-1538
-1425
-1457
-1474
-1363
-1353
-1378
-1297
-1213
-1234
-1230
-1106
-1049
-1057
-919
-815
-929
-907
-692
-679
-749
-703
-706
-703
-625
-545
-562
-617
-676
-817
-875
-812
-840
-931
-848
-799
-903
-795
-692
-824
-808
-651
-741
-834
-677
-645
-714
-661
-601
-579
-592
-644
-742
-783
-406
339
1280
2287
2827
2158
723
-52
-265
-478
-319
-19
-61
-96
-13
-86
-84
-1
-47
-72
-26
53
63
19
54
99
107
184
230
172
205
314
305
278
389
401
363
502
511
435
582
715
669
730
835
857
952
1112
1217
1239
1406
1517
1469
1620
1804
1781
1780
1902
1826
1669
1630
1518
1269
1119
1056
840
733
698
515
389
363
346
258
178
179
197
215
236
217
145
151
166
83
101
231
187
126
226
233
146
177
244
208
189
254
241
186
287
310
204
268
357
264
239
364
284
199
351
310
200
279
295
234
238
256
215
175
255
279
191
214
241
206
231
295
272
266
315
329
267
261
302
250
260
321
298
233
306
340
258
347
435
357
349
409
431
380
401
473
409
406
468
420
421
511
488
482
555
523
504
663
640
498
584
627
541
580
671
688
647
628
637
585
603
703
659
569
684
741
637
631
679
662
689
807
758
686
788
744
664
787
885
813
832
939
827
699
685
577
521
587
547
417
414
489
407
306
394
380
268
310
344
311
301
350
314
274
426
376
171
217
187
96
540
1468
2375
3201
3416
2265
946
435
244
216
265
397
448
368
418
382
315
429
435
356
406
479
404
355
453
423
369
498
526
409
452
550
484
477
604
576
557
675
707
689
771
890
870
902
1017
1065
1167
1257
1306
1387
1495
1644
1652
1630
1779
1827
1752
1761
1764
1649
1467
1363
1224
1028
902
681
527
526
463
338
262
223
105
101
105
31
21
29
75
-7
-7
52
-44
-45
-6
-5
-32
35
100
-26
-14
105
36
24
142
77
-35
42
40
-63
15
81
-28
-30
87
33
-74
-58
-55
-88
-54
-31
-110
-131
-75
-131
-235
-177
-143
-285
-250
-114
-252
-312
-158
-228
-356
-282
-269
-349
-285
-226
-375
-419
-296
-348
-435
-360
-311
-386
-388
-301
-387
-451
-346
-411
-494
-370
-342
-425
-428
-421
-508
-476
-393
-496
-512
-407
-478
-579
-489
-443
-455
-485
-500
-444
-488
-410
-368
-592
-577
-469
-559
-574
-518
-531
-571
-480
-386
-509
-494
-378
-486
-507
-404
-436
-458
-365
-348
-378
-340
-462
-674
-666
-578
-664
-735
-634
-699
-830
-698
-660
-833
-842
-737
-749
-832
-838
-810
-888
-884
-788
-896
-956
-951
-1076
-1176
-942
-247
609
1496
2131
1628
241
-591
-935
-1190
-1112
-890
-856
-901
-866
-929
-910
-800
-845
-885
-809
-818
-895
-808
-735
-853
-818
-633
-710
-762
-580
-599
-693
-602
-488
-552
-575
-450
-433
-437
-353
-252
-261
-216
-40
-15
30
174
235
276
339
499
579
584
682
669
746
930
830
659
677
578
295
150
36
-177
-244
-302
-496
-575
-586
-627
-706
-799
-770
-801
-841
-724
-789
-868
-755
-775
-831
-799
-763
-761
-768
-662
-666
-761
-633
-597
-683
-567
-483
-568
-515
-426
-517
-530
-460
-448
-503
-486
-389
-476
-550
-471
-473
-545
-559
-533
-584
-565
-465
-586
-631
-506
-620
-702
-576
-567
-654
-578
-506
-601
-548
-506
-657
-666
-512
-490
-628
-568
-473
-622
-555
-320
-405
-482
-363
-404
-517
-391
-255
-370
-308
-164
-293
-352
-192
-80
-174
-180
-49
-74
-99
-2
3
-9
54
61
21
54
70
36
9
11
17
-41
41
87
-81
-80
76
15
-93
7
19
-55
68
141
43
115
241
63
-2
228
226
168
338
400
249
160
91
-15
30
74
-4
1
89
67
3
16
66
45
47
139
77
32
172
172
74
154
240
124
51
139
45
48
737
1656
2516
3426
3544
2302
1042
660
430
329
622
777
650
666
738
653
639
703
732
697
692
840
829
757
840
858
817
828
888
918
986
1004
902
963
1047
1078
1158
1184
1186
1213
1357
1405
1353
1493
1616
1600
1650
1878
1935
1876
2095
2265
2258
2314
2416
2438
2437
2516
2416
2235
2157
1985
1749
1647
1573
1354
1226
1173
1007
895
915
846
730
804
787
630
701
772
639
555
646
675
572
624
677
586
616
698
682
593
600
643
624
728
777
661
632
708
687
616
683
717
625
652
720
668
615
689
673
542
642
672
532
629
681
554
562
638
556
524
630
593
512
573
650
552
465
585
564
483
599
641
502
506
642
567
522
614
596
479
540
627
495
521
596
499
521
595
561
521
558
572
526
573
645
585
516
595
578
483
534
533
469
507
539
473
472
556
515
447
561
580
443
470
520
462
466
523
527
488
528
557
491
539
606
578
564
612
600
585
715
735
709
674
565
416
305
337
324
329
431
382
212
214
314
263
223
283
230
182
234
254
236
249
253
184
220
261
93
-40
140
623
1396
2451
3268
3045
1777
705
292
121
141
235
270
344
388
288
289
327
276
242
289
332
290
291
359
363
305
315
288
269
410
428
347
402
469
427
453
510
437
492
599
631
610
640
764
735
841
1054
1016
1063
1198
1207
1247
1366
1436
1402
1464
1564
1426
1305
1351
1231
991
828
704
492
370
388
166
-53
-17
-48
-195
-206
-157
-268
-277
-182
-322
-399
-260
-272
-391
-329
-215
-313
-312
-195
-263
-355
-323
-296
-339
-265
-233
-314
-277
-202
-269
-311
-219
-220
-262
-185
-182
-305
-295
-199
-246
-302
-249
-279
-341
-287
-259
-341
-302
-199
-265
-357
-330
-291
-405
-413
-266
-373
-470
-321
-290
-366
-360
-381
-438
-367
-359
-446
-377
-298
-352
-406
-342
-339
-451
-348
-230
-392
-415
-286
-367
-417
-310
-363
-416
-347
-353
-396
-367
-270
-355
-453
-333
-297
-398
-398
-303
-362
-404
-346
-425
-453
-383
-380
-429
-383
-341
-417
-344
-189
-241
-342
-270
-231
-287
-220
-194
-276
-191
-68
-111
-211
-293
-395
-434
-427
-465
-464
-440
-411
-456
-469
-478
-552
-531
-544
-535
-545
-562
-465
-548
-617
-462
-453
-550
-555
-608
-736
-491
247
1127
2021
2668
2177
745
-106
-330
-608
-674
-375
-270
-365
-319
-311
-373
-326
-257
-357
-394
-290
-345
-327
-160
-237
-337
-229
-184
-258
-209
-150
-224
-194
-95
-79
-96
-68
34
46
20
124
199
190
318
443
428
557
693
699
788
970
1038
1015
1160
1221
1145
1236
1264
1088
1006
1030
767
518
482
290
65
-23
-69
-157
-229
-231
-313
-409
-332
-340
-460
-399
-370
-500
-453
-374
-456
-418
-352
-437
-447
-407
-401
-426
-394
-303
-385
-447
-312
-311
-404
-326
-328
-412
-352
-300
-367
-395
-332
-338
-410
-338
-301
-440
-442
-359
-433
-490
-405
-409
-464
-449
-459
-505
-483
-431
-502
-526
-433
-452
-572
-508
-436
-551
-537
-491
-510
-523
-554
-562
-601
-529
-500
-611
-581
-490
-552
-621
-533
-552
-633
-568
-485
-644
-656
-483
-629
-682
-519
-551
-628
-553
-551
-672
-648
-549
-639
-636
-535
-618
-622
-514
-584
-683
-632
-576
-599
-639
-581
-557
-702
-707
-588
-660
-700
-597
-648
-679
-572
-636
-708
-589
-604
-664
-551
-524
-540
-528
-512
-580
-765
-802
-796
-887
-845
-749
-862
-912
-782
-852
-928
-791
-805
-902
-837
-752
-816
-821
-707
-791
-847
-738
-790
-911
-920
-881
-594
242
1390
2239
2517
1783
367
-425
-575
-641
-618
-493
-452
-452
-477
-455
-385
-522
-543
-405
-437
-437
-362
-425
-480
-379
-247
-359
-432
-286
-281
-316
-275
-256
-277
-224
-95
-134
-194
-86
-103
-81
88
140
146
239
343
403
508
646
696
750
907
940
899
1006
1069
983
983
963
785
653
521
305
124
33
-138
-314
-341
-466
-582
-605
-654
-705
-711
-589
-607
-773
-756
-659
-733
-786
-640
-649
-768
-723
-728
-783
-718
-645
-718
-789
-675
-631
-690
-634
-616
-661
-604
-569
-665
-688
-598
-587
-667
-580
-495
-679
-704
-580
-655
-685
-539
-583
-703
-612
-617
-738
-726
-659
-714
-771
-718
-787
-838
-738
-730
-809
-833
-760
-811
-883
-756
-760
-857
-783
-781
-841
-784
-747
-813
-866
-789
-790
-830
-725
-759
-861
-851
-835
-835
-868
-812
-783
-881
-818
-799
-945
-920
-856
-919
-908
-807
-874
-946
-827
-818
-941
-936
-872
-914
-946
-791
-783
-956
-863
-802
-928
-809
-667
-714
-755
-698
-636
-697
-697
-598
-621
-632
-473
-462
-519
-557
-737
-805
-702
-688
-784
-779
-736
-782
-798
-703
-721
-842
-798
-718
-784
-817
-734
-772
-786
-726
-779
-796
-770
-824
-955
-934
-536
202
1148
2074
2300
1231
14
-501
-756
-829
-790
-719
-622
-557
-590
-585
-551
-591
-643
-611
-570
-635
-562
-521
-630
-681
-614
-544
-612
-602
-494
-514
-560
-480
-467
-481
-447
-441
-418
-317
-243
-324
-261
-129
-148
-86
56
175
196
246
357
378
433
537
594
592
638
637
490
438
400
206
-14
-121
-283
-506
-541
-666
-911
-914
-864
-1029
-1077
-978
-1115
-1265
-1190
-1143
-1241
-1245
-1180
-1218
-1201
-1203
-1331
-1300
-1198
-1247
-1273
-1247
-1271
-1287
-1275
-1219
-1260
-1342
-1258
-1234
-1302
-1264
-1215
-1274
-1250
-1160
-1226
-1282
-1243
-1241
-1300
-1280
-1234
-1306
-1356
-1305
-1313
-1348
-1282
-1230
-1285
-1295
-1212
-1292
-1344
-1197
-1256
-1370
-1232
-1180
-1295
-1320
-1244
-1322
-1344
-1196
-1266
-1347
-1352
-1474
-1575
-1570
-1543
-1588
-1618
-1577
-1624
-1667
-1563
-1540
-1639
-1619
-1571
-1671
-1656
-1507
-1583
-1687
-1628
-1630
-1657
-1560
-1547
-1642
-1621
-1570
-1700
-1823
-1762
-1792
-1871
-1870
-1867
-1941
-1987
-1868
-1894
-2013
-1917
-1903
-1977
-1893
-1820
-1841
-1862
-1829
-1852
-1918
-1889
-1811
-1809
-1823
-1708
-1722
-1871
-1959
-2116
-2142
-1976
-1992
-2150
-2099
-2022
-2075
-2117
-2123
-2153
-2193
-2130
-2110
-2197
-2168
-2074
-2110
-2157
-2081
-2107
-2206
-2225
-2274
-2190
-1712
-756
226
948
1006
-260
-1513
-1870
-2093
-2148
-1956
-1807
-1804
-1873
-1878
-1877
-1914
-1856
-1822
-1855
-1790
-1762
-1838
-1807
-1726
-1711
-1721
-1782
-1766
-1727
-1688
-1575
-1579
-1581
-1488
-1541
-1588
-1448
-1347
-1331
-1252
-1214
-1289
-1222
-978
-903
-887
-743
-688
-662
-502
-379
-441
-339
-153
-190
-259
-180
-109
-303
-489
-573
-822
-957
-955
-1206
-1411
-1410
-1512
-1672
-1716
-1660
-1696
-1806
-1800
-1794
-1760
-1680
-1779
-1832
-1751
-1743
-1809
-1780
-1649
-1700
-1752
-1660
-1656
-1674
-1602
-1513
-1612
-1646
-1477
-1504
-1599
-1512
-1463
-1509
-1462
-1363
-1417
-1486
-1395
-1445
-1464
-1370
-1420
-1460
-1407
-1382
-1462
-1450
-1341
-1357
-1426
-1381
-1347
-1405
-1383
-1325
-1335
-1303
-1264
-1335
-1358
-1237
-1226
-1344
-1295
-1197
-1235
-1272
-1182
-1177
-1249
-1159
-1076
-1138
-1193
-1126
-1128
-1149
-1096
-1124
-1154
-1061
-1018
-1134
-1082
-956
-1014
-1100
-1046
-1008
-1049
-992
-990
-1070
-985
-859
-942
-984
-913
-948
-968
-872
-890
-960
-858
-804
-890
-869
-802
-862
-821
-697
-723
-731
-632
-626
-665
-597
-503
-591
-665
-505
-413
-412
-352
-277
-428
-656
-552
-539
-640
-557
-525
-565
-552
-494
-558
-601
-492
-512
-528
-444
-435
-472
-471
-451
-473
-474
-357
-353
-511
-520
-504
-314
491
1612
2498
2990
2433
963
70
-133
-330
-353
-95
20
-46
-44
-18
-43
-43
7
7
-63
41
165
-8
-43
122
83
30
136
187
176
216
270
322
309
371
423
356
469
557
510
645
747
705
862
973
993
1142
1262
1328
1343
1442
1599
1598
1594
1744
1775
1735
1761
1650
1502
1445
1306
1015
894
837
601
417
431
406
220
195
254
152
160
171
41
47
82
45
18
71
120
83
123
132
26
-18
92
186
123
141
189
119
129
212
182
147
222
177
125
231
235
149
170
224
193
128
260
349
194
243
308
163
223
272
177
177
185
200
207
240
269
211
213
311
294
238
333
376
257
307
360
234
286
392
345
316
397
431
396
478
534
437
443
530
521
525
597
583
471
539
630
510
534
625
588
612
608
551
541
614
726
627
567
685
709
701
712
660
632
726
789
725
676
786
813
792
924
940
848
915
985
835
893
1106
1046
1056
1180
1134
1027
908
858
859
797
849
867
775
845
875
817
893
908
804
736
802
893
855
856
861
823
901
939
875
870
807
659
886
1620
2530
3426
3987
3421
2032
1237
1044
870
805
999
1161
1066
1056
1147
1096
1066
1143
1138
1115
1210
1182
1103
1223
1277
1174
1204
1352
1298
1270
1409
1399
1355
1413
1513
1481
1431
1602
1666
1576
1658
1781
1801
1867
1917
1923
2062
2197
2226
2243
2328
2409
2395
2518
2643
2523
2457
2470
2356
2220
2106
1923
1709
1598
1444
1189
1069
1025
864
711
696
642
536
577
591
458
468
571
478
329
419
426
290
340
373
363
415
400
345
339
412
432
375
457
501
444
500
549
512
522
557
473
427
551
592
545
582
584
555
510
514
551
487
570
612
482
521
603
543
495
571
669
603
532
568
518
506
614
595
512
530
562
606
602
587
572
574
618
544
575
718
683
538
590
728
593
558
720
625
607
730
681
606
611
682
636
591
742
715
601
705
686
566
672
754
628
638
755
675
598
707
685
589
735
822
707
691
820
878
790
816
893
731
763
903
827
908
1071
1034
938
872
767
670
668
721
652
646
726
665
567
631
695
596
632
717
636
581
671
691
601
648
685
626
662
628
482
659
1384
2339
3239
3929
3505
2062
1220
953
624
606
851
873
815
936
956
855
824
825
819
878
928
897
904
926
894
857
895
931
943
972
928
868
902
1001
1024
983
1059
1089
1070
1211
1228
1149
1222
1372
1512
1528
1526
1631
1725
1795
1936
2011
1974
2075
2108
2033
2145
2189
2063
1976
1803
1564
1457
1345
1109
900
849
781
639
578
537
439
420
475
446
308
283
393
302
312
448
323
298
359
305
311
412
435
318
287
407
423
355
429
416
343
418
430
329
388
473
398
383
450
429
383
379
376
328
326
405
352
232
301
356
292
337
322
221
273
386
366
321
303
284
307
348
348
246
243
346
320
312
429
375
278
365
381
367
380
388
384
333
375
386
310
370
401
296
395
451
296
257
368
404
317
415
385
228
317
402
345
302
405
381
261
315
365
305
308
393
356
284
354
360
291
367
428
301
280
382
310
328
436
450
383
389
533
506
463
549
502
446
587
672
622
587
430
257
292
327
286
273
291
302
265
274
312
205
186
294
222
199
313
295
202
257
295
217
294
319
127
29
322
1038
1928
2913
3596
3044
1622
752
437
234
331
481
488
510
526
461
458
517
397
427
559
481
503
564
518
487
517
614
557
459
595
663
605
678
739
663
679
783
766
755
885
923
883
984
1055
1026
1179
1412
1375
1341
1531
1562
1537
1747
1837
1761
1817
1882
1798
1690
1685
1586
1259
1099
1054
800
682
648
477
394
403
341
225
207
220
153
136
187
147
66
154
159
6
49
148
124
112
141
99
147
250
163
97
189
273
214
173
288
270
148
265
332
239
277
329
226
219
335
259
210
303
253
168
276
333
200
212
264
155
170
279
198
127
232
236
164
195
289
208
87
238
267
113
209
302
147
167
331
229
137
226
219
175
234
245
187
219
247
185
191
282
233
162
295
294
161
237
290
203
202
296
282
159
231
275
153
183
262
221
201
269
254
185
258
339
258
247
410
405
286
373
380
281
384
486
438
481
579
462
301
299
231
166
259
292
207
166
203
156
131
191
170
144
190
202
128
122
224
185
101
235
294
185
137
89
166
705
1688
2640
3268
3124
1844
708
441
291
143
246
463
496
438
483
457
360
442
546
456
429
520
523
456
514
552
497
553
535
498
595
674
670
613
659
718
694
762
816
766
802
939
997
1030
1153
1197
1196
1344
1422
1390
1522
1682
1680
1666
1808
1818
1740
1780
1671
1500
1415
1326
1095
862
782
649
481
425
349
240
187
119
67
8
-20
68
33
-56
-16
-53
-99
-23
-55
-102
5
-16
-83
-29
-58
-118
-50
14
-5
-18
12
-16
-70
27
27
-99
-52
-21
-60
-72
-12
-11
-93
-37
-38
-109
-81
-41
-78
-91
-34
-67
-163
-107
-27
-110
-88
-19
-113
-144
-55
-89
-170
-87
-48
-142
-113
-78
-167
-186
-117
-82
-135
-52
21
-144
-202
-58
-2
-102
-80
-49
-113
-39
28
-60
-108
-35
-39
-44
35
-37
-67
61
68
14
12
24
12
4
87
101
-11
20
23
-66
19
27
-87
-8
87
26
-49
-10
71
22
40
144
109
50
148
208
118
121
159
120
167
310
286
210
215
44
-128
-40
-3
-144
-130
-18
-64
-86
-79
-148
-179
-133
-119
-155
-125
-84
-148
-195
-97
-93
-184
-158
-159
-362
-297
204
887
1933
2941
3156
2052
696
163
-165
-265
-34
60
15
78
73
-29
38
73
-45
-42
71
51
-13
57
71
-22
30
110
39
89
216
106
81
225
152
69
197
304
284
309
385
399
448
590
600
542
713
862
855
954
1138
1115
1118
1316
1359
1359
1379
1362
1270
1200
1177
937
732
636
424
205
140
74
-106
-179
-184
-303
-388
-319
-347
-458
-349
-345
-490
-397
-372
-495
-501
-396
-388
-484
-411
-362
-531
-507
-349
-410
-447
-347
-340
-425
-375
-285
-354
-386
-324
-357
-425
-356
-338
-441
-345
-293
-397
-387
-403
-465
-472
-397
-403
-448
-388
-390
-439
-382
-323
-429
-494
-405
-389
-471
-433
-371
-480
-494
-327
-377
-480
-352
-349
-466
-427
-390
-439
-394
-325
-379
-373
-333
-418
-452
-380
-301
-335
-397
-341
-373
-414
-304
-284
-408
-367
-307
-388
-323
-240
-326
-350
-255
-288
-402
-341
-204
-327
-420
-277
-347
-385
-221
-267
-319
-235
-228
-255
-196
-111
