627
181
242
493
162
26
-49
-225
-194
-308
-341
-178
-287
-241
-67
-178
-99
-176
-504
-557
0
1144
2739
4759
6294
5633
2549
241
-21
43
-62
-381
-480
-280
-425
-491
-289
-439
-689
-635
-437
-584
-547
-105
-157
-189
-25
-201
-451
-393
-193
-199
-181
-160
-250
-263
-68
356
353
251
497
579
655
864
927
849
878
978
1024
842
747
909
711
399
404
369
144
96
103
-8
-44
-78
-162
-216
-207
-188
-324
-320
-44
-84
-149
-252
-353
-118
-21
-115
-129
-136
-270
-186
-147
-153
-218
-385
-24
30
-197
-31
-115
-120
-147
-268
-101
-131
-161
-72
66
164
183
388
421
294
419
389
260
230
87
-89
-215
-285
-434
-475
-463
-711
-547
-130
-275
-398
-436
-463
-345
-620
-647
87
1202
3253
5036
5718
4830
1766
-142
-27
-152
-390
-432
-604
-772
-927
-617
-292
-583
-736
-692
-696
-516
-570
-635
-498
-523
-525
-529
-313
-355
-558
-394
-275
-134
-135
-101
-48
-162
123
302
317
498
435
613
688
577
863
774
814
879
214
613
1037
372
162
85
47
73
-91
-309
-534
-420
-225
-227
-399
-585
-302
-200
-330
-241
-380
-535
-459
-343
-507
-604
-288
-291
-362
-378
-596
-504
-353
-277
-446
-517
-208
-282
-294
-284
-524
-389
-345
-353
-344
-375
34
68
-117
-49
194
170
-8
149
164
-100
-511
-580
-553
-582
-726
-787
-529
-618
-741
-574
-631
-898
-855
-767
-1066
-1203
-613
264
1611
3791
5626
5505
2740
97
-312
-399
-811
-813
-943
-1202
-1102
-1118
-994
-914
-1296
-1253
-823
-823
-866
-769
-962
-1086
-1011
-869
-874
-990
-851
-843
-760
-488
-572
-708
-523
-431
-437
-44
-28
-208
11
260
368
351
413
304
276
414
260
68
55
-39
54
-36
-292
-479
-816
-579
-346
-683
-755
-722
-826
-704
-674
-852
-810
-680
-789
-881
-929
-835
-606
-636
-798
-823
-758
-665
-432
-698
-912
-583
-761
-853
-606
-678
-788
-766
-742
-801
-698
-694
-754
-177
-183
-660
-294
193
117
-295
-361
-173
-298
-582
-707
-723
-942
-1052
-1033
-1179
-1053
-855
-870
-871
-868
-971
-1007
-1285
-1615
-1026
-100
1030
2710
4388
5605
4077
568
-721
-757
-953
-816
-1101
-1250
-1089
-1143
-1230
-1226
-1212
-1240
-1160
-1185
-1173
-992
-1046
-1278
-1420
-1074
-746
-888
-831
-754
-842
-964
-920
-707
-711
-599
-585
-481
-133
-168
-268
-147
217
519
435
242
279
327
353
363
197
10
-313
-281
-153
-410
-463
-497
-730
-722
-604
-857
-1110
-885
-434
-646
-933
-573
-577
-766
-829
-851
-558
-632
-716
-566
-778
-644
-352
-562
-581
-484
-608
-616
-628
-512
-400
-802
-820
-203
-260
-535
-323
-203
-448
-516
-159
44
136
268
56
-81
-17
-330
-289
-198
-584
-595
-579
-685
-614
-678
-802
-784
-802
-645
-530
-728
-607
-779
-1190
-207
1303
2457
4176
5683
4857
1769
-237
-462
-551
-728
-895
-563
-443
-868
-847
-638
-787
-871
-734
-762
-912
-939
-730
-681
-759
-499
-367
-693
-596
-283
-562
-498
-124
-75
-163
-111
-123
-152
22
57
225
577
489
420
795
659
737
1095
780
651
579
400
286
178
194
47
-33
-79
-381
-424
-252
-373
-338
-493
-516
-165
-218
-307
-333
-423
-402
-271
-161
-228
-220
-171
-364
-415
-196
-172
-340
-157
25
-3
-16
-78
-101
-170
-114
-159
-348
-133
198
171
-88
25
245
339
613
498
275
335
396
342
210
-72
-500
-261
22
-415
-562
-331
-556
-525
-259
-273
-258
-289
-448
-477
-171
457
2037
4110
5729
6187
3906
674
29
232
-403
-640
-324
-231
-425
-441
-631
-509
-168
-230
-403
-568
-475
-307
-277
-370
-439
-236
-131
-219
-323
-410
-122
151
-255
-350
151
157
148
331
138
348
838
848
742
930
1119
940
998
945
765
870
621
531
646
449
357
263
97
228
66
-195
-243
-210
150
-15
-325
-33
11
-81
-166
-199
-100
-272
-160
95
54
-56
-60
148
0
-251
51
233
-89
-79
168
-65
-22
162
191
298
95
-11
160
419
421
292
365
392
637
650
581
680
433
332
234
-36
-255
-103
148
-77
-179
-186
-106
41
-254
-477
-268
-165
-372
-346
149
1178
3060
5047
6262
5612
2446
191
311
273
-101
-195
-298
-362
-284
-201
-306
-393
-276
-306
-446
-416
-234
-266
-379
-85
30
-20
-23
-118
-11
74
-12
-44
96
233
348
160
55
611
859
676
904
1115
951
1067
1291
1104
794
1054
1294
827
795
834
386
383
392
328
340
54
132
111
-75
140
98
-223
-276
-43
36
34
121
90
77
94
-30
-83
-21
148
175
194
267
-4
-133
115
152
16
-68
-8
274
308
45
-87
68
229
254
218
181
308
393
544
754
628
620
563
409
527
365
45
-118
-138
-266
-337
-63
-59
-293
-194
78
-115
-326
-393
-378
-297
-467
340
2121
3790
5306
6160
4640
1510
290
279
-51
-136
-425
-514
-440
-538
-546
-430
-236
-196
-437
-570
-332
-290
-497
-441
-131
-69
-322
-304
42
-127
-327
-129
20
11
-20
181
186
130
338
663
988
974
894
1106
1123
1005
1038
971
876
926
913
820
711
582
456
296
270
267
16
-116
147
76
-146
116
-129
-526
32
393
79
80
189
36
145
119
-196
-50
202
319
-5
-145
303
173
135
133
1
275
301
28
38
180
132
179
179
196
443
366
78
396
772
696
877
771
299
557
597
146
151
26
-134
60
-30
-284
-243
-243
-294
-177
-52
-26
-312
-529
-469
-348
234
1665
3608
5182
6206
4988
1583
29
73
-113
-83
-312
-738
-511
-447
-567
-297
-513
-606
-533
-676
-476
-244
-324
-483
-396
-490
-544
-186
-233
-386
-280
-173
-165
-302
-87
139
148
179
268
467
440
326
489
749
1044
1049
784
742
822
863
810
583
290
263
67
-314
-152
10
-170
-277
-407
-516
-316
-243
-350
-263
-339
-507
-391
-273
-306
-450
-544
-402
-334
-357
-385
-313
-431
-426
-206
-474
-555
-235
-222
-345
-235
-197
-324
-351
-344
-310
-218
-252
-261
-358
-218
367
382
181
217
31
68
104
-228
-505
-649
-633
-706
-901
-800
-670
-600
-597
-730
-747
-617
-463
-675
-988
-753
-46
1278
3184
4784
5438
3649
654
-320
-436
-666
-874
-954
-635
-674
-853
-1053
-1250
-931
-862
-1098
-884
-930
-1043
-870
-817
-925
-824
-504
-692
-837
-570
-632
-721
-434
-474
-582
-259
-256
-322
-74
12
23
122
252
488
614
669
535
299
424
486
320
93
-62
-136
-185
-290
-391
-452
-517
-481
-562
-572
-478
-594
-854
-818
-805
-750
-391
-564
-746
-621
-834
-758
-351
-647
-757
-330
-505
-615
-631
-648
-358
-315
-368
-528
-628
-666
-707
-396
-426
-727
-561
-432
-361
-373
-369
-29
316
342
-295
-292
16
-330
-198
-314
-702
-676
-791
-919
-811
-651
-738
-934
-998
-807
-662
-905
-952
-863
-875
-534
763
2649
4253
5556
4856
1444
-845
-609
-297
-654
-945
-978
-911
-790
-1119
-1221
-886
-916
-997
-1160
-1093
-923
-953
-861
-872
-950
-824
-626
-732
-787
-687
-660
-620
-622
-668
-639
-336
-167
-139
-128
-151
-66
54
384
544
436
530
504
304
463
547
93
-135
-77
-174
-297
-396
-513
-735
-715
-391
-513
-746
-607
-563
-640
-698
-691
-655
-624
-755
-718
-526
-682
-714
-674
-609
-519
-767
-603
-318
-605
-566
-548
-689
-614
-655
-423
-298
-584
-469
-198
-514
-508
-142
-107
77
249
95
-154
-151
-139
-61
-335
-812
-537
-650
-755
-449
-607
-728
-842
-817
-743
-1020
-988
-639
-891
-1135
-878
-251
1392
3280
5108
6096
4081
775
-492
-376
-441
-678
-1100
-1137
-933
-1030
-965
-733
-808
-998
-966
-910
-973
-1014
-961
-875
-653
-794
-947
-649
-692
-674
-579
-546
-483
-621
-442
-324
-383
-156
-129
-128
208
71
60
597
786
808
609
401
362
282
234
166
198
27
-246
-368
-321
-317
-447
-378
-586
-673
-433
-478
-585
-527
-594
-688
-463
-520
-706
-532
-456
-493
-390
-391
-461
-426
-362
-291
-613
-660
-155
-381
-783
-494
-184
-227
-329
-260
-306
-363
-224
-95
39
23
52
125
323
232
-34
87
-107
-599
-690
-433
-404
-648
-800
-630
-446
-725
-979
-880
-862
-742
-529
-721
-792
-209
1054
2974
4947
5990
4691
1356
-495
-317
-442
-522
-598
-749
-619
-951
-981
-800
-1030
-960
-962
-892
-684
-762
-781
-745
-800
-935
-636
-408
-629
-576
-516
-467
-377
-481
-425
-168
-111
-171
-25
79
263
467
226
251
816
919
767
627
540
693
521
329
290
-8
-177
-188
-230
-308
-559
-457
-346
-454
-307
-408
-375
-246
-672
-660
-352
-319
-412
-509
-378
-530
-672
-280
-329
-514
-221
-329
-597
-412
-199
-222
-437
-549
-194
-95
-262
-307
-351
-288
-108
84
35
-55
166
510
446
126
-71
-13
145
-41
-356
-635
-597
-405
-498
-492
-451
-469
-524
-538
-485
-781
-952
-735
-802
-485
894
2878
4611
5851
5660
2391
-238
-197
-238
-436
-456
-577
-811
-739
-778
-898
-691
-766
-917
-786
-412
-347
-654
-629
-519
-614
-459
-505
-689
-346
-340
-505
-134
-110
-326
-82
10
-148
-36
86
247
387
597
917
736
537
901
865
602
890
772
454
383
175
7
-112
-123
-54
-75
-334
-592
-542
-241
-124
-287
-328
-367
-334
-329
-445
-413
-400
-532
-424
-182
-225
-309
-296
-175
-137
-303
-167
-26
-249
-322
-251
-264
-183
-167
-230
-145
-212
-234
64
136
195
280
222
494
502
308
186
-143
-198
-373
-554
-331
-372
-480
-627
-600
-347
-519
-699
-498
-250
-335
-844
-800
242
1468
3255
5144
5807
4369
1326
-220
-186
-300
-398
-512
-665
-731
-801
-703
-455
-542
-698
-674
-772
-795
-471
-369
-740
-561
-195
-333
-445
-498
-410
-485
-502
-72
-43
-269
-79
66
-158
63
425
516
650
685
679
636
640
657
636
765
874
662
420
294
196
167
-53
-256
-65
-110
-254
-288
-260
-166
-286
-362
-565
-306
-78
-629
-373
-79
-514
-480
-89
-133
-455
-540
-549
-168
116
-190
-263
-205
-261
-230
-306
-150
-61
-278
-271
34
149
-161
-160
310
596
441
220
64
-6
162
-153
-375
-87
-177
-332
-688
-500
-258
-524
-421
-355
-449
-846
-755
-412
-673
-582
230
1604
3317
4946
5903
4485
1194
-314
-72
-217
-388
-469
-708
-532
-525
-908
-896
-553
-506
-623
-413
-727
-859
-624
-667
-525
-509
-482
-305
-285
-278
-218
-451
-432
-244
-259
-66
24
-59
26
293
430
563
637
413
565
711
936
1106
752
634
565
384
246
142
95
-6
-384
-379
-288
-446
-210
-144
-269
-423
-440
-128
-128
-452
-446
-236
-367
-522
-211
-186
-466
-556
-432
24
-40
-401
-440
-263
-31
-96
-75
-292
-421
-157
-204
-263
-224
-36
192
179
11
266
647
605
255
3
185
14
-418
-390
-195
-298
-404
-360
-360
-325
-478
-619
-582
-593
-536
-563
-529
-546
-250
1069
3062
4960
5850
4776
1815
-22
-55
-253
-483
-593
-694
-612
-591
-745
-859
-714
-514
-599
-663
-760
-857
-485
-400
-647
-568
-622
-556
-317
-392
-455
-432
-466
-181
-7
-368
-474
9
141
-29
420
538
486
638
542
734
777
730
568
409
714
634
98
-224
83
1
-264
-117
-213
-279
-450
-456
-302
-162
-182
-356
-184
-277
-671
-458
-67
-80
-321
-437
-375
-488
-437
-222
-212
-108
-196
-433
-38
139
-207
-195
-12
-240
-349
-83
156
211
224
325
374
621
600
388
455
335
238
10
-361
-253
-138
-264
-330
-344
-303
-87
-148
-424
-444
-497
-340
-360
-563
22
961
2525
4782
6404
6139
3120
240
9
235
-3
-177
-385
-430
-315
-248
-138
-201
-427
-389
-312
-370
-419
-201
8
-127
-245
-377
-313
66
301
301
43
184
337
72
231
456
376
401
560
638
913
1295
1406
1191
1202
1348
1428
1484
1285
1184
1036
892
784
625
356
369
689
405
296
528
385
458
382
63
268
557
675
426
-32
45
394
489
529
529
471
548
466
487
648
611
653
538
590
675
558
652
611
681
1119
1212
598
579
1312
1601
1526
1351
1043
1027
1381
1412
842
655
779
533
575
418
466
918
785
499
331
428
682
577
381
412
593
1683
3444
5322
6997
7126
4329
1313
1070
1140
750
909
850
330
283
538
636
566
457
617
486
569
664
487
709
821
759
631
768
1045
968
1000
1095
947
821
937
941
1186
1449
1373
1528
1607
1629
1916
1950
1926
2175
2178
2048
2005
1666
1486
1890
1710
1326
1492
1329
997
1100
1336
1147
799
830
872
664
701
1097
910
695
865
764
797
868
719
605
765
884
753
708
749
748
750
681
595
587
594
725
836
746
781
900
781
618
665
883
1142
1215
1082
697
796
1026
643
596
595
315
126
-201
65
665
533
376
457
469
371
364
574
369
221
453
1256
2923
4544
6231
6837
4198
824
203
413
222
33
-391
-273
-196
-387
-454
-535
-501
-538
-573
-440
-619
-725
-488
-442
-601
-762
-657
-448
-401
-449
-493
-385
-385
-465
-430
-327
-254
-175
-205
-251
52
149
253
285
286
541
348
265
308
-36
-58
13
-272
-421
-632
-905
-616
-747
-1123
-809
-875
-1293
-1238
-1059
-1168
-1175
-1178
-1143
-1179
-1130
-833
-1042
-1303
-1171
-1216
-1205
-1009
-1016
-1170
-1463
-1239
-1004
-1158
-1087
-1083
-918
-1013
-1194
-925
-1073
-1297
-954
-718
-739
-766
-688
-678
-822
-1048
-1138
-847
-1234
-1617
-1137
-1209
-1550
-1457
-1433
-1710
-1684
-1528
-1684
-1651
-1680
-1675
-1738
-1910
-1456
-397
1027
2663
4364
4399
1507
-1118
-1358
-1242
-1583
-1903
-2037
-1899
-1973
-2009
-1970
-2103
-2185
-2114
-2123
-2105
-1792
-1908
-2167
-2094
-1925
-1853
-1981
-1916
-1644
-1693
-1834
-1802
-1902
-1681
-1357
-1647
-1796
-1526
-1383
-1165
-1053
-1033
-737
-820
-980
-676
-753
-900
-734
-978
-1123
-1098
-1283
-1218
-1403
-1937
-2080
-1757
-1557
-1758
-1707
-1660
-1949
-2007
-1874
-1719
-1688
-1834
-1922
-1960
-1972
-1940
-1871
-1626
-1669
-2014
-1758
-1350
-1520
-1817
-1776
-1631
-1712
-1741
-1596
-1558
-1787
-1554
-1475
-1695
-1223
-1255
-1446
-1112
-1033
-1125
-1259
-1271
-1162
-1233
-1258
-1619
-1746
-1423
-1780
-1941
-1694
-1790
-1883
-1706
-1681
-1980
-2012
-1896
-1942
-1968
-1982
-1629
-348
1491
3278
4723
4048
982
-1229
-1542
-1577
-1609
-1551
-1862
-2046
-1924
-2147
-1898
-1603
-1775
-1674
-1760
-1862
-1754
-1741
-1581
-1508
-1750
-1908
-1835
-1498
-1340
-1417
-1461
-1281
-1324
-1278
-1083
-1367
-1026
-728
-866
-843
-605
-326
-254
-176
-429
-518
-163
-135
-452
-441
-261
-638
-954
-871
-867
-894
-1067
-1217
-1199
-1139
-1144
-1162
-1262
-1328
-1235
-1273
-1234
-1223
-1169
-1020
-1334
-1272
-987
-1142
-1171
-1261
-1128
-810
-900
-1240
-1337
-999
-893
-1137
-1092
-839
-833
-967
-825
-916
-837
-409
-597
-848
-721
-415
-109
-297
-608
-498
-595
-772
-777
-891
-993
-1059
-1163
-1122
-951
-1059
-1150
-1162
-1289
-1205
-1296
-1463
-1361
-1290
-904
178
1865
3453
4849
4929
2272
-278
-912
-851
-846
-1150
-1307
-1371
-1484
-1344
-1244
-1158
-1180
-1426
-1337
-1170
-1148
-1201
-1212
-1014
-1131
-1225
-1013
-1206
-1053
-844
-1289
-1068
-714
-919
-983
-840
-980
-1067
-717
-513
-551
-397
-274
-385
-131
176
-152
-541
-183
140
-172
-438
-401
-558
-796
-918
-1062
-880
-621
-970
-1457
-1008
-675
-1051
-866
-726
-901
-906
-946
-866
-936
-916
-757
-920
-1086
-810
-446
-586
-875
-763
-777
-800
-615
-606
-589
-549
-586
-813
-643
-238
-589
-710
-356
-371
-145
32
13
145
98
-62
-175
-285
-409
-400
-500
-752
-674
-880
-1081
-724
-859
-817
-542
-773
-914
-765
-732
-977
-690
211
1758
3697
5340
5876
3308
126
-306
-248
-676
-670
-604
-680
-1018
-1131
-769
-954
-994
-595
-921
-1053
-856
-854
-636
-735
-835
-484
-666
-826
-442
-358
-673
-845
-431
-131
-406
-394
-129
-274
-124
399
434
308
473
581
645
777
648
491
592
514
436
354
-78
-24
369
46
-363
-380
-401
-378
-283
-344
-535
-494
-397
-437
-482
-449
-230
-318
-569
-458
-338
-221
-180
-269
-278
-320
-253
-218
-404
-311
-41
-85
-282
-366
-348
-318
-103
-12
-266
-178
9
-50
21
301
653
500
244
235
149
271
168
-185
-331
-344
-370
-443
-455
-505
-476
-264
-145
-464
-615
-514
-612
-675
-550
170
1292
3115
5203
6089
4596
1490
9
47
-84
-537
-739
-601
-624
-656
-735
-785
-678
-689
-740
-684
-726
-663
-614
-293
-138
-559
-590
-401
-428
-327
-388
-632
-362
-90
-179
-3
90
-107
129
517
629
601
545
606
770
750
779
1045
993
728
518
522
495
144
171
16
-167
-68
-34
20
-234
-263
-232
-311
-229
-310
-430
-238
-52
-170
-249
-292
-345
-150
-29
-208
-187
-105
-222
-380
-310
-49
-4
-7
80
-63
-244
-144
-101
-18
-78
-206
125
226
293
473
351
471
670
469
378
405
293
254
-5
-192
-252
-319
-254
-577
-512
-270
-482
-180
-81
-317
-335
-333
-483
-347
535
1896
3757
5609
6231
4203
755
-368
185
-65
-572
-605
-410
-490
-593
-556
-532
-450
-480
-632
-607
-566
-361
-100
-440
-540
-324
-354
-383
-251
-270
-268
31
-62
-90
119
108
141
307
389
343
499
623
849
1120
965
927
1004
880
905
899
722
592
428
344
330
208
-2
60
-60
-328
-14
91
-62
-52
-26
112
-107
-355
-91
-111
-144
-30
-219
-151
-47
-53
-103
-132
36
-199
-85
375
115
-438
-197
360
8
-85
137
72
190
114
76
213
189
409
799
743
371
403
474
265
152
44
-48
-69
-119
-249
-254
-127
-212
-630
-353
-14
-336
-274
-410
-620
-353
254
1373
3130
4990
6110
5084
1916
99
-60
-279
-396
-409
-301
-281
-506
-678
-521
-351
-451
-560
-561
-705
-309
-97
-491
-248
-303
-402
-193
-271
-223
-63
-83
-182
-181
-36
91
8
33
122
350
619
817
981
846
834
1016
980
904
973
978
606
277
611
697
181
-2
103
25
-67
41
59
-153
-375
-233
69
34
-290
-315
-132
-107
-131
-268
-318
-106
-34
-256
-215
-8
-21
-193
-196
124
62
-122
21
40
-41
-111
-43
83
33
42
64
-22
205
538
679
588
384
489
320
51
249
171
-100
-238
-460
-363
-182
-497
-536
-120
-105
-373
-333
-253
-504
-573
-445
174
1531
3271
5257
6275
4581
1257
-66
158
-59
-458
-717
-473
-319
-514
-579
-555
-504
-888
-695
-158
-470
-311
-207
-419
-313
-606
-595
-284
-423
-325
-139
-216
-79
-75
-169
-303
-191
423
481
391
599
649
520
655
892
874
911
793
805
881
527
586
690
216
169
309
136
-54
31
87
-216
-261
-176
-359
-267
29
-267
-356
-380
-432
301
108
-475
-58
106
-104
-49
-156
-390
-234
70
46
-36
-92
-237
-48
59
-4
23
-37
30
150
-63
-137
146
286
381
347
534
863
621
394
420
328
248
237
-130
-175
23
-215
-259
-232
-233
-297
-245
-76
-194
-277
-388
-657
-556
274
1471
3225
5357
6430
5165
1972
-97
-99
63
-187
-331
-365
-540
-398
-345
-673
-443
-318
-554
-305
-259
-501
-427
-465
-461
-199
-185
-292
-402
-450
-399
-181
119
24
-35
-48
6
193
324
547
559
500
661
743
796
1010
888
516
847
1156
887
672
463
253
126
226
269
-25
-134
7
-222
-317
-289
-486
-281
-49
-221
-520
-236
93
-217
-228
-203
-266
-153
-110
-60
-238
-317
-326
-577
-353
-16
-277
-356
-71
-50
-130
20
96
-168
-342
-129
27
75
84
373
608
344
331
335
169
169
-28
-98
-152
-556
-556
-494
-547
-470
-572
-546
-502
-491
-406
-649
-755
-781
-817
-122
1224
3006
5044
6099
4652
1506
-119
-246
-365
-274
-539
-632
-841
-1040
-632
-637
-725
-824
-956
-847
-814
-598
-505
-973
-1058
-327
-209
-711
-640
-537
-559
-328
-209
-626
-601
-65
-345
-394
8
-141
127
594
440
548
806
635
566
607
625
580
382
417
166
-172
-149
31
122
-162
-356
-465
-532
-489
-640
-579
-390
-487
-486
-347
-379
-617
-545
-500
-490
-127
-152
-361
-380
-439
-455
-404
-373
-338
-430
-454
-256
-231
-276
-185
-185
-115
-35
-94
-26
31
203
292
340
547
332
283
522
341
106
-22
-13
11
-128
-154
-208
-256
-5
-32
-268
-114
-10
-131
-130
-293
-343
452
1617
3251
5164
6582
6010
2702
404
481
362
-49
83
217
3
-105
-189
-387
-220
52
-65
-114
-47
-199
-161
99
124
3
-66
13
127
180
225
247
235
170
316
459
323
552
925
668
714
1141
1243
1310
1187
1180
1442
1360
1207
1194
1201
1163
748
594
675
522
593
409
45
335
480
146
217
266
-38
260
351
-143
64
264
154
304
365
235
144
34
-16
137
333
309
89
230
635
260
-81
403
420
244
421
442
519
651
498
444
735
789
789
925
782
776
696
402
499
469
251
180
47
77
58
126
14
-217
28
104
-85
-160
-113
-217
5
823
2086
3738
5516
6467
4639
1299
30
37
-156
155
73
-291
-177
-207
-189
-211
-373
-215
-258
-402
-296
-297
-195
-82
-45
-27
-180
-186
-151
-20
2
-278
-94
218
293
333
322
386
455
654
648
653
888
1019
1023
866
947
995
866
748
627
466
422
524
424
422
66
-334
10
27
-268
-244
-284
-513
-414
-219
-229
-311
-599
-421
-252
-347
-308
-418
-276
-162
-348
-397
-641
-765
-435
-224
-198
-479
-634
-258
-140
-419
-533
-431
-303
-181
-221
-221
-56
34
65
30
-46
-374
-266
78
-367
-675
-560
-746
-1023
-961
-902
-938
-839
-871
-1044
-1055
-1178
-1218
-883
-924
-813
327
2261
4192
5220
4527
1686
-538
-765
-890
-931
-1033
-1361
-1256
-1353
-1517
-1257
-1005
-1226
-1458
-1121
-1019
-1232
-1171
-1104
-1254
-1148
-936
-1069
-1298
-1008
-1015
-1239
-798
-687
-800
-685
-637
-685
-538
-260
-206
-292
-135
-137
-204
252
248
48
109
210
402
-59
-380
-398
-679
-491
-350
-655
-883
-922
-882
-842
-738
-856
-1032
-914
-938
-938
-715
-884
-789
-399
-682
-1063
-956
-788
-715
-680
-780
-781
-794
-787
-745
-798
-685
-523
-580
-649
-562
-529
-484
-337
-488
-672
-273
-276
-303
309
91
-233
-345
-461
-321
-539
-580
-672
-946
-882
-826
-721
-723
-1034
-1098
-931
-882
-937
-935
-1041
-968
-69
1274
3072
4801
5396
3764
927
-248
-489
-927
-888
-885
-1123
-818
-969
-1396
-1019
-943
-999
-926
-1084
-1237
-954
-646
-980
-963
-678
-775
-748
-587
-606
-749
-764
-633
-613
-582
-425
-453
-548
-306
9
166
310
399
485
566
636
489
399
435
302
286
119
-57
-58
-82
-228
-404
-305
-281
-254
-269
-471
-410
-176
-284
-505
-479
-638
-706
-375
-342
-480
-472
-507
-419
-164
-150
-286
-214
-285
-238
-187
-205
-275
-522
-261
-154
-331
-226
-157
-99
101
-38
-132
269
492
378
426
353
69
141
275
462
-24
-513
-13
-69
-488
-462
-362
-499
-497
-306
-484
-478
-269
-333
-722
-704
-4
1054
2628
4522
6101
5490
2338
115
4
-209
-435
-374
-446
-444
-544
-443
-523
-753
-667
-760
-643
-361
-603
-781
-376
-334
-547
-397
-239
-247
-484
-402
-251
-262
-87
-69
105
144
51
129
91
261
608
657
641
871
941
962
845
716
698
580
578
676
541
142
121
188
-154
-347
-156
80
-135
-389
-180
-349
-343
-326
-457
-58
62
-82
-237
-220
-328
-309
-64
-171
-277
-206
-265
-302
-28
84
-121
-343
-88
72
-126
27
8
-216
-189
126
485
420
457
640
444
338
296
270
380
142
-109
-117
-63
-68
-503
-476
-57
-343
-512
-344
-367
-427
-291
-84
-591
-697
100
946
2790
4940
6216
5414
1969
-69
277
164
-194
-297
-409
-622
-774
-701
-491
-381
-510
-619
-584
-507
-433
-366
-546
-749
-600
-248
-67
-109
-113
-286
-267
40
19
-238
-139
197
169
189
418
587
647
662
779
790
961
1011
683
908
1030
844
919
474
137
369
265
86
105
139
75
-54
-71
-276
-232
61
-107
-213
-253
-492
-278
121
25
-56
75
-117
-282
-121
59
141
100
-48
23
40
0
138
15
-140
-47
306
271
12
234
263
273
643
662
614
638
396
452
546
215
69
201
-19
-227
-153
-326
-247
-161
-366
-243
-200
-411
-245
-10
-549
-794
233
1553
2954
4682
5929
5423
2480
272
85
-107
-171
-351
-403
-274
-330
-401
-521
-582
-580
-514
-477
-394
-296
-370
-311
-159
-148
-439
-390
134
18
-360
-73
26
-205
84
194
175
342
329
340
622
616
612
1227
1099
747
1091
926
759
1019
953
755
438
279
507
454
134
-25
-129
-281
-152
188
110
-127
-141
-239
-143
-62
-313
-258
-194
-98
68
-84
-183
-206
-96
-109
-170
87
54
-76
-22
-73
-120
-73
-66
-85
-6
-11
59
189
97
40
418
512
425
704
602
351
155
67
182
324
144
-268
-206
-29
-213
-488
-349
-234
-350
-211
-334
-588
-354
-447
-706
58
1135
2537
4454
5809
5521
2588
34
192
157
-488
-466
-370
-525
-660
-526
-381
-465
-694
-604
-510
-569
-395
-359
-482
-367
-349
-494
-262
-205
-354
-175
-29
-132
-327
-135
137
39
157
245
242
618
642
520
831
971
775
754
919
1013
1044
920
550
455
510
214
248
161
-87
-177
-426
10
322
-137
-171
-203
-95
40
-196
125
-19
-353
-38
-133
-346
-149
-81
-357
-122
200
-73
-30
16
-214
-35
213
93
-11
87
53
62
33
-157
-35
313
391
212
304
441
532
563
430
336
399
473
172
79
26
-407
-410
-140
-129
-231
-475
-500
-238
-242
-301
-372
-546
-428
-104
595
2309
4371
5777
5922
3313
419
78
-160
-449
-95
-266
-369
-505
-951
-814
-408
-332
-530
-646
-308
-242
-576
-456
-353
-549
-504
-404
-471
-184
-125
-390
-237
-194
-151
61
164
43
-57
374
618
557
680
615
791
1034
877
798
795
962
798
496
750
620
133
76
183
-129
-370
-2
-97
-478
-243
12
-129
-306
-451
-393
68
152
-47
-182
-426
-326
30
16
-134
-223
-132
-373
-605
-24
138
-161
-344
-375
65
278
-48
-103
-53
-66
25
98
-31
-202
70
321
487
743
441
103
436
436
171
182
90
-371
-579
-318
-166
-296
-560
-542
-464
-507
-414
-303
-248
-596
-1017
-81
1365
2859
4711
5952
5434
2362
-158
-149
-84
-401
-261
-283
-641
-657
-494
-688
-797
-593
-529
-556
-536
-829
-847
-314
-184
-274
-546
-665
-233
-247
-274
-134
-429
-458
-54
-37
-147
204
168
-87
204
765
855
491
693
834
666
712
811
749
411
393
501
363
242
125
77
171
55
-229
-450
-410
-204
-239
-384
-445
-338
-146
-167
-217
-240
-177
-145
-297
-286
-301
-236
-45
-266
-469
-220
53
-21
-312
-282
-66
-246
-205
175
-32
-314
-22
225
-94
61
391
383
754
531
205
216
64
128
-24
-136
-97
-388
-336
-227
-357
-391
-583
-533
-303
-422
-673
-512
-478
-641
-148
887
2473
4531
6167
5718
2402
21
37
-265
-566
-630
-603
-464
-417
-474
-741
-787
-850
-889
-679
-458
-425
-527
-649
-701
-573
-484
-380
-394
-541
-474
-359
-167
-74
-73
-38
-221
15
391
279
421
579
473
494
661
815
862
1004
723
417
860
826
329
131
-1
41
174
12
-185
-210
-42
-2
-331
-359
-237
-357
-393
-281
-225
-155
-377
-518
-206
-259
-342
-213
-276
-78
-5
-313
-159
1
-137
-121
-190
-312
-212
41
89
-119
-80
154
43
34
347
657
566
345
552
296
-15
181
-13
-205
-9
7
-262
-374
-354
-302
-264
-515
-484
-474
-584
-320
-339
-766
-579
430
1863
3537
5030
6032
4504
1094
-271
-117
-350
-583
-559
-600
-718
-661
-523
-747
-771
-300
-354
-580
-492
-516
-504
-358
-344
-451
-430
-458
-497
-379
-322
-257
-177
-5
-27
5
201
108
169
311
439
553
615
776
950
949
807
934
1147
861
619
680
424
261
218
24
-55
-367
-211
241
64
-57
-36
-186
-180
-98
-218
-149
5
-212
-260
92
-123
-485
79
137
-253
179
198
-197
34
189
81
221
204
49
-27
94
215
184
166
253
380
302
617
806
636
758
530
460
602
289
127
171
50
102
52
-248
-202
-234
-346
19
172
-99
-123
-243
-306
66
637
1925
3727
5493
6393
4684
1567
41
81
163
-3
-134
-114
-139
-398
-525
-278
-252
-320
-76
-180
-348
-171
-43
-325
-340
95
59
-144
-46
-29
-153
118
307
10
76
294
254
377
533
570
635
969
1146
1096
1058
1150
1263
1230
1137
839
803
877
531
273
510
586
262
210
273
-54
-41
268
81
-94
169
283
159
-96
-139
293
45
-553
-41
427
253
187
189
1
-40
115
21
214
290
-14
-89
242
250
110
250
151
150
352
348
201
375
499
623
915
809
591
377
189
486
456
-78
-262
-31
188
-65
-244
58
-133
-476
-305
-151
-174
-232
-414
-390
240
1098
2387
4492
6286
5958
3138
484
-38
22
30
-7
-333
-414
-463
-639
-507
-320
-339
-272
-283
-399
-381
-315
-380
-424
-247
-198
-522
-354
56
-343
-192
408
180
-104
-23
103
106
328
476
449
663
697
692
852
861
953
1021
792
859
885
777
763
558
362
70
23
192
1
-329
-158
107
-109
-212
-39
126
-141
-531
-260
-5
-287
-265
8
-6
-35
-2
-66
-200
-229
73
176
-168
-225
-265
-174
17
63
135
213
148
-340
-37
398
169
317
413
104
217
877
619
194
303
177
328
112
-343
-201
-199
-335
-287
-301
-338
-239
-302
-748
-563
-103
-277
-782
-971
-63
1544
3041
4611
6381
5509
1751
-60
259
24
-344
-404
-565
-819
-615
-551
-615
-467
-544
-389
-571
-727
-535
-595
-512
-400
-200
-297
-531
-386
-366
-466
-336
-141
-290
-204
170
180
186
308
238
461
616
494
483
551
900
925
958
940
424
518
570
345
244
198
302
-62
-243
11
-112
-398
-403
-344
-351
-161
-153
-404
-293
-173
-471
-434
-54
-312
-393
-171
-307
-272
-161
-209
-301
-324
-340
-327
-52
-99
-430
-364
-132
-18
-120
-23
171
-75
-165
-53
-98
-31
227
512
385
336
169
-5
211
162
13
-274
-463
-446
-349
-358
-434
-467
-668
-553
-699
-960
-331
-201
-716
-384
601
1880
3824
5758
5924
3458
614
-301
-306
-437
-613
-608
-463
-519
-740
-806
-648
-596
-750
-756
-586
-804
-987
-527
-447
-756
-402
-289
-501
-304
-430
-522
-241
-217
-439
-390
-265
-171
167
280
302
134
199
720
684
565
879
857
470
334
649
674
54
91
300
109
-98
-253
-194
-401
-236
-40
-436
-555
-372
-301
-425
-408
-439
-561
-381
-390
-438
-305
-263
-481
-456
-279
-376
-95
-66
-367
-345
-164
-333
-514
-333
-227
-129
-229
-286
0
86
19
78
179
306
437
567
505
28
-127
-88
-276
-322
-383
-414
-552
-642
-530
-570
-527
-538
-607
-602
-560
-527
-882
-828
252
1492
2886
4940
6427
4844
1291
-306
-262
-505
-680
-541
-638
-884
-912
-827
-681
-697
-711
-661
-770
-738
-806
-856
-582
-560
-749
-608
-339
-527
-598
-292
-385
-453
-409
-277
-57
-86
-64
10
37
112
181
508
897
735
627
696
695
729
626
507
267
86
187
150
-110
-371
-387
-345
-345
-258
-443
-557
-338
-170
-314
-521
-515
-397
-372
-411
-493
-554
-431
-542
-525
-259
-312
-318
-263
-480
-514
-203
-94
-297
-462
-557
-441
-63
-11
-152
-109
-93
-66
-41
112
464
429
231
225
-25
-207
-282
-502
-618
-499
-287
-638
-811
-279
-265
-596
-606
-724
-677
-502
-716
-811
-502
564
2442
4068
5267
5433
2927
18
-544
-321
-552
-773
-750
-673
-766
-796
-954
-934
-744
-846
-771
-699
-715
-588
-558
-669
-731
-790
-665
-455
-487
-538
-716
-772
-365
-29
-253
-363
135
84
-154
19
319
482
345
572
641
536
661
533
564
735
579
179
-173
113
311
-145
-345
-384
-539
-423
-228
-356
-367
-431
-691
-488
-206
-353
-576
-477
-495
-441
-257
-330
-303
-452
-613
-181
-37
-258
-175
-419
-480
-75
-263
-391
-99
-214
-444
-302
-86
-23
8
148
268
266
-26
-171
142
346
157
-261
-367
-525
-776
-582
-457
-627
-720
-719
-741
-683
-598
-949
-1039
-565
-674
-796
-16
1456
3446
5211
5763
3844
638
-404
-114
-525
-875
-960
-840
-575
-1064
-1264
-640
-508
-766
-893
-854
-781
-656
-526
-699
-794
-758
-711
-549
-679
-888
-736
-388
-333
-408
-321
-225
-327
-358
-83
57
-3
32
278
323
486
590
334
299
388
406
399
214
-89
-156
-159
-250
-272
-217
-423
-549
-395
-590
-677
-576
-629
-542
-388
-484
-709
-570
-529
-642
-575
-456
-344
-562
-663
-499
-389
-337
-469
-511
-328
-401
-568
-459
-326
-327
-440
-445
-534
-348
14
81
49
106
91
-67
175
107
-296
-333
-196
-227
-554
-698
-608
-703
-697
-627
-709
-713
-774
-733
-794
-944
-794
-657
-176
1064
3087
5027
5688
4202
1255
-217
-259
-442
-584
-687
-896
-1053
-1066
-711
-350
-581
-853
-1053
-1043
-658
-552
-650
-684
-867
-924
-731
-750
-790
-527
-384
-394
-317
-233
-217
-341
-229
-18
-82
-129
8
353
501
501
687
752
617
359
463
747
506
304
324
52
-189
-223
-221
-100
-236
-559
-526
-243
-173
-407
-628
-595
-409
-309
-258
-304
-535
-454
-252
-524
-575
-316
-382
-390
-379
-249
-178
-532
-404
-217
-169
70
-326
-614
-211
-145
-179
37
-1
-123
-141
-51
318
618
575
300
116
172
23
-246
-439
-414
-245
-316
-544
-599
-544
-599
-374
-397
-716
-385
-296
-730
-635
-58
1102
3138
5060
5924
4622
1436
-135
-92
-547
-357
-204
-716
-507
-592
-860
-464
-638
-859
-599
-616
-705
-618
-510
-571
-632
-494
-307
-350
-399
-290
-324
-445
-287
22
-204
-406
-225
7
207
183
259
485
667
758
743
620
616
660
742
749
494
356
332
259
15
-113
111
84
-244
-347
-285
-246
-351
-392
-361
-497
-248
-141
-507
-361
-313
-324
-83
-196
-333
-426
-433
-192
2
-71
-397
-375
-61
-301
-600
-151
-14
-397
-145
106
-137
-111
102
325
350
64
171
446
359
24
16
330
224
-264
-474
-349
-366
-452
-461
-397
-355
-615
-643
-500
-604
-585
-666
-665
-519
132
1802
3876
5475
6019
4019
701
-289
-250
-494
-485
-701
-664
-417
-901
-1177
-524
-580
-964
-683
-675
-770
-588
-626
-730
-642
-558
-392
-455
-735
-460
-340
-492
-305
-247
-293
-85
-132
-293
66
334
467
531
447
577
786
634
654
870
521
432
491
304
367
208
-9
-130
-209
-182
-434
-385
-279
-379
-232
-456
-533
-272
-354
-367
-365
-467
-426
-338
-319
-524
-476
-137
-247
-235
-132
-390
-520
-361
-302
-241
-147
-281
-190
-55
-24
-91
-152
-112
-15
308
422
341
309
255
272
115
-310
-456
-268
-91
-263
-546
-401
-577
-797
-447
-475
-625
-590
-592
-548
-695
-739
-118
1250
2991
4834
6059
4711
1186
-519
-145
-233
-577
-856
-876
-774
-814
-608
-634
-864
-852
-710
-617
-792
-818
-735
-578
-454
-590
-502
-557
-656
-489
-410
-443
-564
-467
-196
-167
-37
146
238
300
85
161
500
429
509
763
667
605
715
668
538
337
44
146
96
-315
-262
-248
-447
-209
-110
-375
-415
-525
-583
-402
-333
-454
-787
-631
-207
-377
-364
-244
-489
-642
-660
-426
-243
-274
-145
-107
-549
-584
-276
-270
-68
-234
-322
-188
-356
-364
-321
-209
14
331
429
195
172
42
-143
-95
-236
-422
-401
-409
-550
-686
-749
-579
-731
-869
-552
-469
-558
-610
-764
-826
-195
847
2404
4394
5725
5005
1828
-379
-478
-435
-598
-799
-764
-727
-799
-709
-890
-1059
-805
-754
-631
-702
-850
-649
-734
-811
-691
-526
-653
-670
-433
-587
-464
-304
-577
-468
-252
-180
-16
50
144
195
229
351
436
508
633
598
458
610
564
449
510
264
7
-73
-133
-244
-323
-362
-275
-474
-647
-137
-280
-705
-387
-330
-367
-333
-534
-491
-352
-457
-449
-504
-511
-143
-308
-582
-330
-224
-304
-217
-239
-357
-318
-314
-201
-198
-261
-192
-81
-31
16
308
437
379
225
44
15
-5
62
-54
-467
-621
-497
-610
-548
-501
-501
-240
-461
-595
-451
-495
-510
-943
-1093
-41
1308
2918
4856
5927
4598
1199
-371
71
-239
-597
-475
-670
-765
-536
-577
-832
-931
-831
-832
-880
-774
-471
-462
-670
-833
-622
-193
-293
-350
-310
-567
-458
-188
-361
-406
-387
-389
-107
277
483
288
356
688
644
596
829
782
590
701
603
509
358
23
156
40
-148
-181
-475
-272
-53
-116
-291
-544
-506
-381
-445
-460
-321
-332
-375
-270
-430
-436
-198
-530
-447
-66
-381
-544
-219
-329
-491
-166
-189
-231
-209
-334
-284
-352
-368
-48
73
41
87
55
183
291
300
166
127
74
-105
256
-12
-584
-219
-324
-582
-303
-505
-713
-437
-278
-290
-528
-762
-540
-560
-803
-576
491
2543
4426
5673
5623
2647
31
2
-397
-762
-356
-440
-706
-780
-600
-833
-950
-592
-869
-648
-297
-628
-716
-542
-581
-570
-338
-494
-552
-385
-524
-555
-333
-280
-173
-1
-93
22
212
65
218
490
521
669
590
528
824
608
431
731
648
504
503
319
76
-142
-224
-7
-55
-230
-93
-304
-387
-209
-240
-316
-482
-256
-181
-410
-234
-168
-255
-156
-353
-558
-333
-236
-195
-35
56
-221
-554
-222
-26
-49
-42
-201
-78
-106
-330
-208
106
176
271
405
514
567
404
368
322
288
95
-164
-263
-577
-358
-202
-600
-308
-223
-492
-484
-434
-449
-440
-484
-775
-783
-217
717
2462
4825
6094
5317
2439
197
-24
-214
-476
-390
-545
-798
-686
-661
-708
-621
-575
-638
-626
-583
-632
-491
-443
-623
-573
-461
-463
-299
-224
-361
-284
-64
-137
-301
-188
-93
13
-93
56
665
699
632
566
632
996
884
675
608
528
666
455
156
356
347
89
-8
-114
-211
-146
-208
-394
-322
-292
-350
-356
-452
-462
-437
-144
124
-278
-481
-147
-161
-313
-339
-368
-190
-36
-232
-456
-421
-222
-68
-63
6
4
-111
-141
-14
187
148
89
209
277
416
485
432
250
92
157
-19
-260
-157
-150
-314
-510
-504
-275
-429
-584
-376
-425
-444
-415
-620
-532
-122
1061
2916
4670
6174
5507
2094
-109
-98
-205
-392
-324
-543
-727
-850
-788
-542
-623
-516
-646
-815
-642
-626
-533
-482
-479
-597
-609
-455
-605
-696
-297
-33
-320
-392
-151
-122
-83
-11
65
279
397
548
601
580
623
507
680
963
905
714
475
263
373
440
104
-97
-89
-37
-182
-429
-283
-89
-385
-461
-288
-476
-499
-285
-328
-371
-289
-444
-310
-77
-341
-444
-99
-69
-380
-361
-119
-171
-402
-241
-78
-311
-212
28
-8
-19
10
37
129
388
377
124
316
452
176
85
15
-28
-199
-496
-421
-373
-274
-293
-643
-605
-490
-545
-607
-740
-495
-399
-529
-20
1100
2869
4777
6011
4901
1415
-442
-300
-525
-640
-676
-762
-618
-808
-767
-606
-778
-705
-753
-686
-397
-611
-828
-645
-537
-558
-534
-569
-486
-419
-472
-615
-624
-276
-226
-256
36
141
58
70
255
416
492
705
709
451
663
727
359
473
545
160
114
193
-124
-197
-194
-267
-252
-244
-303
-583
-724
-624
-544
-516
-391
-368
-603
-704
-484
-306
-479
-696
-644
-535
-529
-573
-490
-622
-551
-282
-681
-502
-234
-537
-359
-332
-545
-504
-331
-185
-157
-81
-1
18
-171
-205
-74
-407
-509
-311
-353
-607
-693
-640
-758
-639
-701
-907
-822
-987
-981
-564
-693
-1329
-816
263
1098
2934
4836
5532
4010
996
-682
-888
-541
-489
-852
-971
-897
-834
-1087
-1132
-882
-964
-1118
-1172
-1191
-972
-895
-1137
-1034
-931
-1024
-929
-738
-584
-557
-730
-845
-632
-776
-815
-333
-424
-469
-112
-172
6
338
90
149
523
446
330
231
-2
59
154
-97
-100
-75
-434
-769
-1001
-795
-330
-365
-559
-648
-763
-598
-554
-610
-621
-804
-641
-652
-870
-624
-532
-723
-683
-530
-454
-609
-742
-511
-268
-287
-580
-724
-320
-123
-447
-463
-354
-412
-370
-20
268
46
-158
94
205
-22
-106
-267
-312
-334
-814
-780
-517
-763
-808
-639
-679
-773
-724
-625
-769
-959
-835
-936
-434
1218
3014
4813
5721
4483
1625
-75
-232
-556
-759
-779
-792
-773
-718
-863
-1081
-931
-872
-791
-593
-722
-786
-649
-670
-656
-437
-426
-600
-768
-866
-389
-34
-354
-508
-302
-99
-56
71
188
250
415
549
386
235
566
743
805
959
748
563
544
392
327
311
145
-153
-99
-38
-217
-21
-66
-319
-328
-395
-342
-2
-79
-295
-145
-219
-160
-21
-93
-264
-457
-21
281
224
128
-197
-168
181
194
-173
-145
29
-30
166
197
144
268
263
142
195
621
941
663
327
588
615
373
186
-121
3
68
-176
-85
-46
-309
-330
-309
-286
-321
-340
-81
-76
-494
-643
635
2591
4266
5832
6191
3801
691
-96
5
-336
-460
-264
-151
-474
-620
-338
-233
-486
-597
-369
-321
-389
-497
-347
-236
-531
-452
-268
-134
-101
-188
-59
-165
-259
-128
33
174
224
249
293
605
740
814
910
677
809
1071
996
850
636
651
885
558
150
292
326
388
329
-5
-101
-153
-267
-367
-178
75
-47
112
74
-254
34
81
-47
104
114
110
-40
-297
-9
274
-159
-130
355
171
49
-69
-103
136
-37
-65
-31
-15
221
349
241
115
513
720
237
236
471
258
76
-112
-181
-237
-342
-242
-288
-511
-589
-504
-426
-401
-459
-634
-701
-682
-530
109
854
2371
4907
6391
5215
2041
238
-26
-588
-614
-441
-555
-728
-840
-663
-674
-578
-477
-844
-835
-657
-544
-519
-663
-616
-622
-472
-309
-302
-282
-550
-557
-229
-241
-147
21
-188
-103
119
131
166
324
814
765
489
562
604
778
766
541
484
645
635
243
-116
-186
-67
-68
-259
-321
-343
-528
-428
-98
-168
-440
-344
-100
-260
-435
-241
-158
-223
-307
-429
-497
-527
-316
-80
-125
-261
-375
-251
-90
-158
-191
-94
-49
-104
-205
-66
54
2
327
517
28
26
607
295
-266
-260
-171
-270
-364
-364
-539
-636
-474
-378
-679
-550
-308
-609
-312
-287
-600
8
1212
2810
4789
6156
4912
1793
-10
-119
-161
-466
-676
-643
-630
-564
-662
-887
-561
-563
-712
-674
-1009
-727
-286
-414
-580
-702
-469
-165
-256
-455
-490
-370
-339
-410
-187
-79
-195
36
302
340
367
449
538
617
443
474
923
905
642
651
525
247
280
247
-16
83
91
-86
-197
-395
-331
-205
-344
-553
-421
-259
-521
-400
-239
-492
-254
-144
-392
-105
-48
-266
-303
-525
-398
-133
-310
-464
-363
-295
-10
-23
-223
48
-134
-260
-69
-122
270
700
352
89
161
-142
-204
241
146
-356
-541
-515
-544
-425
-384
-577
-526
-447
-633
-730
-564
-591
-758
-697
-142
1173
3160
4801
5470
4601
1645
-419
-403
-421
-612
-528
-481
-689
-848
-791
-723
-823
-776
-816
-947
-603
-529
-702
-727
-731
-781
-698
-397
-539
-413
-162
-442
-657
-573
-174
6
-77
118
216
40
255
541
326
451
811
637
722
595
248
306
299
358
253
-7
-230
-321
-462
-581
-244
-278
-533
-582
-654
-485
-426
-505
-423
-714
-906
-585
-622
-553
-308
-468
-414
-365
-495
-400
-124
-107
-198
-72
-436
-368
-179
-263
29
-304
-378
-42
-15
222
172
272
596
423
361
72
-330
-98
30
-207
-492
-382
-289
-624
-519
-370
-409
-484
-651
-584
-453
-527
-698
-663
-300
953
2765
4325
5854
5315
2150
20
-198
-182
-407
-638
-537
-578
-798
-558
-653
-970
-685
-592
-751
-668
-673
-640
-548
-539
-381
-370
-475
-639
-689
-430
-258
-170
-189
-365
-238
51
104
46
250
451
502
610
554
683
653
575
787
660
493
525
534
387
257
-114
-250
69
-133
-202
-167
-326
-288
-328
-233
-148
-509
-530
-264
-254
-461
-483
-246
-349
-364
-223
-91
-124
-224
-307
-314
-228
-247
-334
-272
-201
-38
119
-502
-504
109
141
27
-16
283
731
580
151
79
80
14
-111
-273
-372
-517
-565
-409
-715
-750
-125
-307
-625
-554
-642
-560
-734
-1004
-423
528
2077
4230
5750
5552
2712
90
-272
-535
-440
-248
-687
-616
-659
-931
-831
-770
-699
-743
-899
-726
-534
-601
-687
-690
-524
-351
-508
-714
-577
-461
-488
-506
-412
-227
-116
-65
-184
29
99
103
470
577
597
738
622
543
724
527
389
381
299
305
58
75
67
-164
-197
-179
-164
-410
-543
-347
-403
-574
-522
-406
-421
-586
-227
13
-280
-227
-305
-555
-336
-286
-383
-169
-176
-295
-245
-397
-487
-341
-218
38
-210
-248
226
-40
-87
132
-2
78
372
456
247
106
38
-42
-176
-6
87
-218
-338
-357
-603
-720
-544
-500
-359
-429
-768
-625
-437
-563
-463
180
1849
3978
5366
5856
3688
287
-393
-10
-466
-757
-617
-630
-719
-491
-503
-650
-637
-787
-826
-739
-622
-610
-552
-381
-609
-816
-741
-470
-113
-112
-551
-652
-221
-146
-166
-108
-115
14
141
337
333
308
683
744
648
534
403
711
788
495
529
545
117
30
-31
-164
16
-124
-415
-440
-117
-233
-602
-403
-289
-291
-280
-372
-329
-232
-106
-122
-292
-311
-275
-278
-407
-429
-305
-355
-143
63
-166
-327
-138
-37
-91
-237
-112
149
-34
81
271
218
344
329
171
438
479
118
276
257
-194
-340
-448
-440
-332
-491
-487
-420
-420
-460
-523
-438
-474
-641
-722
-686
-61
1689
3533
5177
6123
4117
752
-341
-159
-251
-511
-568
-469
-608
-614
-728
-995
-841
-599
-716
-587
-525
-865
-793
-591
-577
-632
-593
-268
-377
-632
-298
-135
-521
-486
-105
-29
-97
-50
99
177
396
414
383
690
820
818
846
749
531
512
540
449
230
-106
56
121
-173
-192
-134
-248
-361
-269
-211
-312
-283
-275
-451
-382
-201
-546
-567
-146
-284
-292
-15
-172
-393
-243
-146
-207
-193
-350
-490
-235
-80
-98
31
-95
-108
60
-55
172
275
403
680
477
197
131
398
309
-145
-259
-110
-235
-343
-475
-558
-401
-360
-428
-488
-354
-316
-563
-628
-621
-472
457
2142
4127
5472
5676
3204
48
-315
-73
-310
-421
-626
-684
-690
-668
-808
-813
-590
-685
-699
-681
-774
-646
-524
-363
-489
-711
-438
-209
-412
-586
-289
-236
-221
-73
-131
52
-26
-213
179
467
557
648
537
527
527
641
946
821
456
559
555
137
174
267
134
-89
-261
23
-191
-455
-206
-274
-551
-547
-405
-468
-430
-354
-316
-185
-190
-336
-375
-258
-265
-341
-282
-218
-245
-218
-136
-184
-241
-183
-83
64
55
-104
-179
-209
86
237
83
310
427
288
256
214
11
-64
-143
-196
-136
-424
-539
-399
-400
-572
-593
-414
-424
-537
-401
-425
-830
-650
349
1739
3354
5053
6036
4197
937
-221
-201
-460
-457
-331
-573
-654
-528
-723
-752
-570
-711
-713
-513
-539
-771
-786
-442
-405
-579
-557
-449
-455
-344
-247
-218
-168
-208
-141
-166
-163
139
175
-216
234
831
560
430
593
711
791
836
719
536
295
136
323
198
-171
-193
-253
-241
-289
-314
-218
-554
-436
-176
-487
-520
-495
-524
-448
-348
-311
-526
-568
-531
-392
-248
-346
-293
-322
-342
-300
-385
-335
-313
-419
-428
-351
-182
-160
-441
-296
73
-71
116
454
5
-50
203
6
60
-56
-410
-502
-559
-582
-633
-716
-599
-490
-809
-861
-467
-524
-465
-594
-1079
-571
657
2292
4115
5376
5293
2771
253
-228
-369
-518
-453
-786
-851
-636
-892
-995
-779
-658
-760
-820
-694
-700
-802
-884
-731
-570
-599
-518
-581
-642
-518
-351
-135
-260
-509
-421
-106
15
-126
216
218
79
461
399
465
703
619
678
781
690
583
450
287
38
-112
161
-68
-402
-238
-246
-342
-504
-521
-242
-273
-343
-187
-538
-542
-21
-134
-472
-665
-371
23
-153
-246
-288
-393
-247
-150
-257
-303
-335
-170
-52
-182
-173
-71
-38
-88
19
181
192
225
467
557
283
230
125
-380
-373
-384
-752
-163
-64
-559
-466
-698
-634
-497
-712
-574
-613
-843
-857
-528
316
1837
3532
5023
6066
4015
721
-1
-37
-444
-605
-628
-738
-846
-660
-696
-855
-748
-712
-698
-687
-753
-467
-404
-658
-587
-462
-609
-735
-498
-612
-554
-167
-144
-247
-238
-36
-184
-293
237
398
229
414
545
651
637
586
767
734
745
534
281
485
262
71
103
-83
-155
-253
-305
-175
-230
-272
-270
-393
-446
-88
-140
-616
-316
-390
-335
9
-201
-421
-320
-91
-183
-105
-187
-300
-338
-425
217
119
-476
-107
72
19
25
-43
-31
286
432
193
319
598
407
236
265
55
52
51
-173
-300
-408
-405
-292
-557
-490
-304
-607
-539
-536
-388
-411
-827
-105
1031
2314
4497
5961
5390
2730
377
-295
-233
-188
-513
-434
-442
-579
-538
-648
-707
-695
-707
-634
-508
-434
-457
-489
-647
-739
-394
-361
-587
-451
-251
-215
-269
-182
39
59
-65
-131
107
307
275
527
586
351
591
996
929
968
958
638
767
691
309
294
161
108
144
205
-27
-420
-233
-387
-395
41
4
-318
-481
-117
-26
-365
-428
-288
-181
-196
-223
-517
-291
184
-34
-104
-92
-134
-198
-237
-15
-21
-96
44
11
-206
-353
-104
134
84
194
362
304
292
531
528
378
321
138
32
78
-137
-393
-430
-439
-323
-368
-295
-233
-540
-426
-481
-412
-206
-670
-621
-102
1261
3511
5173
6199
4863
1182
-390
75
-20
-366
-561
-739
-671
-505
-577
-769
-880
-631
-606
-681
-535
-470
-391
-638
-596
-329
-296
-159
-227
-606
-502
-82
-155
-190
-42
44
41
223
304
282
573
618
564
679
870
977
886
858
689
569
717
547
207
270
303
-113
-214
58
-36
-83
11
-102
-500
-388
-106
-317
-329
-289
-248
-345
-324
-246
-314
-124
-205
-379
-256
-209
-101
-21
-218
-313
-85
71
71
-64
-311
-253
-57
23
-23
-292
-127
485
604
332
380
602
465
283
398
227
-239
-277
-253
-353
-454
-543
-405
-447
-487
-465
-578
-323
-189
-337
-535
-618
-57
1033
2590
4608
6121
5197
2268
111
-461
-218
-241
-768
-717
-357
-507
-674
-792
-844
-566
-445
-609
-710
-547
-471
-506
-525
-470
-254
-317
-451
-210
-160
-391
-295
-266
-262
-105
-54
-80
-9
315
476
481
634
629
657
856
805
854
839
677
676
412
182
338
182
21
116
-144
-210
-141
-265
-171
-264
-299
-206
-509
-550
-174
-415
-562
-142
-190
-58
-111
-424
-220
-200
-251
-307
-175
-11
-154
-206
-220
-200
-285
-257
-203
-311
-260
73
169
-37
153
396
334
411
572
290
-80
7
176
31
-116
-136
-223
-456
-592
-355
-433
-896
-628
-207
-285
-350
-452
-490
-580
-446
492
1971
3776
5470
5777
3442
488
-409
-308
-391
-525
-647
-707
-587
-474
-320
-609
-945
-740
-786
-710
-451
-478
-814
-800
-441
-350
-568
-660
-285
-517
-729
-167
-60
-165
-94
-146
-159
-145
-27
216
277
576
689
400
587
760
707
608
634
828
660
390
197
-5
63
-89
-412
-211
-151
-345
-380
-427
-327
-260
-286
-402
-396
-186
-373
-451
-364
-417
-345
-281
-308
-353
-454
-323
-39
-144
-311
-303
-347
-108
158
-357
-665
-265
-123
-144
-114
-75
106
-4
-47
479
690
407
121
60
246
359
-18
-357
-319
-428
-471
-562
-492
-397
-437
-259
-479
-709
-311
-349
-734
-711
-480
374
2110
4030
5484
5687
3338
203
-271
231
-263
-315
-419
-803
-880
-833
-625
-594
-795
-877
-566
-628
-650
-313
-541
-645
-405
-391
-529
-607
-366
-237
-669
-479
-47
-300
-192
-96
-263
141
374
116
283
643
594
665
921
955
499
428
850
564
443
523
262
214
-28
-66
148
-100
-68
-135
-400
-272
-165
-227
-365
-184
-259
-526
-347
-224
-273
-307
-391
-375
-155
-96
-266
-308
-248
-242
33
36
-237
-153
-83
-74
-70
-211
-449
-290
94
-40
-156
-20
83
197
214
302
644
804
466
192
185
-222
-362
62
-143
-441
-329
-436
-387
-206
-442
-617
-469
-348
-486
-651
-685
-508
-81
827
2776
4777
6089
5543
2179
-151
26
-206
-803
-509
-348
-949
-780
-479
-797
-533
-232
-748
-969
-467
-428
-576
-679
-832
-588
-527
-542
-415
-454
-402
-304
-241
-33
38
-251
-377
124
362
49
93
373
468
452
626
745
545
709
943
607
418
626
567
284
144
0
-131
-125
-120
-196
-346
-299
-265
-314
-270
-400
-319
-302
-371
-248
-413
-438
-158
-144
-272
-198
-71
-243
-388
-525
-333
61
-348
-386
93
-102
-298
-71
68
-139
-231
-223
-253
67
-92
-187
420
490
374
608
442
-26
174
403
51
-136
-223
-479
-705
-590
-515
-612
-403
-170
-234
-485
-625
-450
-628
-908
-687
250
1738
3457
5188
5813
4101
1031
-223
-16
-109
-366
-711
-767
-683
-798
-816
-636
-585
-665
-809
-761
-548
-570
-583
-693
-593
-292
-477
-656
-497
-450
-489
-397
-257
-391
-354
-23
-4
114
282
291
353
539
563
483
750
769
617
607
721
791
358
193
495
340
23
106
46
-190
-180
-215
-297
-310
-282
-316
-427
-268
-397
-810
-269
91
-276
-318
-268
-231
-486
-467
-92
-194
-318
-154
-147
-383
-488
-327
31
64
-176
-5
-138
-267
-120
-253
-93
-1
-435
-393
36
114
251
354
547
741
270
117
329
151
-27
-128
-108
-261
-643
-606
-580
-681
-443
-251
-342
-790
-719
-99
-439
-765
-272
454
1990
3781
5371
5944
3437
307
-182
-85
-568
-541
-427
-765
-782
-477
-517
-818
-965
-775
-663
-790
-766
-395
-409
-560
-481
-570
-560
-619
-460
-162
-296
-304
-319
-626
-480
-93
-55
74
314
167
259
906
983
431
328
799
975
583
518
739
469
206
256
51
-86
113
-108
-111
-30
-355
-366
-341
-289
-363
-470
-474
-493
-326
-383
-358
-308
-329
-276
-369
-183
-86
-242
-224
-189
-172
-337
-474
-224
-158
-366
-416
-264
-230
-181
-97
-179
-54
31
-15
128
221
135
300
494
408
205
117
87
2
-137
-359
-380
-401
-454
-486
-527
-288
-378
-615
-566
-439
-244
-707
-1070
-685
225
1922
3823
5430
5930
3630
530
-322
-216
-290
-382
-537
-765
-809
-644
-756
-803
-654
-676
-718
-561
-501
-623
-600
-526
-615
-644
-510
-469
-387
-284
-286
-362
-330
-213
-120
-94
-63
126
155
319
632
627
480
636
986
1036
755
630
692
626
696
545
178
86
226
205
-32
-96
-249
-378
-275
-136
-193
-376
-365
-331
-418
-399
-320
-313
-206
-259
-488
-457
-92
45
-154
-201
-189
-134
-126
-236
-144
-110
-179
-144
-142
-143
-41
-20
13
-109
-342
187
506
340
487
422
329
306
215
202
95
5
-337
-478
-211
-312
-434
-647
-688
-501
-413
-246
-283
-318
-590
-869
-396
462
1864
3618
5031
5923
4125
523
-550
-120
-281
-417
-480
-567
-557
-449
-429
-834
-966
-622
-560
-576
-590
-533
-418
-304
-259
-459
-603
-447
-279
-695
-648
-21
-107
-199
-46
-190
-296
87
432
318
504
716
662
739
792
771
712
781
799
719
658
331
262
233
164
128
-32
211
-117
-451
-287
-290
-259
-286
-406
-498
-381
-155
-308
-590
-308
9
-292
-408
-99
-303
-162
-63
-488
-362
-318
-347
-164
-180
-79
-86
-411
-93
46
-328
-98
220
4
-70
373
336
243
371
198
122
77
29
50
-326
-453
-358
-800
-569
-165
-506
-745
-617
-379
-402
-479
-340
-563
-702
-131
1021
2967
4859
5842
4581
1525
-21
-179
-259
-381
-653
-585
-651
-762
-488
-513
-809
-889
-716
-606
-780
-837
-598
-305
-256
-675
-665
-309
-362
-446
-452
-256
-187
-424
-365
-220
-78
-72
-120
331
549
351
536
587
689
885
635
515
545
690
725
538
386
-132
-178
82
-137
35
-213
-439
-186
-251
-193
-285
-466
-329
-376
-364
-131
-358
-576
-208
-306
-623
-309
-124
-262
-229
-67
-81
-302
-272
-2
26
-263
-540
-303
-117
-111
-48
-164
8
115
-12
264
556
511
296
86
233
249
-34
-182
-400
-510
-474
-377
-324
-458
-601
-547
-487
-492
-630
-651
-510
-670
-499
626
2085
3780
5699
5902
3125
400
-58
-326
-489
-395
-570
-565
-790
-1022
-755
-485
-731
-687
-380
-599
-728
-543
-608
-446
-366
-694
-409
-303
-504
-329
-305
-360
-248
-137
-111
-209
-10
222
180
379
298
313
587
683
867
574
719
1088
552
596
601
150
301
307
73
-53
-275
-239
-43
-359
-521
-232
-305
-451
-155
-128
-422
-289
-241
-385
-286
-272
-285
-203
-172
-31
-302
-522
23
26
-277
-59
-26
-261
-275
82
220
19
-10
-76
-149
17
405
511
381
523
528
295
311
411
173
-153
-367
-377
-257
-411
-612
-364
-362
-439
-304
-392
-431
-457
-756
-1197
-615
494
1600
3270
5016
6033
4475
1261
-196
-209
-299
-467
-617
-516
-527
-635
-699
-652
-644
-989
-904
-646
-579
-561
-747
-690
-368
-412
-785
-699
-290
-356
-450
-170
-321
-400
-24
-297
-363
87
80
113
283
513
643
671
659
472
729
778
632
805
524
223
341
216
-306
-171
103
-280
-358
-248
-370
-506
-365
-58
-307
-478
-318
-548
-376
-43
-495
-678
-126
-135
-528
-305
-167
-496
-344
-17
-217
-277
-159
-228
-211
-126
-260
-342
42
215
-201
-99
300
259
331
378
379
387
283
339
-45
-374
-99
-79
-565
-711
-223
-170
-544
-683
-574
-538
-472
-365
-471
-513
-739
-523
896
2706
4518
5955
5251
2087
-24
-61
-284
-614
-571
-529
-603
-671
-838
-650
-599
-1110
-898
-492
-652
-828
-600
-464
-490
-397
-477
-534
-592
-540
-468
-318
-246
-224
-404
-685
-58
272
119
180
178
419
733
775
615
470
671
806
617
496
228
336
490
143
4
-49
-178
-90
-146
-514
-361
-284
-644
-461
-395
-539
-231
-97
-392
-535
-329
-385
-410
-203
-449
-263
-282
-822
-82
170
-416
-264
-151
-142
-144
-279
-214
-93
-70
-106
-111
-114
-142
177
341
367
438
199
213
269
1
-262
-202
-151
-497
-519
-426
-533
-666
-688
-277
-362
-622
-626
-741
-715
-750
-67
1347
2783
4578
5838
5027
2033
-179
-163
-214
-617
-547
-653
-559
-569
-954
-678
-539
-822
-777
-693
-753
-677
-536
-430
-425
-460
-381
-500
-694
-515
-383
-476
-279
111
-17
-229
-73
-10
198
346
341
598
721
652
686
724
823
687
588
709
623
551
385
244
110
22
-68
-245
-292
-436
-307
-132
-185
-246
-400
-464
-332
-414
-593
-376
-223
-231
-208
-220
-210
-276
-406
-297
-105
-186
-204
-139
-260
-287
-231
-84
-65
-40
5
0
129
95
229
520
474
470
381
282
345
95
-114
-278
-457
-383
-397
-348
-231
-390
-463
-550
-639
-359
-62
-438
-586
-318
-188
1069
2952
4483
5749
5162
2088
-214
-147
-212
-623
-581
-729
-702
-523
-447
-508
-616
-644
-574
-568
-644
-574
-511
-507
-506
-331
-323
-650
-402
-155
-501
-359
-91
-172
-259
-102
160
37
10
280
570
693
795
891
761
733
823
837
694
532
571
380
374
477
131
2
-22
-5
-28
-336
-348
-117
-289
-407
-385
-404
-246
-577
-682
-60
-107
-231
-85
-215
-185
-228
-240
-143
-193
-238
-453
-275
-177
-314
63
210
-17
-264
-61
107
-62
116
311
399
344
199
350
269
154
304
86
-152
-154
-398
-344
-175
-535
-584
-355
-512
-649
-533
-438
-403
-629
-743
-272
666
2334
4070
5343
5503
3085
512
-202
-418
-393
-554
-635
-404
-519
-586
-843
-1107
-711
-303
-582
-889
-679
-512
-690
-609
-622
-783
-391
-324
-345
-412
-465
-173
-191
-269
-293
-176
78
201
89
-31
249
623
781
567
282
577
864
865
638
393
490
377
86
24
53
-218
-544
-240
11
-241
-330
-602
-636
-132
-238
-545
-406
-366
-434
-420
-280
-218
-468
-253
-329
-694
-188
-107
-391
-235
23
-45
-276
-133
-182
-206
-252
-204
110
36
-103
-98
359
652
468
308
117
182
290
44
-153
-310
-487
-701
-742
-193
-190
-670
-678
-536
-389
-418
-516
-667
-794
-613
69
1859
3697
4971
5879
4281
965
-224
-20
-270
-396
-601
-877
-581
-460
-855
-860
-626
-696
-668
-399
-698
-1066
-711
-552
-545
-452
-482
-450
-442
-252
-235
-505
-482
-210
-115
-48
105
-45
-233
144
562
415
620
885
693
856
972
805
474
360
511
418
240
64
-95
-149
-138
-166
-272
-421
-399
-295
-201
-169
-417
-649
-398
-298
-399
-136
-334
-466
-115
-275
-333
-412
-528
-241
-211
-303
-235
-259
-338
-232
-268
-257
-24
2
-61
-57
-122
-172
77
409
440
319
369
338
285
320
83
-293
-285
-396
-675
-327
-342
-498
-294
-521
-640
-324
-398
-454
-452
-762
-741
-153
1039
2583
4369
5845
5404
2504
20
-259
-63
-455
-676
-573
-792
-819
-511
-503
-688
-790
-650
-783
-1010
-547
-335
-502
-395
-587
-645
-409
-379
-425
-528
-518
-358
93
-66
-455
-135
38
301
414
132
344
701
719
692
876
896
710
920
806
568
571
171
-89
-13
193
199
-335
-505
-79
8
-40
-122
-388
-626
-526
-229
-112
-213
-313
-209
-239
-361
-307
-187
-327
-482
-352
-241
-408
-269
-79
-202
-103
-287
-239
39
-91
-264
-172
36
-218
-153
287
342
338
473
484
351
196
179
312
307
-5
-464
-439
-144
-271
-402
-472
-534
-435
-503
-373
-172
-418
-579
-534
-653
-308
1120
3130
5010
6155
4880
1735
58
-148
-167
-349
-582
-569
-623
-651
-700
-561
-741
-1190
-698
-314
-605
-494
-425
-515
-530
-547
-389
-453
-540
-313
-83
-418
-556
-158
-11
42
119
314
313
168
328
471
580
703
813
764
688
969
958
757
557
337
288
275
165
-137
-242
-82
-47
-116
-342
-447
-111
4
-298
-420
-350
-347
-174
-180
-311
-274
-333
-325
-302
-445
-359
50
6
-263
-176
-318
-369
40
142
-79
-120
-2
-156
-194
118
102
128
589
760
518
353
160
289
517
-68
-447
-166
-201
-392
-378
-376
-420
-378
-570
-517
-226
-400
-545
-393
-680
-675
188
1348
3389
5335
6174
4704
1291
-255
18
-302
-568
-224
-422
-594
-369
-420
-545
-676
-627
-681
-732
-405
-323
-535
-450
-391
-478
-480
-541
-312
-96
-206
-381
-398
-210
-107
14
89
214
225
228
571
565
619
910
1009
935
754
777
822
713
633
457
191
118
-67
-169
-56
-34
-38
-240
-300
-38
-170
-468
-363
-328
-495
-316
-133
-294
-358
-286
-352
-275
-35
-67
-320
-352
-206
-78
-12
-95
1
-175
-338
-2
56
-61
121
153
93
180
23
213
647
574
348
434
309
-20
115
39
-262
-123
-177
-386
-468
-513
-185
-369
-670
-233
-61
-221
-535
-556
213
1380
2783
4479
5917
5211
2012
-106
-284
-393
-316
-249
-392
-556
-576
-461
-583
-678
-584
-602
-668
-628
-539
-449
-403
-350
-289
-467
-502
-396
-429
-207
-165
-216
-43
-45
-107
-22
130
196
185
270
605
781
637
701
856
851
769
705
606
586
663
322
-15
256
230
-107
-306
-515
-146
-12
-266
-193
-248
-365
-414
-484
-396
-144
-192
-424
-435
-493
-398
62
-272
-624
7
-79
-435
-227
-114
-189
-329
-297
-323
-103
53
-197
-197
-138
26
187
268
449
512
411
176
58
-181
-340
-157
-170
-393
-603
-482
-426
-580
-544
-395
-285
-355
-567
-582
-511
-796
-359
944
2460
4424
5973
5224
1874
-177
55
-156
-380
-446
-748
-681
-346
-393
-729
-776
-818
-1006
-779
-599
-552
-561
-896
-727
-341
-445
-581
-451
-201
-267
-514
-348
-222
-203
6
112
-73
-109
253
355
452
527
460
678
828
872
659
449
730
606
563
411
-55
63
121
10
-126
-297
-505
-402
-221
-425
-404
-294
-299
-323
-335
-269
-196
-245
-381
-295
-184
-289
-313
-332
-319
-328
-416
4
59
-312
-170
-337
-359
104
-146
-197
220
74
-118
-63
341
397
257
395
159
136
47
67
210
-215
-228
-61
-477
-644
-330
-314
-555
-534
-448
-598
-669
-532
-805
-772
29
679
2119
4347
6102
5854
2739
-31
-285
5
-262
-490
-695
-607
-436
-653
-757
-700
-643
-585
-450
-614
-912
-546
-592
-774
-481
-474
-383
-393
-508
-483
-415
-421
-395
-245
-406
-276
139
262
486
373
10
374
687
665
908
774
581
805
616
365
438
525
411
62
9
-67
-286
-334
-319
-223
-357
-473
-365
-418
-312
-86
-50
-199
-611
-453
-137
-392
-453
-307
-379
-527
-252
-228
-489
-138
93
-17
-130
-120
-59
-296
-290
-142
-223
-128
-199
-218
-30
43
450
693
568
538
555
204
-47
117
-151
-350
-298
-419
-439
-448
-583
-392
-420
-612
-271
-302
-473
-371
-393
-342
258
1551
3366
5151
5909
4174
1021
65
209
-461
-480
-250
-406
-575
-599
-636
-689
-627
-584
-602
-709
-638
-778
-875
-697
-507
-345
-399
-335
-373
-363
-108
-300
-392
-317
-326
-45
-255
-107
166
-73
476
790
510
475
720
924
797
609
686
610
505
445
37
-4
220
10
-329
-54
148
-264
-459
-435
-350
-306
-214
-138
-391
-569
-597
-231
-148
-467
-219
-111
-537
-581
-215
-130
-274
-387
-278
-90
-58
-133
-208
12
108
-229
-411
-67
99
-192
48
86
54
691
624
392
264
128
262
28
-152
-302
-473
-687
-575
-211
-353
-527
-320
-463
-622
-236
-247
-418
-687
-747
170
1447
3300
5382
5992
3975
863
-188
15
-340
-735
-720
-562
-630
-771
-774
-667
-671
-893
-847
-583
-494
-656
-879
-755
-587
-627
-549
-672
-602
-200
-185
-425
-354
-121
-128
-48
100
134
32
160
337
343
492
680
707
710
918
848
584
660
556
292
249
99
-90
-101
-42
-341
-564
-341
-312
-282
-109
-277
-437
-491
-402
-194
-350
-408
-496
-539
-485
-266
-96
-355
-288
-389
-600
-209
-54
-493
-374
-44
-268
-321
-118
101
96
-51
-22
-194
-171
398
494
326
286
336
378
104
30
-18
-198
-190
-366
-546
-440
-478
-653
-353
-243
-559
-479
-549
-456
-403
-677
-95
1441
3389
5129
6108
4887
1485
-312
-80
-216
-441
-543
-686
-660
-634
-613
-562
-519
-398
-585
-881
-659
-544
-705
-517
-382
-448
-424
-533
-320
-125
-549
-333
53
-284
-151
286
38
-110
312
411
368
607
538
652
768
630
943
958
676
651
523
325
341
313
180
168
16
-67
-119
-405
-418
-184
-218
-493
-520
-117
-22
-314
-333
-288
-298
-220
-196
-280
-363
-283
-379
-462
-23
41
-249
-331
-259
8
48
-121
-201
-18
123
-171
-190
106
296
237
360
557
149
115
328
242
51
-261
-118
-103
-548
-386
-237
-541
-324
-276
-770
-709
-562
-518
-504
-812
-419
539
1832
3472
5095
5973
3849
447
-362
98
-228
-637
-679
-635
-592
-692
-728
-557
-686
-863
-529
-483
-636
-514
-482
-531
-714
-522
-288
-437
-331
-294
-424
-474
-356
-280
-246
8
104
243
268
170
296
353
593
831
574
515
757
764
735
544
526
627
388
134
-4
-78
-273
-226
-105
-505
-670
-155
-15
-267
-367
-558
-407
-180
-300
-371
-320
-389
-513
-386
-336
-592
-285
112
-201
-273
-162
-131
-215
-299
-193
-205
-172
-67
-253
-238
111
185
226
330
273
194
290
372
174
39
-104
-352
-302
-310
-549
-674
-418
-396
-717
-671
-459
-268
-348
-772
-792
-591
-217
951
2734
4685
5802
4845
1923
-15
-170
-511
-717
-519
-523
-715
-799
-677
-861
-885
-638
-746
-802
-804
-893
-826
-643
-497
-448
-571
-800
-643
-315
-294
-351
-365
-407
-461
-405
-262
-123
-29
85
363
448
440
492
559
749
882
839
502
399
514
342
94
86
-101
-345
-253
-161
-84
-253
-497
-530
-345
-325
-561
-240
-206
-541
-594
-616
-346
-300
-349
-222
-329
-371
-354
-433
-395
-254
-311
-231
-96
-235
-186
-134
-31
42
-190
-188
14
83
7
178
433
153
106
450
399
140
-95
-175
-99
-320
-511
-365
-371
-596
-546
-405
-520
-470
-264
-484
-809
-813
-553
437
2131
4015
5720
5812
2997
328
82
100
-299
-462
-601
-828
-780
-769
-850
-697
-804
-787
-656
-761
-855
-803
-534
-566
-642
-488
-518
-504
-502
-582
-428
-476
-527
-261
-306
-237
28
67
-71
80
469
355
467
757
524
578
743
581
456
356
253
215
181
40
-186
-145
-28
-412
-698
-442
-308
-294
-390
-678
-553
-287
-464
-516
-326
-383
-424
-405
-325
-353
-638
-531
-264
-399
-303
-232
-723
-583
74
-20
-463
-375
45
41
-155
-305
-171
194
148
267
606
521
125
95
262
-193
-470
-266
-191
-382
-535
-574
-523
-708
-894
-271
-392
-847
-428
-474
-795
-478
67
1270
3501
5540
6260
4066
730
-227
-388
-609
-250
-415
-921
-945
-604
-815
-1099
-885
-780
-621
-550
-914
-650
-376
-789
-868
-681
-509
-577
-446
-335
-706
-591
-211
-330
-435
-243
-88
88
97
31
199
533
891
680
345
652
833
661
676
615
284
87
132
89
30
-59
-107
-15
-230
-534
-245
87
-249
-516
-438
-528
-665
-545
-363
-293
-382
-320
-172
-103
-376
-512
-164
-212
-202
-195
-301
-228
-286
-305
-336
-166
100
-155
-212
70
-14
-112
169
650
709
364
231
249
278
240
13
-326
-527
-601
-503
-182
-303
-683
-444
-304
-672
-630
-99
-306
-807
-659
-258
760
2576
4694
5849
5157
2344
-166
-88
310
-373
-879
-585
-547
-790
-848
-817
-645
-796
-929
-694
-545
-709
-693
-392
-578
-624
-393
-457
-366
-354
-564
-476
-379
-584
-478
-124
-53
-51
-17
147
299
363
494
447
585
700
581
764
918
708
233
-10
143
270
159
-27
-269
-361
-159
-242
-331
-365
-529
-597
-397
-288
-591
-555
-369
-293
-405
-626
-521
-403
-426
-221
-211
-501
-180
-75
-378
-403
-353
-422
-415
-309
-283
-325
-478
-243
130
298
324
145
314
475
223
177
223
-137
-610
-411
-150
-564
-730
-625
-357
-253
-705
-751
-606
-697
-633
-467
-543
-780
-255
1110
2636
4455
5879
4987
1641
-355
-157
-319
-491
-555
-839
-769
-633
-812
-800
-716
-972
-869
-499
-533
-619
-640
-510
-549
-815
-304
-188
-850
-574
-158
-314
-169
-263
-388
24
-106
-238
132
317
592
706
544
427
400
753
931
682
676
671
617
709
403
42
204
302
-147
-309
-173
-97
-203
-442
-291
-321
-389
-233
-297
-401
-373
-234
-141
-285
-430
-250
-87
19
160
-225
-339
58
34
92
177
-163
-273
-113
-142
-7
267
24
-105
364
401
254
793
756
214
363
445
133
148
61
-125
-60
-174
-244
-314
-294
-221
-298
-335
-314
-302
-106
-154
-539
-271
889
2468
3875
5524
6189
3459
459
144
105
-348
-258
-323
-747
-502
-201
-453
-439
-495
-379
-135
-393
-385
-310
-485
-343
-208
-381
-502
-69
1
-90
216
56
-186
51
245
63
349
382
199
536
517
425
824
1118
992
986
950
853
765
621
714
683
498
338
146
143
40
-282
-170
-14
-205
-171
-22
157
-224
-641
-229
33
-136
-55
57
-233
-272
-95
-204
-157
-192
-201
35
-163
-249
17
-30
-196
-93
79
-41
-193
194
355
235
320
347
578
593
358
374
232
139
26
-190
64
-44
-556
-360
-251
-407
-183
-389
-562
-169
-208
-440
-488
-566
-344
585
2362
4246
5729
5855
3253
98
-532
212
76
-431
-484
-554
-771
-687
-464
-357
-532
-827
-801
-744
-659
-488
-593
-594
-418
-364
-128
-220
-698
-458
-82
-278
-290
-224
-171
-110
-198
162
451
237
388
668
585
539
753
949
819
711
581
492
529
107
-168
97
170
79
-75
-264
-361
-283
-359
-752
-424
-65
-422
-530
-318
-394
-579
-364
-373
-455
-276
-404
-357
-289
-281
18
-205
-532
-358
-231
-181
-337
-423
-146
-186
-204
-51
-216
-165
173
318
364
369
248
318
91
-32
44
-339
-376
-551
-789
-612
-645
-585
-557
-665
-446
-308
-651
-930
-844
-864
-720
-137
970
2997
4971
5789
4477
1159
-496
-87
-532
-835
-643
-970
-940
-824
-973
-1017
-1176
-1132
-842
-767
-863
-960
-741
-661
-897
-891
-830
-866
-926
-657
-474
-602
-569
-642
-534
-296
-444
-260
-139
-192
-202
-127
456
467
241
409
257
-67
291
709
181
-437
-166
-3
-196
-423
-627
-624
-786
-766
-686
-919
-861
-590
-901
-940
-593
-928
-972
-600
-876
-731
-475
-783
-907
-884
-709
-536
-948
-1081
-552
-554
-852
-786
-666
-807
-625
-453
-626
-717
-703
-692
-562
-261
-189
-22
110
-133
-272
-258
-323
-516
-819
-913
-810
-722
-927
-1360
-1028
-687
-958
-1073
-988
-1112
-1213
-855
-995
-1500
-921
565
2406
4155
5422
4680
1309
-553
-535
-1006
-1050
-896
-1153
-1245
-1241
-1315
-1374
-1250
-1002
-1091
-1328
-1260
-972
-1143
-1098
-1008
-1102
-684
-932
-1327
-805
-565
-777
-786
-715
-778
-863
-603
-368
-476
-173
50
-155
3
118
231
425
391
370
323
201
85
-19
-130
-223
-460
-750
-658
-535
-548
-584
-771
-777
-604
-532
-670
-855
-803
-798
-812
-680
-583
-688
-897
-947
-589
-346
-727
-761
-583
-660
-515
-548
-559
-607
-846
-634
-345
-362
-468
-519
-621
-591
-317
-14
328
284
48
-37
-7
-13
-359
-447
-789
-965
-596
-831
-809
-598
-723
-723
-788
-777
-704
-928
-1032
-1028
-999
-410
610
2270
4248
5653
4916
1583
-450
-486
-679
-660
-853
-880
-718
-1105
-1120
-958
-1061
-1078
-1027
-1200
-1169
-829
-877
-887
-675
-711
-885
-835
-747
-680
-642
-581
-517
-572
-477
-404
-318
-357
-365
136
281
108
407
375
383
593
520
548
446
504
581
318
13
-84
-35
-185
-524
-395
-175
-314
-361
-581
-776
-480
-263
-486
-733
-677
-559
-526
-558
-457
-416
-907
-681
-266
-505
-510
-611
-535
-282
-391
-568
-598
-500
-520
-470
-452
-464
-311
-372
-3
-30
-206
327
277
2
-179
-220
-82
-420
-479
-265
-442
-542
-749
-938
-794
-608
-620
-699
-714
-743
-696
-744
-1059
-962
-190
1122
3087
4874
5618
4109
1055
-364
-434
-599
-828
-1002
-787
-559
-791
-1128
-934
-598
-832
-980
-872
-991
-699
-501
-648
-623
-754
-702
-599
-617
-643
-694
-398
-227
-368
-207
-152
-329
-196
12
323
322
81
278
439
721
703
464
849
718
286
401
411
188
83
92
-162
-317
-210
-245
-144
-352
-877
-613
-246
-339
-346
-446
-646
-525
-355
-381
-288
-301
-423
-326
-202
-245
-339
-397
-352
-246
-277
-255
-445
-482
-97
14
-246
-355
-17
169
207
194
211
363
369
189
22
28
-72
-233
-95
-232
-615
-599
-463
-385
-557
-775
-475
-355
-570
-570
-411
-657
-922
-253
811
2094
3925
5529
5309
2538
126
-268
-218
-188
-431
-668
-649
-712
-930
-1028
-663
-538
-840
-915
-810
-645
-546
-581
-553
-412
-406
-476
-397
-312
-542
-699
-321
3
-150
-368
-320
-225
-6
291
288
340
572
650
629
668
955
911
415
583
497
172
374
212
-37
-228
-255
-5
-67
-319
-234
-337
-643
-292
-49
-377
-620
-333
66
-194
-499
-546
-493
-262
-153
-185
-344
-392
-312
-451
-310
-60
-75
-146
-170
-187
-216
-68
-25
-123
36
343
302
196
119
279
414
251
407
151
-320
-273
-260
-412
-408
-301
-480
-723
-541
-428
-535
-580
-711
-508
-442
-552
-194
966
3094
4855
5753
4917
1675
-269
26
-122
-592
-779
-582
-509
-664
-584
-673
-798
-820
-723
-679
-722
-673
-712
-556
-534
-777
-810
-512
-370
-600
-342
-294
-562
-190
-189
-416
-162
82
132
89
246
496
540
468
416
579
892
928
631
482
589
521
200
38
84
-206
-563
-421
-405
-273
17
-326
-450
-290
-371
-345
-313
-527
-417
-278
-341
-374
-640
-352
27
-242
-419
-136
-134
-408
-267
-259
-230
-355
-454
119
-37
-258
9
-145
21
250
153
162
380
405
288
251
-110
-5
256
-189
-265
-258
-557
-364
-251
-481
-410
-467
-692
-527
-422
-406
-737
-845
-448
175
1835
3864
5400
5958
3804
632
-132
-113
-340
-388
-713
-1002
-791
-285
-440
-915
-741
-554
-602
-492
-683
-779
-599
-685
-532
-478
-820
-539
-265
-312
-214
-321
-324
-201
-238
37
202
-66
-150
115
476
635
670
664
670
712
919
876
613
782
431
144
200
18
109
-48
-143
-25
-251
-321
-291
-280
-96
-253
-338
-257
-505
-570
-248
-77
-317
-445
-226
-189
-396
-407
-300
-253
-190
-173
-389
-362
102
74
-117
-112
-210
-97
-66
-54
-22
-162
26
244
408
477
202
318
519
433
356
-67
-254
16
-164
-488
-530
-453
-529
-769
-497
-255
-431
-275
-343
-656
-666
-436
295
1620
3381
5175
6174
4218
632
-384
70
-257
-533
-289
-291
-640
-665
-558
-729
-856
-651
-512
-560
-558
-601
-499
-726
-656
-247
-366
-352
-356
-274
-159
-333
-379
-286
-258
-158
155
193
114
278
211
396
674
742
962
769
580
986
947
408
335
593
485
201
206
-59
-320
-61
-168
-233
7
-264
-379
-237
-327
-381
-573
-403
-42
-242
-159
-119
-305
-217
-297
-281
-108
-314
-501
-102
-82
-317
-62
-124
-129
55
-66
-19
-40
-78
44
-111
71
470
460
469
296
138
438
332
117
-18
-121
-152
-406
-262
-162
-328
-492
-768
-697
-344
-247
-447
-566
-479
-369
99
1399
3054
4691
6120
4776
1356
7
-39
-254
-478
-682
-691
-674
-590
-565
-640
-607
-610
-656
-571
-604
-652
-597
-443
-246
-295
-259
-275
-479
-443
-371
-352
-151
37
-128
-223
37
197
240
435
499
542
756
823
666
690
990
1136
823
644
846
571
219
214
116
16
4
-102
-187
-89
-99
-348
-428
-319
-257
-228
-69
-131
-593
-337
-69
-368
-278
-173
-123
-116
-265
-83
136
-154
-395
-198
-109
-39
57
92
24
-120
94
156
65
140
148
282
544
653
590
358
122
123
226
141
-57
-151
-91
-34
-63
-153
-372
-570
-325
-228
-533
-372
-345
-672
-551
-152
741
2237
4076
5776
5753
3151
328
-229
-61
-352
-371
-358
-430
-595
-743
-753
-611
-529
-672
-601
-394
-290
-381
-379
-483
-633
-253
-180
-231
-185
-464
-582
-315
30
-10
-173
51
138
192
373
273
398
654
691
616
782
983
831
705
779
663
446
419
287
266
307
149
124
-133
-340
-284
-287
-307
-303
-257
-275
-321
-293
-184
-391
-365
-40
-91
-184
-229
-119
-43
-13
-5
-246
-226
-145
-278
-309
-250
-143
-125
-123
63
142
74
165
268
320
395
470
350
209
225
112
168
158
-204
-283
-329
-543
-394
-333
-508
-542
-504
-473
-343
-373
-662
-732
-642
-73
1158
2809
4421
5809
5274
1804
-268
-69
-294
-344
-455
-916
-634
-360
-528
-661
-753
-745
-823
-820
-644
-537
-627
-496
-421
-745
-558
-399
-502
-281
-256
-337
-477
-607
-310
-86
-156
69
220
-2
164
576
595
593
784
758
801
905
628
470
660
293
-43
124
133
147
58
-393
-336
-113
-345
-302
-307
-301
-217
-241
-302
-368
-330
-446
-352
-175
-333
-338
-405
-379
-188
-250
-152
-181
-330
-171
-251
-395
-172
-27
106
113
-237
-159
-119
-318
16
452
472
466
553
281
172
219
20
-104
-276
-209
-209
-606
-388
-195
-475
-544
-458
-332
-341
-348
-650
-989
-429
184
707
2472
4597
5919
5388
2296
85
44
-60
-453
-662
-665
-721
-739
-711
-640
-699
-762
-603
-692
-688
-620
-621
-444
-491
-455
-267
-378
-404
-464
-511
-464
-356
-196
-148
41
207
60
6
145
50
333
715
560
739
827
804
793
630
840
678
325
354
240
23
2
-143
-352
-383
-244
-174
-253
-216
-285
-314
-197
-104
-139
-413
-418
-189
-368
-470
-168
-164
-409
-244
-112
-137
-189
-286
-225
-242
-43
126
-94
-245
-86
-46
-20
213
81
135
571
323
249
531
226
243
357
-62
-112
-167
-587
-527
-204
-262
-465
-499
-430
-307
-313
-363
-384
-628
-849
-533
297
1602
3357
5209
6132
4346
1089
44
64
-414
-409
-550
-587
-371
-582
-771
-906
-826
-615
-620
-543
-602
-556
-432
-563
-406
-206
-483
-677
-506
-274
-291
-205
-181
-275
-186
-356
-89
210
115
384
587
636
750
853
763
709
794
829
627
346
582
614
308
284
88
-145
-132
3
157
-9
-210
-289
-505
-457
-260
-314
-486
-474
-215
-477
-482
145
124
-160
-123
-100
-245
-298
-201
-330
-503
-88
31
-233
-51
54
-171
-65
258
-43
78
368
164
412
528
618
567
281
240
36
7
-2
-170
-106
-514
-479
165
-251
-604
-325
-346
-368
-292
-371
-387
-500
-608
-76
1409
3269
5098
6201
4655
1147
-252
50
-391
-566
-405
-494
-703
-577
-179
-315
-776
-765
-627
-665
-542
-490
-272
-299
-669
-446
-296
-377
-239
-220
-279
-225
-187
-269
-341
51
247
35
107
190
549
907
772
768
937
812
841
954
707
757
688
232
285
596
131
-265
190
188
-198
-188
37
-167
-457
-191
-169
-251
-313
-405
-119
-198
-371
-14
-102
-338
-179
-194
-349
-157
-32
-230
-12
146
-119
-31
218
12
66
223
-17
161
49
-11
360
229
171
586
583
275
488
444
282
51
-173
39
-125
-485
-179
31
-243
-216
-208
-496
-427
-230
-468
-599
-613
-497
209
1533
3579
5323
6041
4552
1224
-230
7
-77
-241
-401
-644
-531
-241
-590
-1027
-725
-584
-420
-315
-700
-500
-253
-416
-564
-561
-331
-83
-268
-600
-266
-273
-550
152
248
-195
73
170
136
300
455
626
637
727
876
776
708
815
928
500
321
655
430
49
-95
3
143
7
-258
-358
-136
-32
-383
-516
-293
-236
-283
-503
-664
-269
-192
-372
-165
-118
-151
-431
-467
51
-13
-269
-145
-95
-303
-528
-192
132
47
-28
-178
-6
247
365
424
178
360
569
249
105
249
221
-47
-249
-349
-290
-310
-398
-458
-490
-317
-482
-637
-533
-447
-220
-366
-681
-173
870
2604
4718
6005
5224
1798
-301
-10
-157
-441
-441
-674
-896
-755
-526
-444
-678
-944
-652
-627
-834
-462
-356
-554
-585
-650
-778
-522
-297
-476
-260
-100
-614
-731
-69
250
92
50
-62
-120
141
439
637
721
483
233
641
1036
904
629
528
461
279
29
-119
-107
-251
-82
-166
-390
-176
-665
-511
165
-161
-313
-212
-511
-551
-154
-391
-566
-154
-132
-263
-373
-546
-265
-15
-331
-240
86
-131
-313
-159
-180
-285
45
188
-80
-111
179
286
259
540
493
164
194
178
160
144
-97
-81
-119
-417
-452
-372
-252
-504
-847
-555
-535
-536
-265
-470
-736
-456
314
1467
3441
5491
6176
4194
925
-224
-165
-360
-531
-647
-513
-553
-494
-510
-784
-736
-605
-697
-660
-671
-770
-541
-554
-780
-594
-255
-303
-517
-591
-406
-170
-224
-227
-238
-181
15
-130
-78
238
441
619
648
576
655
793
890
630
452
707
565
265
155
294
129
-366
-249
49
-262
-375
-280
-519
-221
-127
-493
-510
-331
-284
-361
-412
-482
-428
-333
-157
-97
-298
-438
-372
-290
-181
-14
-180
-386
-239
-136
-47
70
-104
-278
-86
18
170
298
144
322
578
567
359
187
130
9
-86
-258
-509
-386
-317
-475
-363
-396
-493
-521
-740
-455
-6
-408
-715
-484
374
2001
3536
5232
6197
3983
568
-456
-200
-226
-520
-854
-534
-213
-644
-917
-637
-712
-893
-521
-552
-797
-626
-646
-656
-435
-400
-432
-547
-654
-315
-188
-125
-71
-183
-115
-77
-33
-29
79
324
480
624
654
644
759
785
755
654
750
745
484
458
341
121
134
151
-187
-255
-300
-496
-88
-70
-259
-47
-440
-678
-270
-189
-286
-130
-164
-456
-353
-255
-321
-301
-208
-12
-118
-301
-201
-103
-123
-175
-20
2
-261
-22
157
-82
-150
20
64
217
605
545
491
440
134
74
165
48
-201
-426
-315
-198
-389
-531
-546
-436
-394
-507
-531
-321
-394
-743
-579
190
1341
3110
4926
5852
4636
1485
-226
-165
-289
-764
-617
-305
-688
-674
-525
-743
-729
-535
-670
-745
-590
-594
-522
-527
-616
-516
-347
-351
-225
-159
-397
-393
-329
-121
-260
-451
59
426
245
80
405
556
522
816
881
773
865
633
487
695
523
313
167
36
77
35
76
-31
-216
-310
-302
-239
-303
-329
-492
-596
-296
-48
-466
-492
22
-410
-512
-80
-188
-347
-366
-127
52
-124
-243
-197
-200
-75
-203
-486
-310
32
37
12
-50
-189
41
48
99
334
405
352
325
544
360
-40
-70
-132
-207
-227
-301
-217
-358
-555
-498
-604
-608
-456
-615
-559
-350
-649
-762
44
1577
3213
4854
6145
4685
1101
-441
-213
-267
-324
-463
-810
-878
-651
-749
-855
-379
-411
-912
-919
-514
-418
-753
-552
-408
-574
-411
-302
-191
-428
-602
-239
-135
-183
-277
-337
52
270
54
197
463
624
682
794
830
422
477
830
671
706
702
49
-102
328
327
164
50
-262
-472
-479
-376
-436
-396
-250
-273
-326
-431
-275
-118
-242
-276
-278
-600
-459
-213
-473
-427
-281
-174
-103
-199
-290
34
130
-174
-207
-187
-90
19
-20
-9
-278
-548
246
561
14
365
821
260
39
418
202
-116
-220
-351
-406
-277
-374
-538
-428
-578
-457
-281
-392
-417
-710
-633
-541
-495
846
2894
4649
5837
5150
2150
47
118
62
-549
-740
-601
-508
-653
-837
-807
-826
-574
-474
-634
-847
-999
-551
-299
-516
-620
-370
-234
-360
-366
-427
-459
-109
0
-308
-366
-327
-19
216
146
418
580
361
594
941
808
650
750
739
582
556
418
483
261
-151
240
76
-446
-419
-345
-167
-190
-147
-122
-507
-454
-157
-214
-424
-382
-291
-447
-255
-52
-237
-487
-479
-331
-313
-204
37
-230
-514
-99
-76
-481
-463
65
141
-89
-83
-47
48
112
169
115
282
452
240
266
309
-95
-185
-294
-340
-394
-552
-249
-349
-438
-492
-767
-516
-416
-411
-617
-996
-636
23
1058
2724
4699
6086
5173
2071
38
-155
-233
-416
-654
-631
-630
-972
-785
-544
-821
-661
-504
-799
-993
-784
-595
-602
-488
-514
-408
-338
-607
-557
-344
-535
-423
-237
-335
-98
-101
-112
63
62
165
562
622
672
929
462
369
740
572
379
486
455
242
215
140
-50
-69
-262
-438
-302
-380
-640
-437
-231
-487
-503
-552
-841
-667
-290
-157
-276
-441
-322
-381
-433
-311
-325
-218
-348
-427
-291
-325
-128
-160
-395
-468
-720
-422
146
-18
-187
-132
-190
84
259
137
359
433
279
169
36
-93
-110
-161
-452
-511
-440
-664
-692
-423
-560
-739
-736
-485
-201
-543
-1017
-812
-25
1086
2706
4719
6140
5010
1778
-197
-226
-303
-603
-386
-419
-894
-853
-581
-619
-717
-817
-884
-965
-719
-493
-642
-678
-586
-366
-422
-568
-309
-275
-735
-630
-218
-114
-31
42
-77
-251
96
431
265
462
886
684
662
966
764
741
793
474
569
502
319
290
-86
30
138
-246
-231
-20
-198
-367
-380
-442
-419
-348
-151
-249
-624
-338
-85
-188
-100
-218
-139
-77
-239
-225
-280
-167
-97
-383
-209
73
12
-42
-220
-154
7
-61
-99
67
268
204
129
119
242
589
604
194
283
452
197
-140
-390
-185
-92
-413
-316
-93
-514
-605
-328
-509
-503
-220
-448
-723
-368
535
1938
3840
5449
5821
4090
1065
-281
-238
-213
-362
-702
-606
-332
-571
-734
-512
-374
-445
-713
-605
-419
-558
-441
-389
-365
-203
-400
-576
-397
-278
-253
-255
-138
24
100
223
-17
-166
382
611
296
629
999
932
932
894
879
793
833
764
226
119
542
496
186
134
-155
-278
106
89
-314
-285
-249
-315
-75
-296
-465
-289
-416
-447
-308
-156
-341
-490
85
211
-131
-281
-368
-96
-48
-242
-235
-113
-18
-217
-9
30
-330
-120
44
-59
13
-38
-317
127
513
523
725
413
245
308
84
-44
-89
-293
-382
-304
-470
-637
-441
-395
-481
-450
-506
-389
-319
-556
-584
-419
269
1954
3784
5293
5702
3628
760
-193
-164
-488
-539
-343
-493
-598
-652
-935
-580
-363
-689
-824
-643
-456
-613
-492
-290
-282
-536
-646
-474
-226
-246
-511
-387
-176
-93
-173
-161
-90
84
244
360
468
453
494
567
802
757
755
982
807
463
403
586
367
167
11
-170
56
45
-144
-223
-266
-332
-558
-384
-132
-353
-212
-377
-461
-26
-324
-412
-180
-211
-272
-271
-312
-249
-53
-342
-333
71
13
-56
-140
-89
114
-7
-100
-157
-320
-65
225
-46
56
288
397
533
466
618
492
123
141
34
-151
-271
-311
-336
-734
-322
99
-364
-453
-353
-255
-126
-423
-1040
-770
-47
895
2598
4143
5758
5650
2529
196
-188
-71
-13
-484
-499
-147
-533
-815
-425
-597
-676
-145
-486
-714
-681
-796
-540
-499
-221
-97
-639
-596
-75
-199
-232
79
-95
-267
-27
185
137
53
68
302
623
623
734
876
807
921
1084
760
390
602
569
297
272
333
195
-214
-221
-108
-255
-267
-229
-438
-273
14
-235
-179
-152
-344
-245
-329
-555
-273
35
-107
-495
-386
38
23
-111
-397
-313
10
-174
-187
23
-142
-266
-130
-121
-325
-276
-123
-8
259
149
107
529
588
282
151
267
538
307
-291
-277
-22
-67
-221
-393
-488
-468
-452
-495
-490
-435
-784
-733
-321
-571
-476
261
1622
3540
5274
6072
4287
1083
-219
-144
-240
-343
-534
-551
-563
-651
-635
-939
-977
-565
-587
-815
-541
-525
-830
-663
-443
-563
-601
-520
-364
-249
-331
-389
-530
-426
-22
-79
-165
112
250
323
277
468
782
647
610
740
816
965
528
447
796
520
466
309
70
34
-50
-38
-187
-507
-383
-266
-187
-111
-389
-174
-39
-181
-228
-336
-267
-512
-546
-160
-232
-119
-198
-469
-80
136
9
-72
-208
-544
-370
90
-116
-203
-276
-304
-40
16
-44
-242
-164
68
167
416
489
314
143
19
-31
-229
-335
-163
-369
-537
-347
-467
-616
-493
-805
-990
-494
-594
-688
-489
-676
-547
13
1495
3672
5177
5764
4017
812
-301
-347
-619
-493
-385
-675
-862
-806
-877
-866
-907
-751
-672
-826
-762
-888
-847
-621
-714
-744
-755
-723
-522
-529
-652
-464
-280
-289
-76
-30
-476
-182
237
81
349
509
349
402
823
642
430
616
534
515
492
282
-116
-224
-47
-249
-272
-162
-513
-449
-369
-505
-494
-586
-497
-387
-309
-296
-476
-359
-407
-417
-112
-267
-605
-490
-302
-489
-475
-252
-245
-146
-129
-396
-221
-341
-580
8
-34
-238
-14
-67
-151
-103
188
403
368
453
486
134
-37
244
179
-251
-180
-258
-551
-386
-462
-699
-430
-160
-389
-693
-545
-667
-909
-569
-460
-95
1205
2852
4467
5652
4955
1970
-216
-417
-379
-575
-680
-652
-646
-713
-852
-858
-778
-540
-593
-871
-617
-487
-464
-519
-791
-614
-346
-435
-477
-213
-302
-451
-116
-113
-247
-263
-284
36
326
289
372
516
520
815
785
569
876
939
778
646
601
487
222
174
17
-27
72
-218
-419
-278
-124
-138
-235
-159
-169
-196
-198
-347
-314
-235
-245
-333
-289
-284
-318
-61
-63
-202
-159
-124
-123
-21
-155
-82
31
-308
-81
192
-79
-151
138
235
171
228
119
47
440
580
385
240
334
244
-28
227
0
-409
-200
-49
-246
-354
-465
-457
-427
-329
-53
-508
-826
-504
-327
3
1047
2644
4376
5500
4745
1999
87
-34
-397
-497
-143
-330
-495
-532
-723
-796
-472
-351
-916
-912
-405
-444
-429
-351
-462
-445
-375
-236
-284
-332
-166
-416
-571
-160
-41
-24
85
42
224
239
266
626
625
648
885
790
723
987
810
389
756
822
227
329
225
-126
72
-127
-206
-86
-304
-342
-281
-267
-175
-135
-329
-288
-75
-247
-337
-319
-378
-325
-306
-248
-214
9
-8
-269
-225
-88
76
-31
-85
-93
-330
-201
-49
-117
86
232
45
40
341
472
502
542
418
309
57
-14
80
-522
-455
26
-189
-149
-125
-464
-628
-444
-197
-273
-555
-360
-562
-1104
-232
806
2005
4270
5721
5289
2713
338
-110
-170
-326
-433
-508
-671
-746
-878
-723
-422
-631
-594
-762
-790
-453
-583
-485
-423
-689
-586
-354
-443
-539
-463
-543
-334
-87
-349
-194
95
7
-6
47
386
496
288
554
765
787
582
535
906
711
299
394
552
239
125
0
-202
42
-306
-495
-196
-134
-272
-559
-417
-259
-525
-424
-154
-248
-330
-296
-323
-363
-378
-145
-106
-475
-256
-197
-561
-251
5
-163
-265
-243
-268
-262
-50
-178
-313
-49
-30
-103
126
340
317
395
480
327
185
238
-44
-342
-151
-275
-516
-451
-255
-504
-720
-378
-422
-488
-436
-385
-390
-790
-889
-547
403
2195
4017
5477
5780
3318
245
-425
49
-173
-487
-501
-730
-809
-733
-751
-1012
-893
-487
-804
-659
-248
-497
-504
-377
-489
-536
-609
-672
-694
-495
-381
-469
-89
-55
-259
-99
-132
9
184
201
325
589
816
534
489
674
756
915
789
550
511
452
149
-170
-159
128
-58
-392
-234
-303
-485
-352
-336
-496
-414
-214
-220
-259
-307
-270
-395
-414
-235
-343
-453
-308
-55
-272
-501
-165
-67
-266
-173
-187
-429
-427
-57
98
-296
-252
67
23
-114
-235
27
398
724
749
125
64
339
-69
-124
-17
-316
-366
-394
-521
-389
-492
-979
-563
-5
-391
-566
-375
-600
-1010
-715
130
1708
3719
5286
5876
3755
501
-607
-104
13
-580
-704
-658
-775
-653
-663
-687
-784
-971
-761
-646
-807
-652
-497
-444
-468
-726
-495
-218
-497
-433
-392
-668
-426
-126
-29
63
-70
41
212
261
196
268
676
851
817
710
645
690
637
601
503
347
412
120
-223
61
75
-237
-101
-140
-387
-360
-342
-383
-428
-462
-332
-140
-340
-346
-217
-631
-377
0
-177
-281
-391
-275
-444
-484
-130
-209
-470
-287
-1
-288
-337
-121
-283
-329
-27
165
131
121
245
315
421
521
260
42
21
-150
-194
-198
-390
-262
-255
-399
-361
-393
-347
-518
-599
-421
-659
-718
-571
-661
-371
278
1264
3208
4915
5371
4376
1522
-331
-233
-425
-898
-794
-292
-382
-948
-829
-540
-710
-712
-635
-664
-623
-609
-619
-544
-646
-670
-515
-487
-429
-502
-440
-285
-364
-246
-5
-17
4
84
147
259
406
580
540
535
549
739
842
639
672
691
621
276
40
163
27
-10
94
-86
-233
-268
-530
-624
-467
-402
-172
-319
-729
-533
-305
-384
-316
-316
-618
-441
-28
-204
-252
-329
-469
-53
-56
-515
-317
-135
-246
-58
-43
-461
-465
-64
39
-67
-259
-107
153
195
216
345
364
237
124
18
27
-76
-133
-338
-635
-453
-252
-465
-729
-513
-385
-796
-781
-476
-409
-596
-919
-421
698
2145
3921
5372
5546
2961
53
-445
-281
-465
-432
-503
-728
-844
-826
-878
-848
-589
-691
-748
-568
-672
-754
-589
-419
-439
-579
-644
-489
-402
-633
-490
-358
-576
-383
-102
-104
-155
-5
91
147
532
483
388
642
654
573
499
549
583
471
357
420
145
-200
16
-19
-183
-267
-400
-386
-477
-414
-278
-611
-771
-321
-210
-537
-494
-351
-315
-326
-470
-456
-483
-510
-318
-295
-533
-317
-103
-355
-194
-357
-472
-150
-340
-467
-239
-98
-333
-374
-102
-68
-288
-204
471
787
309
40
48
2
90
-175
-319
-376
-547
-535
-632
-871
-819
-462
-543
-549
-414
-427
-398
-568
-762
-328
807
2380
4185
5453
4902
1976
-293
-267
-88
-280
-579
-855
-528
-478
-808
-678
-764
-1008
-933
-540
-495
-1036
-861
-414
-705
-662
-381
-518
-513
-398
-512
-602
-463
-275
-122
-312
-233
142
52
51
322
519
349
331
537
707
893
650
660
753
447
515
373
-185
-128
-34
-212
-114
-259
-319
-282
-520
-501
-362
-338
-375
-347
-559
-687
-194
-112
-327
-367
-449
-375
-250
-360
-414
-249
-177
-318
-354
-334
-371
-298
-387
-167
-76
-243
-22
-89
-252
-244
-175
-96
-104
178
525
508
311
128
51
223
122
-120
-253
-427
-251
-342
-559
-438
-547
-619
-604
-554
-549
-717
-438
-561
-859
-121
744
1771
3616
5422
5579
3170
419
-264
-375
-568
-402
-641
-717
-481
-631
-503
-370
-857
-1057
-793
-592
-715
-798
-722
-647
-452
-357
-358
-554
-571
-307
-106
-167
-497
-388
-132
-126
-122
-68
151
574
490
322
721
791
835
932
721
566
594
588
358
283
187
-23
-57
-74
-93
-169
-272
-280
-350
-562
-478
-192
-192
-406
-363
-205
-269
-348
-526
-631
-368
-373
-463
-194
-251
-369
-265
-276
-344
-260
-191
-246
-506
-584
-253
-219
-324
-398
-193
-115
-457
-76
377
-115
-458
228
480
353
475
96
-68
170
35
-184
-270
-456
-704
-726
-400
-427
-487
-533
-646
-348
-314
-367
-558
-1130
-979
-113
762
2219
4517
5948
5038
1993
-106
-127
-241
-593
-783
-641
-546
-966
-874
-305
-642
-1039
-800
-731
-395
-452
-800
-589
-765
-840
-357
-373
-607
-601
-475
-399
-510
-363
-83
-18
-142
-215
57
404
446
647
679
388
553
695
629
618
842
814
574
665
317
-172
-48
40
8
14
-175
-329
-274
-221
-490
-448
-159
-183
-258
-443
-498
-304
-288
-522
-360
-207
-393
-232
-185
-192
-163
-317
-213
-285
-336
-149
-135
-89
-178
-236
-237
-248
-139
-17
-57
-210
-35
164
393
705
539
228
153
51
25
-42
-234
-361
-534
-425
-270
-512
-470
-419
-685
-615
-567
-657
-548
-536
-736
-524
396
1846
3588
5192
5920
3762
508
-327
-205
-445
-572
-664
-773
-668
-612
-676
-677
-606
-501
-721
-951
-750
-479
-738
-620
-226
-497
-659
-471
-158
-28
-395
-496
-178
-185
-86
48
-102
-253
97
529
384
627
809
649
847
892
603
713
937
545
508
532
139
71
88
-64
-309
-421
-327
-290
-329
-191
-292
-458
-177
-252
-567
-516
-417
-562
-451
-83
-212
-303
-178
-356
-413
-337
-219
-266
-314
-136
-147
-232
-177
-346
-541
-266
-27
-50
-176
-288
82
311
120
169
177
233
228
115
312
284
-170
-181
-214
-647
-706
-421
-293
-474
-341
-421
-838
-663
-490
-391
-454
-775
-435
515
1788
3369
4930
5570
3503
409
-346
-129
-476
-659
-628
-546
-660
-754
-627
-925
-917
-443
-722
-872
-518
-444
-739
-733
-275
-319
-397
-427
-519
-457
-511
-359
-192
-423
-302
-31
-22
277
120
85
278
414
857
736
705
921
849
714
516
441
318
360
385
56
-170
-221
-299
-185
28
-297
-577
-333
-236
-199
-266
-633
-538
-266
-285
-561
-452
-194
-496
-496
-189
-224
-301
-230
-416
-342
-42
-120
-257
-210
-156
-405
-296
31
-190
-405
-33
152
-103
49
169
229
400
429
332
10
67
240
-238
-488
-253
-428
-523
-335
-551
-626
-315
-658
-840
-257
-276
-630
-780
-762
-78
1125
2634
4563
5940
4927
1786
-77
-237
-479
-374
-445
-591
-514
-838
-701
-631
-955
-767
-583
-677
-706
-521
-448
-630
-579
-476
-439
-412
-430
-293
-567
-694
-255
-212
-308
-38
146
77
158
279
427
611
655
614
545
746
970
698
420
675
780
565
407
200
54
-102
-250
-172
114
-70
-486
-479
-243
-147
-534
-437
-327
-427
-156
-198
-320
-475
-412
-184
-277
-312
-203
-194
-243
-220
-296
-394
-192
-68
-235
-168
-50
-216
-75
22
-319
-115
137
113
355
432
399
453
248
98
144
42
-293
-401
-112
-229
-514
-455
-373
-454
-366
-504
-669
-354
-431
-706
-567
-626
-209
1286
2908
4522
5986
4957
1438
-144
-4
-217
-323
-581
-591
-504
-723
-805
-641
-577
-738
-677
-442
-441
-666
-669
-550
-544
-515
-515
-349
-448
-603
-476
-273
-67
-249
-308
-58
30
-153
269
561
290
545
677
698
855
823
761
680
536
572
649
567
546
201
42
211
-60
-278
-213
-122
-316
-411
-37
-293
-474
-135
-294
-475
-327
-208
-132
-143
-267
-197
-218
-146
-90
-326
-374
-392
-168
51
-194
21
-123
-323
24
15
120
112
-15
59
53
55
168
443
799
556
132
455
638
59
-75
29
-241
-444
-397
-142
-137
-556
-629
-312
-504
-524
-325
-349
-463
-518
-128
901
2739
4747
6051
5456
2408
89
-237
-510
-201
20
-344
-581
-717
-507
-539
-713
-731
-722
-359
-198
-413
-361
-312
-498
-516
-333
-342
-422
-346
-51
117
-301
-359
189
240
162
175
90
523
745
653
829
867
1031
1085
898
999
979
840
576
459
686
499
326
397
184
32
162
67
-46
85
39
-202
-193
-84
-168
-79
74
-34
-22
-3
-26
75
73
-13
18
85
21
-10
91
-34
2
232
-22
101
289
230
308
229
181
285
407
406
614
728
577
606
727
739
446
122
226
450
117
-171
-10
-130
-231
0
-25
-205
-169
-241
-357
-250
-331
-200
561
1649
3477
5446
6342
4640
1405
187
221
35
34
-320
-579
-244
-226
-691
-655
-280
-333
-545
-459
-356
-406
-167
-394
-527
-237
-390
-215
-162
-272
-75
-79
-90
51
141
200
277
195
305
602
465
530
840
1094
1209
732
854
1324
1174
792
458
658
571
304
415
71
-130
-33
-154
-218
-85
119
-112
-475
-372
-174
-170
-194
-159
47
-39
-366
-368
-319
-211
-90
-200
-387
-354
-126
-147
-143
-91
-208
-164
-89
75
108
-9
-47
-43
249
403
328
426
308
140
176
191
140
-64
-35
15
-215
-478
-636
-410
-423
-543
-284
-381
-677
-558
-610
-759
-580
-333
678
2462
4179
5420
5397
2787
83
-372
-428
-502
-547
-681
-654
-607
-625
-656
-675
-714
-713
-756
-793
-537
-472
-746
-547
-525
-588
-428
-417
-415
-593
-468
-345
-449
-209
-144
-408
-72
239
158
455
636
532
699
928
679
426
712
691
419
710
714
292
14
-130
-86
-101
-122
-264
-307
-325
-601
-546
-356
-251
-112
-186
-321
-120
146
335
603
715
1177
1767
2073
2611
2963
2697
1917
1055
169
-492
-665
-866
-899
-831
-801
-852
-967
-714
-620
-619
-567
-567
-287
-78
-393
-621
-401
-462
-558
-452
-422
-445
-265
-47
-216
-250
42
16
-77
-47
-89
280
481
488
653
431
393
497
412
468
541
683
511
368
255
-51
35
-210
-441
-285
-424
-428
-437
-661
-584
-493
-729
-715
-399
-494
-820
-698
-575
-560
-470
-798
-934
-637
-503
-418
-376
-771
-1042
-796
-509
-548
-894
-848
-504
-808
-977
-467
-529
-920
-779
-694
-699
-587
-688
-839
-770
-762
-676
-630
-881
-726
-726
-854
-691
-780
-667
-467
-627
-617
-508
-593
-703
-798
-733
-658
-666
-529
-463
-743
-760
-606
-880
-679
-404
-611
-751
-613
-233
-253
-587
-611
-338
-309
-253
-34
-3
81
78
-47
-94
-98
-184
-314
-479
-347
-419
-881
-563
-239
-581
-846
-813
-715
-740
-602
-699
-887
-367
343
1673
3814
5362
5576
2995
-107
-621
-468
-397
-525
-748
-789
-935
-914
-867
-930
-706
-810
-1387
-1012
-643
-633
-524
-772
-843
-688
-658
-620
-552
-568
-464
-536
-592
-404
-235
-200
-249
-151
-37
-94
0
429
530
469
503
404
424
665
649
433
216
230
327
153
187
-41
-324
-392
-425
-265
-112
-233
-427
-262
-394
-832
-573
-205
-493
-448
-286
-388
-251
-191
-423
-542
-510
-488
-234
-129
-285
-387
-411
-203
-223
-443
-216
-224
-223
-27
11
276
229
122
121
151
329
216
-150
-424
-315
-386
-465
-356
-659
-614
-533
-726
-716
-664
-594
-653
-664
-805
-712
-152
774
2689
4743
5976
4813
1309
-551
-378
-430
-641
-599
-620
-878
-897
-683
-668
-710
-662
-842
-940
-754
-720
-661
-688
-831
-747
-539
-415
-421
-504
-622
-340
-100
-313
-339
-167
-41
88
190
141
348
529
614
560
520
867
1054
811
481
522
387
489
538
142
-152
-261
-219
-532
-573
-202
-260
-693
-562
-259
-329
-262
-410
-443
-238
-334
-599
-631
-560
-476
-302
-480
-541
-376
-306
-169
-195
-453
-368
-161
-256
-307
-248
-55
-197
-397
-156
-103
92
251
197
470
334
-29
124
237
9
-108
-279
-446
-373
-326
-596
-739
-471
-502
-488
-381
-607
-593
-377
-586
-767
-107
1235
3052
4853
5862
4592
1431
-201
-207
-547
-517
-248
-580
-619
-452
-665
-826
-902
-802
-510
-593
-816
-736
-489
-387
-561
-587
-378
-396
-475
-449
-528
-463
-314
-197
-216
-380
-227
174
410
360
442
556
472
544
622
662
770
808
762
761
629
198
226
287
109
69
-66
-107
-253
-632
-599
-363
-370
-217
-187
-374
-385
-602
-796
-258
44
-341
-361
-322
-458
-311
-206
-277
-381
-193
-259
-346
-47
-259
-367
-277
-134
115
42
-107
39
267
48
175
584
503
311
354
230
-275
-433
-310
-452
-562
-607
-456
-358
-508
-543
-574
-512
-562
-578
-661
-940
-299
1417
3197
4698
5978
5181
1699
-305
-112
-376
-553
-442
-570
-797
-756
-430
-652
-786
-560
-731
-866
-772
-577
-448
-531
-492
-520
-772
-595
-459
-719
-224
114
-110
-102
-118
54
222
58
71
319
315
533
888
727
485
697
767
838
1012
859
708
525
319
213
190
-42
-329
-228
-175
-475
-471
-350
-425
-359
-232
-433
-674
-239
-100
-356
-166
-129
-446
-382
-249
-422
-260
-104
-333
-530
-347
-65
-152
-361
-229
-35
-15
-119
-124
228
285
124
377
608
515
190
-104
73
285
60
-154
-175
-260
-509
-451
-268
-368
-461
-605
-538
-426
-632
-620
-569
-548
122
1394
2991
4480
5866
5147
1359
-493
89
-229
-448
-493
-898
-712
-695
-820
-497
-594
-866
-682
-401
-673
-792
-324
-272
-507
-494
-380
-314
-381
-569
-458
-265
-362
-268
-101
-6
25
-48
99
385
540
558
660
802
756
647
786
886
771
613
554
523
111
-133
252
136
-237
-112
-67
-220
-387
-491
-397
-206
-18
-127
-525
-434
-260
-538
-462
-92
-133
-268
-371
-359
-379
-368
-91
-67
-164
-279
-242
-262
-106
232
-139
-250
149
135
91
275
140
230
466
246
19
-16
167
306
15
-199
-198
-505
-527
-425
-397
-427
-659
-456
-255
-369
-368
-674
-834
-302
309
1631
3912
5475
5489
3378
556
-89
11
-564
-800
-626
-466
-499
-637
-704
-808
-800
-600
-502
-728
-905
-599
-462
-716
-595
-399
-332
-247
-399
-362
-479
-552
-269
-257
-262
-69
42
-70
-103
389
545
369
629
829
855
800
727
571
575
630
457
396
31
-177
58
-272
-509
-288
-160
-183
-290
-261
-429
-309
-74
-465
-511
-145
-329
-616
-355
-271
-430
-393
-536
-306
-95
-421
-231
-85
-175
-284
-396
-50
9
-291
-186
-56
-199
-271
43
522
441
312
309
275
298
98
-17
-14
-72
-68
-252
-468
-382
-480
-475
-280
-316
-487
-480
-554
-616
-435
-598
-344
617
2255
4257
5629
5654
2885
226
156
-113
-438
-383
-666
-674
-559
-535
-574
-651
-792
-764
-418
-476
-757
-694
-690
-417
-148
-301
-578
-594
-385
-532
-436
-143
-209
-206
-46
-117
-70
78
104
383
678
711
622
728
834
763
725
791
716
596
451
256
208
149
142
103
-165
-401
-350
-139
-145
-347
-370
-444
-583
-417
-150
-59
-297
-670
-244
154
-234
-360
-345
-344
-307
-214
-149
-299
-248
-48
-116
-259
-264
-213
-240
-27
140
-62
63
155
43
270
552
484
263
228
189
-66
-4
81
-29
143
142
-351
-607
-541
-468
-486
-540
-475
-429
-372
-498
-858
-781
-60
1075
3039
5261
6266
5024
1926
91
87
-36
-413
-743
-647
-527
-785
-900
-689
-568
-773
-685
-606
-583
-410
-589
-594
-508
-388
-171
-381
-390
-371
-553
-379
-382
-290
-97
-176
-84
135
148
230
482
601
660
744
1012
1089
793
448
557
1017
749
178
299
302
6
18
-5
-188
-104
-154
-614
-431
114
-131
-541
-476
-217
-181
-385
-368
-223
-248
-418
-235
-155
-332
-332
-307
-103
-52
-259
-220
-29
-133
-287
-359
-383
-277
-242
-106
-101
-360
8
324
68
96
246
57
182
651
361
164
412
302
162
6
-295
-426
-311
-312
-345
-428
-407
-316
-490
-356
-342
-518
-401
-687
-649
128
1047
2660
4631
5908
5227
2220
-190
-336
-236
-516
-396
-333
-538
-620
-645
-739
-791
-839
-784
-481
-407
-508
-519
-613
-615
-549
-499
-209
-307
-582
-467
-263
-281
-587
-234
270
83
-30
41
128
385
689
839
732
514
684
1105
894
735
898
704
367
172
206
162
-19
-138
25
-128
-302
-127
-281
-438
-660
-578
-190
-325
-602
-501
-171
-107
-372
-510
-306
-231
-223
-156
-204
-189
-502
-606
-365
-86
150
-92
-303
-267
-163
-133
-244
-32
47
-302
-172
85
51
20
140
464
456
343
468
351
103
-7
-367
-433
-201
-353
-435
-301
-502
-562
-366
-625
-715
-504
-430
-555
-583
-345
356
2122
4405
5885
5606
3072
276
-235
-40
-373
-588
-697
-530
-478
-742
-901
-689
-587
-786
-834
-628
-546
-596
-584
-457
-352
-591
-550
-234
-499
-395
-53
-392
-224
74
-304
-246
8
112
492
575
542
459
500
948
905
765
1005
832
581
677
673
502
221
29
94
188
-51
-235
-231
-341
-442
-450
-234
-237
-377
-357
-289
-254
-329
-206
-191
-342
-396
-539
-351
-219
-296
-144
-277
-513
-343
-129
-211
-79
-106
-481
-292
-14
87
2
-270
-71
105
13
111
211
271
430
459
385
283
122
68
54
-24
-281
-456
-400
-445
-347
-178
-367
-534
-429
-459
-601
-448
-438
-554
-86
760
2209
4037
5520
5778
3119
335
-140
-403
-593
-541
-587
-471
-526
-714
-544
-400
-544
-747
-765
-520
-290
-346
-524
-325
-394
-615
-353
-361
-496
-534
-417
-125
-174
-159
52
149
155
234
255
71
376
759
719
913
930
782
820
826
846
597
485
416
253
321
47
-61
161
-263
-509
8
-98
-410
-286
-407
-460
-339
-395
-308
-263
-290
-201
-317
-281
-287
-325
-153
-330
-480
-291
-130
-102
-249
-157
8
-227
-136
106
-166
-339
-211
-133
-138
-269
-68
18
-292
66
538
363
357
417
252
160
-76
27
-148
-361
-236
-604
-526
-410
-518
-370
-390
-572
-627
-498
-428
-475
-787
-741
100
1331
3164
5140
5885
4131
1064
-469
-308
-90
-301
-565
-628
-700
-958
-868
-554
-815
-1004
-641
-449
-643
-747
-802
-914
-348
-182
-553
-368
-365
-634
-560
-466
-392
-339
-252
13
-136
-153
337
471
210
445
611
555
835
838
563
600
675
546
633
507
318
97
-146
-121
-120
-173
-308
-243
-358
-533
-350
-315
-254
-297
-392
-375
-393
-362
-361
-509
-509
-250
-182
-413
-589
-363
-228
-155
-75
-208
-387
-419
-264
-243
-296
-338
-314
-405
-253
-45
-203
-414
-443
4
176
57
291
512
408
178
349
190
-45
103
-261
-441
-285
-203
-581
-838
-346
-211
-396
-468
-621
-666
-534
-453
-581
-621
-345
245
2100
4426
5703
5343
2690
304
-40
15
-262
-599
-714
-566
-728
-739
-563
-1115
-960
-390
-805
-709
-353
-576
-635
-628
-607
-524
-487
-392
-552
-563
-306
-453
-415
-180
-102
62
26
-145
143
560
507
456
548
520
795
1070
575
544
951
541
483
719
387
155
152
-31
-279
-305
-275
-377
-266
-306
-468
-256
-170
-116
-198
-421
-528
-393
-114
-245
-480
-437
-226
-156
-245
-211
-205
-515
-545
-155
-148
-71
-136
-304
-75
-212
-267
-214
-279
-226
-268
-115
-135
-194
184
328
311
505
324
-10
184
356
120
41
237
-9
-483
-517
-284
-392
-555
-324
-558
-722
-384
-227
-403
-658
-814
-640
384
1737
3567
5203
5715
4171
897
-334
97
-133
-492
-671
-576
-436
-678
-650
-436
-677
-722
-704
-802
-680
-576
-558
-636
-531
-338
-431
-614
-331
-282
-619
-271
-200
-201
132
73
-87
-51
402
505
346
656
786
715
663
928
1009
602
715
707
415
459
278
239
465
24
-218
-82
-131
-91
-278
-485
-452
-244
-196
-287
-72
-274
-675
-260
-244
-548
-97
4
-181
-123
-206
-338
-223
-219
-349
-153
-122
-314
-261
-28
-90
-343
-318
-73
-47
22
-114
-618
-244
-36
-233
260
347
52
158
327
381
324
168
217
409
125
-307
-241
-146
-293
-547
-733
-707
-378
-193
-469
-274
-271
-717
-458
-425
-599
21
1448
3377
5094
5855
4327
1056
-91
260
-259
-433
-533
-707
-557
-548
-632
-801
-825
-688
-817
-717
-389
-422
-558
-741
-634
-571
-682
-302
-443
-557
-360
-496
-186
97
-126
-364
-322
7
339
345
420
530
730
820
645
799
837
840
880
670
461
354
314
257
436
333
-42
-138
-142
-42
-227
-458
-446
-245
-131
-455
-353
-239
-497
-220
-219
-505
-201
-83
-299
-381
-302
-141
-306
-403
11
16
-274
-229
-186
-120
-28
-111
-220
-144
-133
-400
-303
161
182
3
238
528
518
296
227
499
483
-125
-310
-95
-167
-195
-434
-598
-384
-312
-472
-722
-442
-119
-400
-608
-589
-591
-596
283
2146
4016
5581
5933
3492
395
-541
-515
-350
-273
-429
-545
-682
-732
-664
-635
-692
-558
-529
-598
-587
-702
-732
-635
-476
-333
-506
-733
-617
-217
-13
-159
-83
-124
-188
50
5
39
233
371
538
544
596
739
929
961
675
700
916
772
713
569
322
283
104
-124
-265
-150
-133
-457
-657
-523
-143
-129
-491
-509
-304
-290
-317
-410
-330
-54
-201
-257
-311
-207
-243
-691
-300
-17
-176
-51
-185
-455
-299
-231
-362
-237
-92
-154
-217
-233
-128
13
-90
-27
393
567
315
201
152
132
86
-36
66
-126
-424
-760
-755
-231
-117
-313
-498
-629
-591
-368
-508
-647
-629
-870
-255
755
2058
4062
5510
5373
2733
-4
-370
-233
-623
-568
-386
-805
-632
-407
-849
-822
-622
-890
-894
-516
-568
-619
-682
-731
-525
-403
-474
-446
-392
-579
-606
-264
-206
-500
-325
119
64
-130
91
271
473
754
721
594
739
762
681
743
489
479
762
461
58
131
99
-116
-367
-368
-112
-223
-305
-360
-603
-584
-414
-384
-407
-534
-535
-298
-352
-482
-414
-450
-332
-354
-414
-174
-217
-256
-283
-419
-383
-346
-315
-218
-293
-337
-182
-1
11
-331
-405
-280
-155
133
266
490
589
232
2
-72
-145
-100
-176
-413
-517
-626
-731
-325
-255
-712
-589
-383
-555
-403
-144
-490
-984
-864
41
1327
3294
5206
5738
4129
1115
-287
-236
-227
-473
-586
-398
-773
-1075
-713
-580
-730
-815
-730
-755
-750
-563
-731
-741
-592
-626
-807
-592
-265
-346
-130
-171
-598
-318
26
-282
-191
-43
65
392
290
615
665
181
646
1072
782
651
666
460
352
422
187
-98
137
148
-197
-78
-274
-758
-448
-87
-310
-586
-568
-398
-381
-315
-294
-399
-463
-426
-333
-402
-529
-677
-571
-299
-244
-105
-59
-128
-279
-445
-266
-263
-467
-297
-169
-350
-208
-281
-263
86
-31
228
369
235
345
193
243
384
-5
-131
-120
-474
-488
-441
-532
-653
-586
-400
-591
-566
-376
-769
-879
-532
-523
-87
751
1973
3807
5423
5865
3193
48
-56
64
-360
-459
-882
-828
-469
-580
-708
-637
-643
-758
-926
-1030
-686
-415
-431
-559
-784
-741
-500
-452
-542
-321
-228
-415
-476
-446
-223
91
49
-149
-3
377
579
578
546
596
676
587
817
977
660
624
731
274
-50
129
172
-69
-266
-225
-416
-614
-418
-70
-348
-392
-221
-635
-371
-154
-456
-359
-329
-412
-419
-565
-424
-274
-249
-36
-131
-327
-414
-281
-136
-388
-340
-104
-171
-220
-190
-119
-192
-262
-9
168
338
434
-135
-78
599
278
62
267
171
-195
-508
-328
-429
-580
-248
-275
-515
-504
-546
-636
-639
-525
-606
-651
-577
-171
1214
3011
4727
5947
4894
1681
-165
-158
-222
-371
-531
-670
-756
-747
-735
-675
-622
-635
-723
-981
-762
-435
-551
-649
-490
-448
-527
-418
-478
-511
-20
-206
-612
-86
1
-390
-238
264
328
15
339
643
590
592
605
889
1044
982
726
594
576
342
384
277
-59
22
105
-140
-150
-95
-544
-598
-369
-365
-291
-278
-101
-211
-499
-376
-242
-378
-405
-111
37
-413
-467
-84
-189
-475
-491
-149
-138
-156
-93
-268
-350
-308
-201
-75
63
-47
-147
28
150
482
676
198
-97
219
436
312
-39
-109
-178
-665
-683
-183
-222
-489
-363
-511
-553
-275
-523
-731
-573
-602
-582
2
1503
3362
5202
6195
4438
1157
-162
-258
-624
-477
-402
-488
-671
-806
-502
-588
-942
-725
-549
-819
-716
-433
-357
-448
-586
-523
-449
-382
-414
-487
-414
-433
-299
-59
-46
13
60
76
370
522
447
590
802
773
679
760
613
708
1025
853
651
641
492
437
394
64
-150
-57
-320
-461
-213
-463
-226
-218
-604
-46
-51
-434
-79
-31
-269
-287
-172
-186
-407
-413
-308
-177
-190
-104
-139
-358
-276
-251
-25
-45
-126
106
7
46
73
37
81
197
435
351
269
277
320
216
118
110
-86
-191
-364
-495
-428
-416
-450
-457
-502
-395
-282
-453
-566
-455
-410
-439
208
1996
3800
5192
5814
3585
478
-188
-188
-430
-370
-526
-869
-726
-335
-373
-616
-651
-610
-747
-589
-505
-591
-500
-596
-592
-580
-580
-249
-134
-338
-483
-65
109
-284
-84
10
-38
238
360
498
700
734
780
839
792
932
1064
1007
775
476
595
678
392
192
122
47
-36
-86
-171
-277
-214
-157
-182
-385
-495
-222
-118
-95
-141
-414
-485
-208
-268
-249
29
-288
-184
70
-88
-173
-341
-151
-37
-96
116
-159
-355
48
21
-195
-141
18
225
366
422
476
558
326
25
373
242
-164
12
-144
-267
-312
-173
-214
-576
-385
-308
-448
-451
-547
-414
-354
-640
-309
600
1770
3778
5617
5728
3457
542
-315
-268
-350
-309
-449
-648
-775
-587
-593
-696
-524
-317
-360
-672
-500
-522
-691
-423
-427
-463
-404
-400
-209
-200
-553
-404
51
-121
-190
-68
-147
171
413
337
612
800
537
747
1157
893
715
812
755
578
488
535
421
107
-171
-26
-30
-171
-7
-346
-476
-42
-232
-392
-218
-259
-280
-338
-404
-412
-390
-240
-262
-224
-115
-165
-183
-312
-221
-108
-202
-39
-101
-328
-146
-86
-106
-83
-158
-43
-120
-132
-2
103
511
733
587
231
204
321
237
-83
-381
-276
-357
-365
-326
-353
-506
-448
-338
-491
-249
-406
-670
-640
-890
-622
241
1424
3135
5246
6259
4119
892
-116
94
-138
-543
-662
-508
-582
-885
-916
-682
-660
-792
-830
-820
-546
-397
-586
-511
-397
-512
-726
-714
-371
-177
-200
-392
-471
-258
-61
79
-106
-127
302
382
280
467
672
818
663
747
997
914
930
575
454
436
155
147
155
105
-42
-189
-335
-429
-182
-76
-428
-553
-243
-251
-495
-188
-126
-471
-357
-162
-248
-359
-320
-289
-208
-213
-310
-350
-480
-387
-163
-34
115
-254
-639
-207
58
-124
-168
-108
36
286
292
456
578
392
154
-34
53
5
-118
-335
-447
-372
-725
-482
26
-255
-214
-265
-731
-618
-249
-479
-1018
-752
183
1638
3598
5321
5917
3706
777
142
156
-308
-421
-411
-721
-878
-717
-842
-997
-519
-385
-636
-453
-509
-515
-389
-350
-309
-454
-607
-392
-139
-685
-696
-302
-370
-10
-53
-94
225
236
266
-87
149
978
900
762
730
680
719
770
1112
751
477
640
265
84
287
55
-177
-88
-87
-130
-198
20
-42
-606
-493
-143
-299
-198
-79
-394
-429
-216
-213
-179
-43
-212
-392
-213
-121
-177
-136
-155
-115
-26
-209
-162
-84
-291
-116
116
102
49
-182
-168
296
500
309
397
537
201
289
239
-218
27
25
-352
-283
-118
-331
-711
-476
-335
-602
-313
-314
-503
-409
-484
-571
-17
1440
2854
4531
6215
5004
1516
6
102
-212
-523
-489
-574
-828
-558
-148
-546
-1065
-610
-363
-580
-589
-655
-485
-432
-597
-484
-439
-420
-400
-519
-387
-247
-391
-285
-50
145
258
253
184
64
269
642
818
828
797
605
748
907
607
511
785
780
382
193
153
185
-26
-446
-435
-409
-409
-33
-69
-512
-447
3
-132
-289
-72
-171
-289
-617
-756
-294
-294
-238
-132
-267
-9
-171
-305
-151
-192
-149
-199
-273
-514
-326
124
-22
-44
-236
-269
195
329
324
427
424
303
210
211
237
-255
-657
-299
-386
-746
-670
-651
-502
-275
-322
-685
-765
-386
-479
-775
-610
-218
1034
3281
4973
5422
4088
1400
-47
12
-104
-467
-784
-920
-724
-751
-976
-870
-989
-873
-652
-938
-839
-726
-795
-829
-732
-543
-815
-816
-408
-522
-660
-466
-599
-640
-416
-293
-310
-279
156
170
7
249
330
339
306
477
828
546
139
345
292
-12
54
26
-123
-361
-489
-482
-579
-494
-418
-664
-780
-406
-286
-637
-856
-764
-427
-656
-808
-651
-914
-597
-396
-699
-616
-438
-457
-565
-691
-524
-488
-675
-565
-375
-724
-944
-326
-276
-354
-117
-148
77
243
24
-181
-13
149
-219
-443
-800
-1209
-581
-487
-965
-908
-772
-546
-697
-1115
-906
-662
-939
-1160
-1189
-580
686
2112
3593
5206
5511
2465
-203
-314
-466
-584
-692
-874
-994
-1293
-1341
-1260
-970
-827
-1124
-1159
-1075
-1062
-864
-892
-885
-701
-881
-890
-735
-783
-758
-680
-620
-606
-610
-795
-748
-114
-16
-134
5
-31
231
360
365
678
484
304
460
289
87
57
-8
-254
-536
-463
-237
-371
-491
-447
-653
-917
-836
-768
-599
-308
-586
-764
-635
-588
-556
-664
-594
-652
-619
-417
-607
-558
-272
-538
-878
-392
-264
-387
-292
-318
-320
-260
-101
-314
-352
-25
108
229
389
304
93
148
198
-60
-451
-553
-320
-312
-525
-430
-254
-495
-560
-398
-537
-675
-484
-545
-994
-881
-138
1299
3222
4857
6046
5020
1536
-503
-114
1
-547
-762
-898
-1050
-1028
-895
-765
-973
-963
-701
-720
-609
-491
-510
-705
-801
-464
-196
-217
-411
-556
-435
-221
5
-70
-306
-72
133
358
429
308
427
472
459
582
1087
1209
991
958
856
881
562
384
545
273
13
42
32
-115
-147
-278
-363
-35
-215
-267
148
-96
-342
-236
-234
-176
-165
-145
-171
-325
-172
-92
177
246
-131
-111
44
125
-11
7
145
-32
3
140
170
234
162
325
617
792
706
472
576
510
237
207
278
-10
-364
-224
-220
-250
-160
-324
-287
-143
-375
-514
-218
-351
-554
-59
632
1838
3687
5278
5970
4385
1233
-63
83
-169
-352
-188
-176
-292
-267
-371
-400
-400
-199
-242
-538
-240
-115
-274
-295
-92
139
-69
-263
-59
22
113
339
190
-28
24
217
358
508
685
676
656
957
1167
1200
1207
996
1029
1131
997
809
847
873
508
448
450
226
193
45
13
45
-58
-116
-222
-183
24
-103
-229
-40
48
-66
-170
-12
-13
-100
-136
-127
-68
-82
-52
-20
-139
22
322
255
114
-36
14
123
87
148
343
477
544
470
393
270
195
558
451
26
-53
-240
-305
-319
-325
-319
-398
-238
-272
-446
-533
-434
-191
-497
-719
23
1480
3464
5206
5962
4497
1319
-79
6
-334
-569
-368
-384
-663
-556
-415
-523
-555
-685
-762
-437
-518
-693
-377
-283
-419
-511
-459
-335
-423
-454
-175
6
-55
-266
-147
235
138
74
320
422
492
658
632
707
908
846
957
905
695
637
565
623
619
401
32
-13
15
-173
-89
-119
-398
-387
-234
-81
-319
-594
-259
-136
-266
-188
-351
-451
-136
-131
-344
-419
-384
-257
-396
-218
104
-133
-171
-59
-171
-29
151
-93
-122
-17
-105
45
378
398
190
438
478
166
72
126
227
35
-174
-330
-674
-495
-150
-320
-477
-614
-593
-429
-362
-312
-467
-566
-270
800
2747
4572
5650
5215
2328
-107
-158
-206
-551
-491
-379
-452
-750
-732
-397
-419
-596
-681
-736
-793
-664
-484
-802
-697
-355
-522
-255
-283
-627
-195
-261
-344
-235
-324
90
20
-188
-12
33
209
358
593
857
851
899
853
632
540
624
585
549
397
125
139
-94
-236
-157
-139
17
-182
-396
-478
-520
-300
-259
-312
-216
-338
-512
-339
-429
-544
-127
-200
-476
-372
-256
-337
-565
-192
128
-289
-342
-51
-45
-338
-341
-60
-168
-143
239
381
52
151
606
374
234
319
46
-88
-129
-327
-439
-395
-374
-560
-524
-330
-362
-368
-352
-488
-785
-678
-661
-488
904
2292
3820
5756
6061
3282
298
-52
-44
-448
-608
-489
-401
-790
-817
-722
-741
-485
-512
-851
-974
-552
-277
-557
-633
-543
-499
-463
-651
-731
-398
-178
-300
-281
-265
-288
-79
-189
-106
267
533
549
373
665
796
767
892
773
533
519
719
510
156
250
162
-221
-194
17
-206
-459
-169
21
-219
-386
-326
-538
-718
-197
-163
-409
-228
-405
-592
-267
-78
-260
-359
-467
-388
-269
-313
-144
-178
-336
-283
-354
-42
117
-168
-49
104
107
241
368
399
460
247
53
232
334
133
-151
-315
-348
-355
-473
-557
-301
-305
-708
-465
-278
-466
-304
-552
-987
-603
377
1671
3598
5390
6068
4161
738
-333
-243
-539
-439
-658
-820
-722
-717
-703
-802
-680
-595
-764
-806
-675
-638
-672
-533
-375
-363
-612
-719
-439
-289
-525
-537
-184
-349
-387
-123
-77
77
113
136
433
507
461
616
699
683
764
859
677
558
418
184
242
204
-59
-143
-177
-35
-200
-630
-309
-201
-521
-453
-374
-336
-217
-436
-504
-386
-587
-437
-244
-315
-292
-431
-477
-405
-417
-453
-477
-274
-139
-119
-224
-355
-267
-243
-260
-108
-81
-235
-274
-78
13
109
243
139
238
62
-105
71
145
66
-424
-445
-190
-350
-559
-616
-467
-538
-626
-419
-423
-716
-890
-623
-319
-149
705
2511
4361
5502
5029
2119
-163
-314
-310
-274
-238
-564
-699
-669
-870
-745
-609
-918
-822
-619
-604
-470
-709
-703
-475
-620
-720
-741
-516
-369
-327
-422
-459
-73
-202
-351
-142
9
113
49
105
277
515
668
514
647
878
624
451
543
374
128
319
252
-197
-83
-134
-373
-311
-379
-457
-500
-350
-386
-515
-321
-381
-518
-466
-632
-602
-525
-416
-192
-511
-500
-509
-596
-264
-418
-366
-197
-245
-215
-235
-178
-239
-283
-535
-538
-139
-55
-236
-453
76
434
26
131
324
137
119
66
-115
-322
-481
-409
-460
-662
-634
-518
-773
-830
-497
-600
-675
-610
-661
-805
-650
247
1662
3480
5051
5602
3708
634
-221
109
-392
-863
-782
-715
-648
-837
-901
-698
-806
-656
-606
-788
-754
-720
-569
-474
-587
-742
-744
-439
-225
-541
-662
-351
-294
-398
-450
-299
-133
-169
37
210
301
521
559
463
428
673
784
568
622
593
287
254
149
150
196
-119
-200
-169
-201
-566
-731
-211
-233
-397
-316
-511
-535
-418
-274
-406
-789
-415
-83
-526
-485
-226
-349
-161
-173
-446
-344
-245
-184
-357
-549
-391
-187
-211
-411
-453
-304
-177
-124
-95
-260
9
361
220
378
540
395
273
121
105
39
-269
-266
-411
-726
-602
-424
-479
-491
-441
-478
-669
-602
-433
-739
-751
-459
184
1593
3435
4981
5789
4308
946
-353
159
83
-555
-941
-754
-582
-675
-826
-1128
-891
-364
-460
-663
-732
-688
-671
-509
-377
-640
-729
-564
-380
-356
-209
-231
-480
-431
-274
-120
-110
-59
15
180
378
515
742
519
641
1071
593
594
934
763
627
310
156
404
254
-269
-188
-46
-110
-375
-703
-131
46
-430
-261
-120
-264
-309
-441
-316
-342
-496
-363
-331
-198
-213
-621
-472
-200
-492
-340
-119
-165
-36
-52
-241
-313
-302
-226
-306
-299
-99
-376
-155
412
-165
-317
441
592
362
394
222
-71
233
435
124
-328
-499
-341
-348
-449
-538
-319
-155
-501
-552
-337
-403
-641
-723
-580
-370
213
1405
3274
5151
5867
4357
1308
-74
74
-196
-692
-743
-621
-787
-701
-600
-564
-552
-655
-648
-798
-899
-506
-305
-441
-567
-584
-344
-477
-551
-400
-503
-510
-335
-267
-207
-42
-113
-127
36
368
730
534
372
734
768
677
848
886
892
805
587
212
25
68
198
356
-233
-462
-96
-315
-422
-266
-242
-277
-271
-266
-495
-534
-226
-201
-345
-226
-276
-346
-326
-401
-294
-254
-173
-52
-318
-421
-253
-168
-61
-151
-379
-377
-139
-91
-201
-153
-242
-317
-67
-76
-228
131
417
318
347
479
286
229
475
209
-317
-548
-403
-73
-200
-454
-405
-454
-706
-650
-440
-525
-513
-466
-674
-755
-223
914
2609
4494
5911
5341
2208
-90
-251
-364
-539
-604
-682
-516
-479
-667
-742
-722
-662
-665
-763
-725
-486
-505
-775
-686
-464
-539
-458
-351
-580
-463
-374
-586
-320
73
163
56
-1
48
256
491
383
444
647
629
749
847
960
980
708
548
439
122
-39
321
183
-220
-64
-147
-119
-15
-305
-388
-431
-498
-357
-292
-482
-608
-239
-48
-443
-504
-243
-172
-218
-177
-34
-250
-575
-254
-18
-271
-190
32
-241
-324
-40
-134
-230
-65
-40
-145
-172
-98
-26
-75
-119
-79
196
480
602
440
120
64
45
-109
-482
-326
-65
-331
-431
-586
-506
-320
-504
-590
-425
-371
-475
-678
-825
-457
288
1311
3082
5087
5768
4087
1035
-355
-51
-234
-603
-605
-591
-723
-716
-655
-617
-560
-772
-879
-730
-616
-513
-409
-643
-615
-363
-593
-514
-371
-544
-596
-385
-128
-239
-294
-182
-108
22
56
254
483
531
503
525
816
827
644
730
710
478
496
575
239
158
312
138
-162
-367
-269
-336
-388
-332
-522
-450
-251
-433
-670
-372
-295
-393
-130
-307
-452
-191
-119
-312
-512
-338
-266
-409
-276
-344
-339
-140
-198
-328
-398
-53
-35
-520
-149
187
-233
-362
-211
-100
-26
147
361
214
188
315
355
320
-80
-173
-134
-464
-520
-486
-583
-651
-582
-393
-389
-557
-686
-517
-521
-795
-498
96
1107
2932
4743
5941
4715
1316
-361
-193
-139
-361
-588
-698
-824
-566
-380
-754
-958
-695
-522
-519
-524
-664
-448
-543
-784
-463
-441
-720
-633
-369
-326
-315
-262
-214
-362
-312
153
168
4
400
497
260
450
670
700
762
764
639
641
588
395
449
341
82
280
240
-386
-262
170
-233
-507
-339
-263
-225
-486
-836
-545
-149
-193
-272
-277
-251
-312
-330
-343
-368
-115
-306
-512
-91
-80
-463
-360
-55
244
866
1183
1145
854
910
1349
458
-829
-1328
-1255
-696
-313
-399
-216
85
-72
-15
295
351
113
-167
-253
8
25
-391
-196
189
-94
-255
67
82
-63
138
262
251
402
503
581
904
1160
1338
1512
1439
1455
1636
1779
2033
1990
1701
1756
1690
1389
1454
1427
1194
1232
1029
655
410
125
13
-48
-130
-188
-449
-645
-413
-346
-587
-543
-336
-334
-399
-358
-289
-316
-596
-589
-438
-638
-650
-543
-556
-648
-691
-612
-579
-676
-629
-291
-494
-593
-453
-758
-484
-335
-673
-538
-526
-615
-649
-522
-568
-935
-522
-265
-627
-567
-489
-754
-757
-425
-379
-400
-435
-560
-380
-522
-531
-398
-759
-777
-432
-201
-381
-414
-232
-468
-572
-442
-297
-174
-361
-266
-39
33
237
245
247
259
394
315
-36
20
-145
-436
-401
-324
-285
-584
-543
-307
-518
-587
-625
-400
-288
-673
-729
-232
538
1590
3114
4912
5802
4112
994
-518
-357
-245
-546
-695
-668
-618
-707
-727
-544
-910
-775
-558
-784
-549
-486
-577
-681
-688
-686
-608
-401
-602
-622
-383
-471
-306
94
-201
-410
-13
50
-3
181
139
316
528
473
620
510
655
954
637
687
949
603
447
539
224
149
227
-119
-182
70
-107
-426
-353
-155
-133
-132
13
-177
-368
-103
-216
-408
-41
-59
-208
-11
-275
-418
-182
4
116
-209
-276
22
-281
-215
167
-98
-92
-94
-155
46
-62
5
79
283
684
454
410
474
138
-142
-207
-9
-132
-360
-285
-425
-572
-513
-492
-261
-156
-599
-685
-515
-736
-924
-478
598
2283
4330
5931
5574
2549
156
-41
-190
-385
-420
-763
-865
-677
-629
-917
-890
-596
-662
-676
-595
-563
-576
-583
-498
-446
-588
-564
-413
-334
-120
-156
-525
-731
-263
78
-235
-145
354
565
546
455
495
749
1043
1101
1020
945
595
533
711
671
403
169
217
-22
-60
52
-397
-500
-29
-121
-483
-410
-337
-460
-319
-178
-351
-356
-429
-367
-195
-241
-171
-286
-391
-455
-382
-136
-344
-299
-195
-340
-311
-341
-278
-31
-20
-190
-37
-186
-258
260
339
102
325
497
186
39
130
41
-222
-205
-99
-234
-521
-603
-490
-549
-347
-489
-682
-213
-392
-628
-587
-729
-107
889
2355
4148
5447
5443
2670
30
-164
-357
-686
-502
-571
-680
-635
-568
-539
-660
-890
-788
-535
-738
-759
-538
-579
-522
-440
-447
-412
-442
-457
-479
-325
-265
-228
-175
-183
-105
-298
-72
305
222
281
592
571
513
880
914
862
935
884
764
391
209
319
305
115
-60
-320
-358
-166
-319
-148
-103
-562
-544
-264
-251
-248
-255
-386
-372
-360
-379
-289
-234
-256
-194
-284
-436
-373
-316
-207
-170
-325
-285
-91
-118
-114
37
-124
-269
-131
-185
173
528
175
320
487
176
200
211
-170
-203
-261
-445
-478
-491
-340
-474
-475
-596
-760
-451
-399
-412
-355
-526
-571
26
1549
3415
5101
5847
4062
945
-172
-365
-577
-305
-647
-744
-491
-743
-884
-745
-685
-552
-698
-763
-674
-762
-491
-518
-708
-706
-757
-504
-304
-265
-459
-595
-256
-239
-379
-282
-273
-3
359
296
237
380
581
831
704
356
591
748
578
659
416
64
213
318
-179
-457
-19
-5
-330
-226
-312
-534
-501
-549
-449
-282
-555
-546
-307
-480
-569
-450
-427
-514
-354
-208
-353
-457
-588
-601
-289
-97
-184
-372
-359
-72
-185
-483
-358
-309
-156
243
274
157
276
382
32
-85
98
114
40
-344
-446
-456
-532
-627
-635
-269
-243
-516
-605
-622
-519
-448
-734
-903
-716
38
1459
3189
5132
6127
4259
792
-435
14
-135
-376
-643
-789
-741
-862
-844
-714
-809
-999
-888
-690
-560
-578
-632
-553
-750
-591
-329
-606
-645
-636
-532
-430
-400
-163
-369
-463
-262
-96
144
228
435
436
276
517
724
734
632
600
590
344
297
369
186
32
92
109
-296
-430
-256
-473
-421
-353
-536
-462
-498
-524
-521
-482
-232
-586
-628
-87
-278
-644
-484
-62
-507
-522
-94
-367
-97
-107
-363
-270
-445
-487
-341
-259
-94
-41
-128
-190
-86
102
47
194
425
396
323
229
109
-54
-207
-511
-489
-231
-454
-671
-605
-738
-757
-419
-522
-540
-343
-776
-753
-155
590
2249
4016
5442
5751
3042
126
-68
18
-794
-849
-498
-736
-699
-448
-587
-689
-578
-677
-683
-622
-832
-744
-517
-627
-512
-534
-645
-357
-544
-440
-148
-274
-222
-248
-290
-109
11
116
105
277
518
425
681
685
408
657
821
684
591
537
566
283
65
192
-173
-207
89
-189
-504
-429
-241
-291
-333
-573
-641
-191
-154
-446
-398
-369
-435
-219
-241
-396
-314
-356
-357
-389
-417
-187
-296
-410
-120
-224
-490
-284
-53
-107
-203
-227
-239
-204
3
172
-80
-79
333
565
498
270
192
201
136
-31
-288
-395
-467
-630
-316
-329
-588
-341
-357
-497
-449
-509
-505
-622
-868
-259
772
2104
3951
5340
5707
3533
441
-314
-263
-524
-638
-539
-437
-540
-603
-712
-691
-570
-717
-836
-645
-430
-482
-628
-617
-542
-452
-459
-433
-36
-54
-471
-454
-242
-188
-124
53
13
131
300
305
416
618
901
745
656
906
964
731
453
572
734
602
240
26
130
-82
-215
-30
-188
-229
-331
-525
-114
-152
-556
-424
-340
-279
-219
-311
-316
-176
-292
-511
-412
-193
-161
-287
-221
-203
-224
-279
-243
-110
-236
-181
-285
-472
-125
139
-150
-324
-1
215
272
267
291
407
573
478
242
150
-95
-154
-273
-382
-433
-684
-510
-286
-504
-661
-461
-266
-381
-516
-487
-513
-627
-519
854
2800
4301
5582
5361
2628
245
-71
-391
-776
-594
-491
-623
-588
-749
-754
-453
-711
-824
-528
-775
-833
-430
-506
-485
-404
-542
-657
-524
-276
-465
-326
-125
-246
-120
-133
-297
-81
185
188
280
477
645
745
878
955
724
700
859
555
346
524
500
307
85
-113
-155
-218
-223
-171
-280
-424
-285
-51
-192
-493
-562
-336
-141
-275
-414
-328
-251
-376
-344
-265
-327
-179
-253
-244
-76
-432
-357
-4
-180
-112
-98
-281
-120
-64
-366
-236
146
-94
-106
369
545
415
327
224
215
334
215
17
-267
-432
-366
-344
-189
-160
-441
-523
-540
-632
-611
-470
-456
-640
-592
-185
625
2365
4330
5703
5680
2832
18
-378
-222
-234
-431
-683
-612
-500
-405
-521
-758
-568
-595
-768
-406
-327
-613
-695
-700
-483
-377
-570
-309
-127
-290
-262
-340
-286
-108
-120
-74
131
252
253
258
319
833
1047
863
1013
978
799
910
828
457
515
741
496
231
-19
-118
119
41
-183
-208
-148
-257
-353
-203
-268
-263
-218
-560
-364
-46
-240
-195
-152
-225
-162
-252
-316
-174
-209
-239
-101
-273
-194
-120
-273
160
153
-64
11
-2
10
-54
35
140
242
391
356
195
219
300
150
154
18
-274
-169
-220
-402
-192
-260
-523
-327
-342
-583
-674
-711
-365
-405
-679
-358
468
2060
3935
5474
5602
3113
227
-247
96
-274
-723
-646
-409
-701
-687
-643
-842
-584
-463
-584
-798
-708
-377
-559
-588
-449
-443
-552
-623
-327
-313
-343
-152
-182
-167
-155
-157
108
341
350
392
319
622
782
468
796
945
767
760
537
473
601
491
490
266
-173
-182
-144
-140
-163
-345
-285
-229
-341
-114
-212
-642
-422
-268
-358
-187
-130
-373
-482
-414
-336
-176
-202
-182
-295
-440
-258
-268
-353
-239
-55
-97
-504
-355
29
-241
-350
-206
-111
44
102
62
92
251
449
511
203
88
308
155
-195
-243
-127
-233
-523
-517
-327
-339
-670
-785
-423
-408
-569
-646
-566
-491
-274
399
1607
3690
5483
5861
3666
612
2
-129
-819
-645
-480
-635
-442
-435
-758
-605
-599
-926
-789
-531
-632
-783
-666
-489
-462
-411
-381
-598
-556
-304
-324
-358
-164
-126
-435
-338
-35
148
178
141
448
614
782
897
749
799
833
685
666
677
468
393
390
281
69
-90
-28
-199
-223
-142
-428
-479
-271
-281
-335
-298
-381
-485
-242
-56
-231
-356
-443
-632
-461
13
-9
-319
-253
-107
-300
-184
96
-269
-407
-275
-270
-178
-153
-215
-33
230
-162
-292
285
321
250
540
408
159
257
451
162
-51
-235
-588
-345
-226
-324
-193
-498
-707
-345
-365
-623
-517
-386
-623
-825
-732
9
1509
3109
4858
6107
4799
1448
-163
-17
-178
-417
-683
-624
-495
-694
-735
-775
-694
-532
-574
-574
-649
-800
-584
-337
-572
-656
-536
-661
-356
-119
-585
-476
-253
-421
-117
114
163
260
171
186
265
266
568
808
826
984
857
747
815
504
313
547
398
47
57
0
-43
0
-295
-544
-349
-188
-117
-233
-390
-358
-412
-369
-331
-479
-336
-48
-282
-374
-248
-534
-656
-251
23
-105
-169
-248
-288
-218
-176
-230
-383
-417
-517
-195
177
-129
-243
-147
-43
224
224
237
379
325
334
392
394
115
-60
-340
-704
-282
-72
-250
-198
-320
-598
-597
-491
-527
-500
-292
-237
-673
-885
-163
1145
2998
4813
5796
4735
1511
-140
33
-185
-461
-472
-409
-617
-913
-795
-706
-819
-619
-416
-511
-827
-767
-540
-689
-594
-454
-354
-213
-329
-318
-463
-658
-372
-93
-50
-213
-93
152
109
210
435
445
458
618
730
975
1143
807
516
700
652
475
491
421
174
-39
-137
-214
-281
-278
-217
-288
-323
-428
-549
-379
-278
-332
-249
-74
-132
-452
-422
-213
-283
-415
-241
-157
-323
-168
-300
-652
-345
10
-59
-8
61
-137
-272
-190
-150
-390
-120
261
-92
-72
206
240
575
541
-5
-27
332
264
-71
-59
-194
-408
-432
-530
-470
-608
-693
-460
-446
-385
-247
-602
-832
-647
-321
680
2359
4293
5776
5644
2879
-3
-247
-152
-678
-553
-288
-460
-502
-619
-770
-733
-800
-602
-592
-706
-681
-541
-485
-742
-690
-631
-546
-310
-340
-377
-295
-356
-354
-155
-41
121
238
132
267
296
255
565
441
389
851
966
784
630
818
990
557
203
186
128
-100
-176
-179
-318
-289
-322
-190
-284
-882
-434
-3
-362
-622
-638
-348
-258
-311
-490
-404
-95
-273
-478
-439
-367
-242
-351
-378
-184
-180
-189
-238
-419
-325
-182
-333
-376
-104
3
-146
53
267
110
247
508
397
315
317
149
-140
-199
-207
-340
-475
-523
-539
-496
-482
-615
-665
-613
-544
-612
-498
-516
-759
-56
1497
3187
4696
5705
4647
1391
-385
-135
-309
-746
-706
-590
-711
-927
-927
-578
-450
-781
-796
-558
-453
-418
-541
-777
-768
-707
-654
-305
-296
-394
-477
-528
-330
-278
-139
93
7
-161
-23
254
454
374
314
649
866
773
784
783
700
651
636
500
356
126
-226
-221
-140
-26
-98
-298
-252
-463
-612
-345
-174
-402
-438
-141
-413
-597
-327
-402
-512
-299
-169
-278
-278
-134
-274
-498
-265
-165
-330
-214
-108
-253
-355
-206
-11
-9
-167
-271
-45
211
223
192
223
410
405
217
146
105
-10
-371
-394
-257
-487
-651
-456
-154
-302
-563
-515
-385
-464
-545
-654
-935
-677
219
1453
2950
4828
6107
4524
1225
-269
-93
-171
-461
-429
-489
-779
-820
-727
-660
-709
-914
-1062
-835
-536
-558
-565
-497
-440
-552
-617
-492
-352
-220
-341
-425
-387
-404
-386
-306
-92
129
170
229
320
565
713
557
725
952
814
695
774
487
273
379
161
-11
85
2
-324
-304
-144
-311
-529
-237
-9
-251
-479
-506
-329
-385
-351
-149
-242
-604
-652
-304
-253
-336
-428
-466
-113
-22
-348
-481
-417
-84
-8
-366
-395
-295
-75
-75
-377
-176
-120
-160
232
423
366
423
391
285
330
410
-102
-516
-288
-439
-605
-508
-382
-487
-820
-660
-330
-378
-533
-447
-511
-937
-510
433
1762
3956
5493
5716
3670
540
-324
-78
-451
-790
-678
-498
-567
-582
-682
-937
-773
-504
-700
-738
-718
-694
-546
-626
-653
-591
-451
-461
-623
-536
-226
-329
-575
-345
-172
-16
2
11
161
75
409
716
496
616
709
593
770
868
598
527
800
580
20
-35
140
5
-322
-281
-137
-306
-375
-493
-421
-295
-273
-251
-410
-214
-236
-381
-219
-440
-319
-46
-353
-454
-238
-165
-262
-285
-357
-387
-264
-260
-189
-149
-130
-59
-281
-241
78
13
-50
112
176
267
592
453
223
373
-7
-178
-92
-289
-220
-565
-741
-158
-196
-601
-741
-569
-367
-439
-400
-516
-948
-791
28
966
2930
5043
5873
4961
1732
-192
80
-99
-333
-625
-948
-857
-732
-608
-574
-751
-683
-628
-705
-602
-613
-678
-665
-657
-676
-505
-377
-532
-685
-425
-134
-288
-195
-11
-255
-212
-34
-40
334
502
352
473
575
573
732
845
780
825
760
424
385
411
231
12
-139
-59
-323
-476
-139
-147
-308
-530
-384
-200
-212
-142
-255
-412
-508
-358
-392
-396
-163
-171
-504
-577
-183
-82
-220
-337
-300
-98
-245
-390
-269
-301
-328
-208
-182
-74
29
-132
-70
35
-75
40
534
643
326
158
49
12
97
-176
-530
-359
-320
-349
-217
-378
-631
-644
-596
-458
-377
-395
-430
-858
-805
-241
910
3192
5126
6080
4898
1654
-120
75
-301
-528
-284
-747
-717
-468
-815
-823
-785
-933
-686
-584
-793
-619
-336
-385
-678
-614
-400
-628
-527
-261
-411
-546
-437
-142
-47
-160
-234
-163
135
216
400
643
363
629
959
614
732
853
787
622
553
648
396
84
-117
47
65
-171
20
-108
-462
-293
-341
-329
-289
-710
-541
-132
-140
-427
-406
-102
-281
-397
-265
-251
-95
-146
-294
-384
-496
-221
-488
-554
115
-46
-283
-86
-103
-201
-241
108
280
-44
-25
192
215
143
239
366
257
132
-106
-323
-345
-377
-464
-430
-552
-616
-426
-551
-557
-610
-861
-625
-545
-849
-983
-303
1226
2858
4656
5855
4612
1581
-277
-500
-516
-855
-883
-432
-669
-1126
-1107
-1064
-897
-941
-1069
-1038
-1126
-874
-600
-657
-778
-838
-916
-833
-633
-652
-711
-560
-392
-512
-653
-551
-394
-221
-103
-135
83
493
483
365
452
410
272
444
568
318
143
189
-14
-382
-300
-333
-485
-487
-653
-572
-460
-732
-769
-747
-857
-573
-557
-733
-652
-665
-780
-962
-757
-700
-993
-526
-284
-694
-641
-565
-714
-738
-529
-543
-670
-469
-633
-619
-463
-697
-622
-501
-436
-215
-222
-353
-184
255
264
-171
-247
-390
-456
-519
-612
-384
-736
-957
-831
-797
-703
-781
-1020
-1033
-919
-1047
-950
-951
-994
-625
266
2184
4133
5462
5171
2111
-454
-735
-662
-779
-1086
-1043
-878
-979
-1027
-1304
-1142
-685
-1007
-1347
-1010
-749
-894
-966
-878
-1044
-892
-635
-802
-848
-675
-540
-653
-757
-618
-418
-458
-352
8
-99
-177
93
361
374
368
550
534
492
579
533
347
335
280
-74
-375
-372
-485
-664
-375
-113
-278
-466
-661
-746
-570
-565
-545
-608
-586
-325
-389
-488
-716
-690
-466
-497
-448
-344
-229
-318
-334
-225
-427
-412
-296
-468
-430
-230
-177
-206
-176
-104
-71
14
168
112
187
453
357
194
207
142
-108
-363
-480
-514
-421
-325
-512
-681
-500
-316
-386
-683
-674
-410
