538
521
455
-145
-404
-247
-332
-513
-375
-254
-511
-488
-241
-477
-619
-301
-265
-474
-363
-108
-424
-605
-177
-262
-468
-183
-144
-501
-303
-36
-339
-331
-258
-268
-102
-6
-96
-225
-161
83
-106
-321
100
46
-171
50
41
-125
-46
28
-112
-58
219
109
-107
151
25
-197
108
115
-253
-244
97
-118
-351
-124
-106
-200
-118
-87
-279
-264
-48
-231
-421
-80
-34
-372
-206
-25
-225
-188
-50
-154
-294
-214
-2
-128
-174
58
-118
-214
28
-155
-233
113
1
-259
-95
43
-156
-264
-73
-75
-196
-89
-58
-238
-195
-74
-296
-242
21
-175
-303
-95
-92
-303
-183
31
-179
-206
146
-110
-350
29
-7
-302
-214
-54
-141
-181
-54
-229
-234
148
133
32
145
141
-1
126
362
328
275
409
319
36
185
156
-139
-41
18
-161
-308
-197
-203
-426
-225
11
-238
-289
11
-183
-554
22
1073
2199
3826
4777
3902
2466
1622
863
475
522
116
-315
-242
-233
-448
-401
-154
-350
-589
-329
-239
-424
-363
-208
-448
-501
-128
-278
-425
-113
-315
-565
-142
-23
-431
-331
16
-198
-316
-112
-161
-287
-118
60
-89
-158
0
-63
-173
96
202
-83
-16
221
48
-48
141
128
7
10
119
64
36
225
25
-215
71
96
-188
-54
-20
-227
-170
-118
-260
-304
-138
-184
-287
-60
-101
-367
-143
6
-358
-262
41
-180
-322
-100
18
-293
-178
108
-247
-158
53
-205
-180
39
-25
-271
-158
103
-94
-132
86
-127
-298
-102
-23
-169
-197
-3
-153
-344
-129
-98
-262
-165
-23
-194
-143
4
-207
-274
-23
-92
-253
-43
-71
-313
-136
-6
-355
-271
16
-111
-178
-48
56
-37
12
123
-89
-107
189
226
75
236
185
-104
150
255
-79
-132
-124
-439
-431
-90
-186
-410
-322
-178
-326
-414
-168
-244
-491
-483
-67
963
2563
4065
4320
3411
2307
1227
450
430
231
-259
-377
-267
-414
-604
-264
-308
-654
-517
-458
-615
-496
-314
-457
-498
-343
-414
-583
-426
-211
-517
-553
-173
-369
-377
-59
-233
-415
-165
-88
-454
-369
31
-222
-331
-18
-168
-255
32
41
-201
-9
248
-35
-238
46
186
-142
-22
257
-65
-67
231
-14
-92
59
-125
-180
10
-61
-394
-188
75
-167
-288
-75
-117
-341
-125
4
-212
-253
-60
-205
-320
-5
-97
-392
-158
-4
-201
-113
22
-169
-273
-47
-117
-344
3
22
-335
-113
72
-186
-204
79
5
-176
-20
-34
-282
-248
2
-163
-310
-33
-173
-285
29
-41
-278
-118
82
-160
-306
-26
-88
-298
-146
-112
-294
-259
-27
-210
-390
22
-29
-311
-13
-50
-194
-51
87
94
-164
15
125
-97
260
302
107
436
457
125
45
171
68
-163
-83
-20
-242
-251
-106
-316
-407
-128
-203
-299
-32
-53
-473
-308
676
1763
3121
4543
4448
3049
2112
1136
330
479
279
-136
-136
-168
-428
-528
-307
-268
-472
-444
-250
-465
-571
-216
-259
-593
-450
-214
-359
-323
-191
-349
-373
-261
-265
-270
-84
-122
-391
-183
55
-304
-397
88
68
-180
10
53
-76
51
68
-148
18
254
69
-129
117
298
-26
40
274
92
84
180
32
34
221
38
-158
-17
-35
-153
-160
-44
-30
-197
-114
-59
-218
-99
-49
-250
-210
-84
-121
-212
-88
21
-150
-145
-48
-313
-257
125
59
-256
-167
129
-241
-237
98
-206
-157
132
-28
-182
-67
13
-99
-140
-64
-90
-238
-266
-43
-76
-24
26
-298
-176
-37
-237
-181
-28
-152
-280
-103
-40
-225
-202
-87
-247
-262
-5
-104
-359
-206
-62
-241
-186
2
-166
-263
31
146
-178
-103
140
-77
94
400
165
171
387
175
-25
143
120
-240
-266
-87
-212
-286
-92
-246
-648
-410
-104
-308
-267
-109
-409
-527
172
1193
2491
4092
4640
3589
2291
1454
694
265
316
92
-399
-392
-264
-499
-523
-332
-525
-636
-358
-416
-577
-461
-402
-507
-500
-333
-371
-464
-317
-241
-429
-379
-164
-345
-329
-143
-349
-358
-168
-184
-277
-92
64
-388
-240
287
-163
-242
194
15
-105
133
63
-75
47
150
70
-25
179
188
-34
174
211
-70
15
144
-19
-159
-65
-66
-186
25
53
-276
-192
21
-303
-383
8
-1
-256
-105
16
-248
-243
-73
-169
-246
-25
-46
-251
-92
-49
-218
-110
19
-135
-291
-94
83
-199
-153
23
-230
-166
75
-218
-352
23
-2
-223
-32
52
-278
-248
55
-201
-272
81
-106
-382
-88
49
-208
-167
8
-151
-271
-157
-29
-164
-154
92
-147
-254
23
-110
-308
-107
-73
-243
-56
-16
-307
-171
65
-47
-89
161
99
-171
138
332
94
287
516
252
159
360
149
-162
64
40
-344
-263
-13
-236
-432
-97
-183
-401
-121
-144
-231
-241
-363
76
1372
3055
4362
4491
3599
2370
1217
622
594
388
-92
-162
-215
-420
-277
-320
-532
-395
-272
-480
-528
-225
-286
-569
-338
-131
-417
-330
-80
-335
-415
-184
-212
-424
-276
-71
-252
-254
-73
-195
-225
-54
-119
-231
-80
129
-48
-48
258
56
-176
22
156
20
99
234
2
112
325
80
65
179
176
188
168
135
-30
-22
77
-65
-189
-31
31
-223
-180
24
-106
-126
23
-228
-291
147
58
-293
-93
22
-260
-139
96
-185
-126
37
-110
-97
51
46
-165
-119
80
-72
-202
56
-69
-244
110
86
-261
-166
42
-144
-98
111
-94
-195
-80
9
-160
-160
138
-101
-261
-39
-173
-186
-30
-43
-157
-83
40
-240
-225
90
-26
-282
-74
44
-169
-82
84
-43
-104
171
193
-144
23
236
71
233
436
214
188
444
307
31
126
165
-160
-187
-6
-262
-322
-4
-113
-255
-137
-168
-309
-157
-23
-426
-309
765
2076
3539
4727
4411
2804
1663
1133
567
343
223
-121
-307
-283
-326
-398
-371
-279
-381
-494
-283
-345
-541
-314
-282
-421
-351
-185
-258
-389
-149
-167
-341
-154
-163
-364
-215
-138
-186
-196
12
83
-162
68
177
-115
-47
204
52
-66
165
139
-25
99
168
125
160
242
160
74
299
244
-5
143
206
8
-44
41
-37
-146
32
-42
-267
-104
-84
-241
-151
30
-66
-225
-54
12
-194
-119
46
-161
-186
77
-79
-302
95
221
-111
-16
78
-75
-98
74
33
-87
105
34
-194
30
78
-264
-74
188
-46
-129
31
-16
-173
-10
75
-168
-72
79
-147
-181
30
-35
-278
-39
39
-260
-196
0
-33
-132
26
-96
-262
44
76
-146
-12
210
27
-54
206
0
-146
306
450
270
390
476
66
-20
269
35
-86
44
-89
-257
-173
-68
-257
-325
-266
-287
-278
-73
-11
-347
-406
-26
756
2157
3854
4677
3908
2690
1610
659
512
488
-94
-443
-214
-156
-468
-356
-357
-680
-477
-247
-379
-511
-341
-308
-609
-549
-422
-527
-343
-179
-400
-450
-205
-356
-602
-289
-98
-429
-330
-20
-235
-307
-95
-196
-328
-70
31
-171
-138
-18
-59
22
106
32
-140
7
199
-50
3
225
20
-120
107
106
-101
6
108
-148
-255
-12
-134
-336
-63
-44
-466
-294
67
-324
-300
52
-141
-329
-112
-6
-260
-132
-31
-317
-252
-47
-253
-309
-19
-180
-390
-80
78
-138
-180
-9
-111
-222
-23
-62
-257
-115
-34
-215
-284
-111
-179
-302
-32
-116
-308
-162
-112
-358
-346
-24
-312
-435
-176
-222
-192
-106
-224
-385
-216
-89
-305
-373
-191
-186
-423
-320
-133
-316
-272
-80
-230
-225
38
5
-149
-5
127
-29
64
260
18
-154
15
-10
-240
-290
-237
-317
-346
-196
-408
-492
-217
-435
-615
-385
-285
-381
-475
-479
-249
747
2505
3984
4348
3597
2354
1166
534
440
181
-250
-450
-370
-493
-559
-463
-596
-484
-275
-571
-718
-382
-401
-587
-453
-394
-535
-546
-342
-318
-563
-507
-340
-384
-304
-307
-544
-491
-179
-215
-379
-205
-219
-482
-246
-11
-230
-252
-105
-184
-286
22
50
-249
-10
152
-108
-251
35
85
-14
187
95
-174
-98
-54
-361
-223
150
-176
-429
-77
-154
-568
-423
-240
-450
-410
-161
-341
-526
-294
-196
-472
-402
-126
-348
-383
-98
-317
-471
-151
-265
-558
-314
-221
-498
-316
-105
-293
-336
-162
-177
-370
-261
-185
-373
-291
-68
-252
-378
-115
-267
-498
-217
-142
-338
-282
-182
-419
-482
-114
-41
-369
-415
-88
-216
-340
-105
-243
-346
-152
-208
-446
-225
25
-258
-356
-119
-223
-332
-119
-134
-163
91
81
-172
-162
77
68
-42
270
477
117
103
203
-172
-46
132
-259
-295
-77
-274
-487
-324
-208
-327
-376
-137
-175
-390
-237
-415
-504
600
2035
3236
4356
4189
2917
1802
1024
600
302
78
-10
-297
-436
-295
-479
-535
-310
-401
-530
-435
-350
-456
-514
-391
-431
-471
-309
-395
-476
-227
-205
-405
-390
-186
-323
-383
-94
-229
-396
-195
-161
-289
-91
109
-21
-95
56
105
-49
159
357
-72
-13
343
29
-34
337
237
105
366
363
175
228
181
77
93
114
57
-144
-133
42
-80
-150
80
-49
-199
63
23
-262
-119
116
-178
-295
174
6
-239
202
-12
-328
31
22
-173
-37
38
-43
-100
25
8
-83
107
78
-88
-43
131
162
67
68
-46
-51
59
93
-56
-191
51
-10
-218
110
106
-275
-13
206
-131
-88
124
-130
-197
52
101
-70
-60
81
-93
-189
-27
8
-141
57
123
-220
-79
147
-170
-207
234
81
-153
217
256
-56
102
388
68
79
617
430
44
301
460
33
-46
170
-87
-225
-87
-146
-255
-86
-41
-381
-258
-8
-225
-242
-150
-374
-18
1301
2745
3989
4628
3867
2254
1284
916
532
284
153
-50
-372
-270
-186
-603
-438
-36
-285
-488
-292
-256
-402
-308
-254
-463
-346
-239
-380
-279
-113
-215
-468
-183
-4
-392
-357
-45
-98
-225
27
33
-324
-139
139
-107
-83
200
-42
-166
191
221
-35
108
321
96
59
305
46
-125
406
476
-18
63
286
-8
-109
99
-125
-323
26
-24
-284
-51
-73
-457
-294
68
-146
-332
-150
-69
-377
-398
70
-195
-341
17
-176
-330
-164
-73
-240
-253
-102
-179
-212
-108
-200
-325
-72
0
-337
-224
57
-154
-213
63
-105
-343
-42
22
-208
-77
61
-137
-182
-2
-149
-244
-16
-101
-293
-76
136
-105
-126
133
-106
-246
103
-24
-248
-48
-25
-111
-34
87
171
67
76
237
85
79
221
296
318
390
469
314
384
400
170
182
240
6
-184
-1
-21
-208
-4
46
-184
-54
-6
-249
-113
107
-224
-294
749
2153
3444
4743
4664
3032
1829
1245
742
476
299
-57
-290
-113
-13
-298
-364
-149
-224
-334
-185
-241
-443
-229
-63
-214
-346
-199
-98
-301
-111
-86
-297
-6
43
-272
-223
69
-89
-278
48
83
-201
-22
121
-53
21
229
99
-34
242
347
44
74
361
140
28
359
278
22
242
326
140
214
213
21
57
195
5
-178
28
43
-229
-151
-20
-220
-147
61
-100
-214
11
-21
-240
-106
3
-126
-164
43
2
-208
-64
1
-140
-105
8
-82
-108
93
14
-145
-15
-18
-122
-24
53
-107
-118
152
-29
-228
63
47
-246
-33
108
-406
-221
234
-116
-273
17
-10
-284
-130
70
-202
-251
-67
-160
-200
-61
-52
-262
-156
92
-109
-110
169
60
-43
77
84
-19
109
369
228
103
264
156
-129
-78
5
-248
-207
19
-300
-492
-168
-159
-398
-249
-164
-365
-297
-288
-524
-187
902
2075
3394
4600
4139
2516
1555
1042
415
196
101
-302
-299
-97
-379
-660
-442
-308
-521
-603
-425
-417
-568
-348
-370
-620
-354
-193
-421
-361
-366
-459
-397
-330
-142
-341
-282
-61
-411
-355
8
-107
-294
-145
-72
-174
-43
58
-130
-59
148
-17
-78
222
224
-165
-99
275
127
76
307
108
-48
201
140
-108
-8
-25
-183
-194
-29
-43
-291
-138
41
-357
-334
84
-166
-284
-61
-154
-228
-116
-144
-299
-129
-30
-239
-188
-24
-127
-251
10
101
-351
-191
199
-112
-98
126
-36
-49
103
76
-24
64
114
-89
-113
20
-196
-306
-14
-181
-448
-248
-113
-321
-491
-244
-292
-477
-206
-177
-424
-386
-259
-368
-514
-350
-192
-286
-243
-196
-155
75
255
173
239
364
281
246
398
387
123
202
251
78
-1
-67
-102
-104
-78
-38
-225
-284
-126
-301
-283
-30
-224
-519
-389
56
809
2307
3986
4408
3618
2660
1491
594
601
338
-182
-128
-84
-466
-592
-226
-315
-572
-508
-488
-498
-421
-278
-371
-461
-319
-311
-476
-419
-308
-406
-372
-192
-266
-415
-178
-191
-389
-161
-212
-455
-188
5
-268
-241
41
-59
-165
48
-5
-190
48
147
24
43
191
134
15
164
180
115
153
157
44
-34
33
-34
-77
-14
-105
-125
-75
13
13
-57
5
-120
-224
-63
-139
-321
-145
-72
-232
-190
7
-58
-205
-80
-171
-249
5
126
-65
-252
-60
18
-297
-148
102
-161
-100
-8
-180
-92
-8
-105
-177
-110
-28
-261
-306
98
-206
-304
168
-63
-256
-49
-130
-369
-153
134
-125
-304
-42
-56
-237
-172
-131
-151
-117
-40
-146
-265
-96
-128
-240
-55
-22
-143
32
129
-104
-92
197
202
106
320
260
38
310
325
24
-120
-97
-121
-242
-69
-182
-417
-230
-118
-257
-316
-121
-232
-413
-183
-412
-565
590
2189
3280
4287
4277
2860
1688
1006
726
434
34
-81
-345
-473
-355
-490
-615
-511
-461
-491
-508
-406
-483
-556
-327
-388
-561
-342
-371
-569
-308
-235
-489
-410
-138
-260
-445
-234
-102
-311
-282
-116
-279
-247
-42
-30
-205
-145
84
-128
-92
207
19
-46
182
130
9
74
161
22
144
313
-25
-47
290
106
-264
-56
151
-98
-146
-7
-160
-203
-78
-173
-228
-81
-191
-288
-97
-76
-121
-164
-79
-95
-368
-165
19
-217
-237
-122
-107
-214
-121
22
-278
-231
70
-197
-225
-6
-159
-190
18
-54
-297
-180
11
-212
-293
-9
-95
-206
36
-111
-310
-81
-51
-271
-248
19
-122
-318
-98
-193
-263
-71
-138
-276
-170
-118
-235
-153
-33
-224
-291
-15
19
-196
-89
7
-195
-102
179
-40
-178
157
234
61
91
325
279
116
328
287
-23
52
158
-132
-217
-116
-322
-299
-63
-151
-367
-176
7
-442
-410
60
-393
-460
689
1738
3083
4614
4471
3023
1876
1161
535
377
362
-124
-436
-243
-247
-558
-477
-226
-482
-536
-236
-445
-681
-399
-315
-474
-342
-179
-458
-612
-220
-206
-421
-336
-199
-285
-264
-60
-286
-323
-10
-222
-317
-40
-23
-79
-73
105
63
-166
106
237
-42
112
227
-50
67
320
117
134
364
161
-41
178
354
116
41
80
-28
-21
40
-50
-223
-5
100
-208
-165
26
-326
-460
69
83
-191
-61
-5
-204
-243
-13
-132
-266
-60
-141
-312
-102
54
-133
-124
51
-125
-195
46
-72
-180
50
3
-227
-86
62
-164
-181
91
-104
-305
-39
-112
-217
23
63
-133
-150
-33
-136
-205
-14
8
-211
-160
-11
-162
-175
10
-104
-263
-124
-55
-261
-183
112
-60
-195
128
123
-160
20
221
100
96
339
338
140
295
289
36
155
135
-166
-110
-45
-280
-263
-131
-237
-343
-196
-97
-339
-328
-37
-244
-495
237
1432
2667
4226
4642
3357
2147
1409
601
300
339
-7
-262
-272
-317
-525
-494
-253
-456
-577
-392
-475
-558
-329
-328
-504
-372
-399
-520
-296
-90
-314
-489
-300
-191
-201
-219
-112
-254
-384
-89
-106
-283
-93
-21
-209
-103
122
-68
-183
126
99
-118
38
182
79
78
254
8
-142
190
88
-90
105
109
-108
-83
27
-153
-184
18
-56
-254
-153
-159
-230
-106
-71
-167
-342
-178
-49
-278
-172
-133
-415
-262
-14
-271
-389
-110
-186
-435
-245
-161
-301
-113
13
-243
-248
77
4
-330
-166
76
-275
-323
35
-204
-327
-100
-135
-273
-174
-85
-342
-331
-130
-262
-359
-215
-217
-404
-228
-38
-356
-388
-155
-296
-339
-120
-94
-286
-281
-144
-266
-199
-9
-155
-203
-62
-121
-189
18
156
37
257
315
-175
-103
151
-44
-265
-219
-150
-443
-467
-231
-415
-517
-352
-328
-400
-348
-308
-535
-528
-29
701
2084
3751
4309
3549
2559
1610
473
168
218
-275
-521
-406
-396
-480
-444
-405
-542
-526
-338
-524
-592
-350
-425
-561
-473
-420
-515
-452
-258
-456
-587
-263
-327
-577
-365
-280
-382
-388
-325
-265
-357
-327
-322
-283
-17
-35
-181
-101
-83
-131
-82
49
20
-179
13
153
-185
-84
259
93
-3
154
49
-56
28
-95
-170
-60
-14
-232
-418
-158
-246
-488
-112
-33
-446
-379
-57
-299
-429
-141
-206
-304
-211
-209
-380
-420
-176
-184
-340
-235
-296
-429
-106
-74
-407
-198
-15
-332
-299
-16
-258
-413
-168
-112
-204
-370
-398
-271
-365
-442
-323
-306
-308
-295
-473
-435
-210
-341
-518
-269
-320
-536
-280
-236
-503
-456
-228
-436
-546
-218
-322
-590
-354
-118
-403
-520
-115
-4
-226
-177
-67
-224
-134
117
-94
-139
274
109
-160
160
-70
-504
-150
-90
-427
-382
-273
-489
-624
-335
-304
-514
-431
-339
-464
-684
-558
-28
865
2313
3733
4283
3608
2325
1175
560
515
228
-346
-293
-217
-678
-620
-395
-803
-697
-370
-580
-631
-562
-541
-593
-514
-432
-678
-584
-336
-570
-616
-355
-332
-654
-606
-262
-564
-596
-218
-320
-473
-241
-237
-468
-211
-53
-274
-331
-120
-132
-330
-120
14
-252
-105
-3
-271
-124
-37
-161
-71
32
-7
-193
-120
1
-357
-315
42
-237
-437
-236
-348
-506
-214
-101
-454
-434
-218
-405
-468
-194
-247
-430
-300
-232
-346
-336
-186
-334
-394
-143
-185
-421
-260
-47
-334
-373
-261
-298
-157
-96
-245
-290
-84
-60
-326
-341
-173
-334
-353
-156
-274
-462
-285
-116
-381
-274
-42
-294
-359
-173
-184
-372
-330
-197
-364
-385
-173
-325
-506
-165
-26
-384
-312
-82
-280
-387
-226
-189
-357
-109
94
-210
-85
62
-158
-89
-35
-43
188
353
176
-108
37
161
-260
-339
-93
-247
-360
-273
-298
-453
-374
-243
-448
-509
-241
-255
-575
-519
4
904
2366
4025
4464
3534
2439
1283
564
524
235
-193
-233
-343
-626
-542
-425
-519
-559
-435
-410
-629
-582
-383
-562
-531
-234
-557
-657
-393
-519
-468
-297
-262
-389
-405
-239
-400
-550
-218
-225
-511
-227
-101
-365
-311
-34
-40
-281
-97
59
-139
2
132
-80
-47
160
8
-85
79
88
-38
87
217
-11
-155
-41
-38
-189
-43
57
-391
-348
30
-255
-290
-7
-189
-363
-191
-188
-425
-222
78
-120
-247
-121
-191
-313
-117
-93
-292
-104
-100
-308
-119
25
-170
-241
-4
29
-197
-141
15
-208
-330
-75
-44
-309
-65
122
-204
-180
-15
-100
-204
-98
-55
-166
-67
-47
-255
-143
8
-170
-172
-80
-250
-263
-4
20
-186
-162
-10
-86
-120
3
-7
-151
-12
54
-170
15
248
109
54
153
113
113
325
498
309
200
309
66
-140
9
2
-128
14
41
-183
-185
-5
-189
-388
-30
-15
-269
-89
-239
-426
471
1872
3104
4381
4563
3121
1783
1177
757
359
79
-54
-291
-371
-257
-495
-530
-261
-307
-464
-377
-236
-410
-485
-233
-254
-482
-386
-298
-458
-352
-133
-342
-420
-110
-195
-391
-174
-107
-376
-299
74
-120
-206
103
-71
-294
-73
109
-73
23
272
16
-26
222
155
-47
145
247
-73
69
264
-2
13
296
181
-192
-87
178
-77
-121
54
-154
-186
1
-85
-195
-143
-79
-198
-280
-69
-153
-246
54
67
-228
-167
72
-184
-130
182
-152
-231
61
-104
-218
24
48
-184
-185
-27
-256
-303
37
-95
-251
-80
-124
-207
-122
-24
-201
-389
-65
-36
-350
-82
-8
-349
-270
-98
-285
-349
-74
-236
-403
-38
-73
-307
-208
-153
-291
-299
-112
-43
-81
-26
6
-177
-91
156
-52
-61
347
267
-172
5
222
-263
-283
80
-266
-435
-204
-329
-461
-380
-310
-360
-263
-165
-470
-437
-395
-587
-30
1253
2751
3950
4291
3363
1942
1056
660
310
-61
-136
-220
-523
-504
-450
-517
-499
-446
-443
-589
-525
-412
-558
-595
-411
-617
-610
-148
-370
-700
-331
-213
-500
-419
-277
-413
-410
-182
-279
-442
-251
-119
-223
-193
-34
-222
-256
-40
-75
-146
-52
92
-48
-40
104
-132
-183
196
133
-146
261
179
-321
-16
139
-124
-143
1
-150
-404
-187
-176
-397
-152
7
-287
-396
-165
-175
-307
-183
-152
-259
-223
-119
-236
-289
-148
-252
-280
-85
-57
-249
-180
41
-152
-317
-144
-25
-195
-146
-46
-221
-101
31
-206
-252
16
-49
-297
-130
-52
-331
-208
13
-189
-252
-9
-150
-419
-178
-27
-191
-145
-56
-238
-198
5
-170
-336
-139
-104
-308
-267
-99
-253
-352
36
43
-195
59
102
-207
8
373
110
71
463
338
53
115
106
-163
-134
73
-247
-413
-146
-200
-382
-209
-152
-382
-287
-167
-354
-359
-311
-263
389
1858
3364
4243
4180
3050
1755
889
668
470
-88
-155
-178
-513
-471
-302
-532
-642
-464
-638
-770
-451
-354
-606
-560
-329
-505
-596
-370
-431
-638
-439
-329
-594
-415
-187
-445
-451
-292
-262
-340
-424
-169
-178
-190
27
-112
-166
25
-37
-207
3
119
-47
20
67
-84
16
261
77
-126
233
315
-61
-81
77
-38
-56
44
-175
-255
-75
-155
-361
-270
48
-86
-315
-97
-89
-305
-123
-91
-394
-123
-4
-342
-281
-114
-279
-317
-48
-93
-332
-133
-28
-269
-224
-54
-147
-314
-159
-57
-241
-129
-22
-232
-217
-17
-117
-308
-91
-1
-273
-222
-73
-341
-441
-11
57
-301
-141
-24
-311
-277
-88
-195
-276
-175
-197
-242
-189
-88
-201
-284
-68
-124
-302
-94
-33
-125
85
112
-235
-135
293
140
107
411
219
119
234
119
83
115
169
6
-256
-55
-129
-431
-210
-196
-442
-263
-33
-246
-397
-139
-270
-639
-132
1017
2322
3816
4616
3852
2543
1638
843
340
239
114
-231
-351
-147
-486
-678
-217
-374
-568
-316
-348
-489
-396
-274
-480
-579
-325
-313
-458
-258
-121
-400
-448
-162
-249
-338
-82
-94
-297
-211
-158
-258
-84
77
-91
-64
132
-91
-226
92
153
-102
0
301
135
-82
125
92
-31
281
341
95
112
231
28
-39
133
-87
-228
-70
12
-195
-262
-1
-70
-227
-160
-126
-250
-142
49
-173
-216
-53
-163
-192
4
-98
-288
-46
40
-105
-94
2
-121
-205
102
-3
-161
166
100
-248
-20
223
9
-61
111
113
-128
-45
86
-220
-126
106
23
-24
-43
9
9
-46
-65
-116
-86
76
-76
-237
48
95
-210
-92
120
-108
-64
126
-93
-159
7
-104
-190
29
191
4
52
336
162
-12
221
354
207
380
547
266
211
374
229
-77
-30
-65
-237
6
-24
-369
-240
102
-124
-402
-70
11
-235
-284
-321
151
1420
2984
4241
4496
3698
2409
1184
746
669
244
-14
22
-272
-621
-295
-189
-482
-309
-181
-423
-472
-260
-348
-459
-171
-233
-443
-323
-260
-425
-360
23
-104
-384
-210
-180
-366
-174
20
-306
-228
132
-118
-206
42
11
-42
9
142
196
72
302
192
-80
342
340
-73
148
430
118
144
440
216
49
202
146
-80
44
167
-180
-261
-10
-79
-140
46
-58
-210
9
41
-172
-175
19
-60
-262
-48
-15
-188
-4
22
-121
-92
-1
-52
-49
169
86
-150
-2
-19
-161
-53
132
52
-142
94
130
-145
-97
70
-76
-88
204
54
-229
3
82
-254
-99
94
-179
-133
66
-96
-262
47
104
-212
-89
107
-54
-102
171
147
-87
61
263
135
165
446
235
45
339
344
345
467
378
286
312
409
161
-6
197
100
-125
-24
-13
-212
-152
13
-171
-174
77
-288
-325
146
-134
-213
910
2468
3764
4548
4122
2613
1590
1154
683
346
162
25
-244
-364
-148
-192
-414
-210
-151
-450
-333
-151
-269
-312
-207
-248
-362
-155
-115
-302
-235
-189
-328
-368
-218
-250
-482
-153
51
-310
-236
-5
-77
21
210
-7
-167
63
204
29
79
285
51
33
356
271
57
155
257
130
204
394
263
78
221
231
-55
39
94
-174
-54
89
-139
-171
-154
-215
-124
-52
25
-227
-273
115
-146
-237
96
-77
-268
-17
19
-199
-61
77
-143
-283
140
140
-257
109
289
-93
-3
202
-11
-69
33
-18
-86
70
89
-183
17
190
-198
-159
260
78
-167
111
139
-119
-152
-8
-142
-235
50
-64
-215
70
156
-75
-112
155
39
6
383
313
40
215
325
108
258
484
265
232
403
87
-94
292
316
-105
-123
75
-129
-258
-103
-173
-284
16
127
-187
-123
13
-371
-384
551
1602
2894
4490
4574
3134
1984
1301
645
355
362
50
-296
-163
-53
-361
-421
-221
-417
-530
-242
-183
-466
-462
-212
-323
-291
-124
-405
-450
-148
-191
-333
-78
-45
-354
-193
-32
-278
-162
145
-62
-228
-51
10
12
150
269
98
-57
242
357
25
183
370
137
195
374
235
185
418
345
107
274
366
13
88
406
127
-125
57
94
-27
181
230
-117
-28
246
-73
-185
256
238
-102
25
265
-12
-26
246
-9
-194
202
99
-218
244
332
-110
26
346
35
-40
322
212
19
256
217
-78
170
243
-12
45
176
67
-55
106
139
-88
3
305
35
-91
201
15
-110
168
145
-101
-3
191
-16
-124
103
24
-74
154
338
110
93
416
163
127
419
380
235
359
640
392
320
496
285
114
166
113
29
9
-73
-139
-44
71
-154
-108
158
-10
-158
-79
-182
-339
463
1941
3227
4411
4710
3506
2042
1317
891
609
437
303
-51
-285
-11
-107
-331
-123
-97
-292
-174
-28
-200
-324
-111
-117
-296
-65
10
-256
-150
104
-195
-317
63
-97
-330
20
32
-253
-120
26
-126
-124
101
56
-114
116
295
25
13
247
156
90
284
285
146
375
476
198
264
492
286
169
318
124
-43
182
170
-177
-76
140
-90
-71
158
17
-181
41
84
-243
-34
217
-110
-174
59
-65
-214
59
104
-141
-178
-18
126
-188
-129
171
-83
-36
53
-164
-40
147
-31
-175
48
151
-74
63
169
-286
-219
315
79
-233
-23
37
-74
-25
101
-73
-91
-3
-251
-58
209
-22
-147
20
-68
-354
-89
141
-74
-264
-98
22
-174
-23
174
-11
-27
206
14
-44
267
254
57
241
355
72
177
250
1
-31
49
-161
-344
-150
-98
-259
-294
-179
-286
-464
-144
-34
-463
-594
-281
555
1975
3590
4484
4105
3164
1943
864
685
645
-19
-296
-76
-352
-564
-291
-361
-671
-490
-299
-474
-479
-390
-436
-494
-338
-396
-589
-421
-306
-419
-371
-225
-414
-469
-255
-238
-403
-348
-184
-402
-439
-44
-13
-115
-44
-227
-302
117
226
-156
-65
179
-29
-13
293
235
-19
97
305
158
131
331
11
-156
260
253
-106
-151
43
-171
-282
25
-143
-284
-37
-82
-301
-197
37
-198
-255
58
-138
-295
-45
-89
-271
-83
14
-217
-148
0
-105
-148
0
-28
-271
-104
69
-182
-113
169
-36
-199
-21
30
-157
-159
83
-50
-166
33
-13
-185
-122
5
-87
-44
132
-126
-320
-6
-2
-212
-8
65
-121
-42
1
-78
-92
-165
-88
-58
60
81
-352
-133
237
-54
-64
143
98
61
194
150
37
255
282
200
346
323
149
170
375
178
-214
112
215
-249
-221
-10
-205
-373
-135
-2
-202
-257
-26
-87
-301
-273
112
1206
2871
4317
4528
3628
2499
1198
647
853
300
-192
-11
-59
-380
-332
-211
-389
-368
-217
-348
-467
-276
-265
-450
-324
-189
-375
-407
-162
-288
-371
-98
-277
-497
-246
-44
-270
-336
-76
-149
-239
-70
-40
-159
-112
-20
-14
-12
23
15
-41
135
271
31
107
232
-35
84
383
192
-20
200
278
58
-42
106
-36
-205
21
-91
-318
-141
-125
-277
-85
-12
-256
-196
-22
-212
-272
-129
-252
-314
-168
-18
-192
-381
-87
-75
-308
-67
79
-175
-142
12
-157
-224
5
-21
-281
-51
84
-280
-167
8
-209
-119
-10
-194
-148
69
8
-216
-77
45
-228
-190
41
-97
-201
-89
-60
-184
-178
-15
-196
-319
39
-13
-279
-51
48
-205
-154
18
-235
-151
48
-194
-68
103
-72
-84
79
223
91
42
415
291
-104
188
190
-153
-8
-33
-321
-224
0
-181
-392
-107
-54
-396
-286
-59
-228
-397
-379
-42
864
2173
3744
4580
4031
2859
1541
831
769
311
-145
14
-4
-365
-389
-241
-447
-479
-139
-271
-493
-141
-104
-436
-303
-138
-283
-301
-91
-184
-357
-200
-230
-316
-62
-54
-253
-123
64
-73
-151
-43
4
21
48
144
36
-27
127
120
42
207
233
39
172
337
186
164
360
275
122
301
388
116
99
350
15
-138
163
-20
-247
-180
-173
-285
-266
-49
-107
-254
-108
-193
-388
-257
-165
-347
-295
-86
-245
-329
-180
-235
-419
-223
-5
-267
-243
-117
-337
-250
-23
-132
-206
-24
0
-237
-178
-47
-232
-227
-38
-93
-258
-107
-39
-255
-96
66
-231
-246
-88
-249
-284
-74
-89
-326
-159
-63
-346
-201
104
-196
-410
-104
-35
-209
-150
42
-111
-196
149
61
-193
18
215
177
206
384
105
-85
315
188
-207
-20
15
-374
-291
-98
-397
-426
-146
-172
-418
-349
-137
-293
-378
-316
-386
385
2108
3490
4296
4147
2960
1642
899
728
406
35
-111
-316
-457
-231
-320
-601
-292
-206
-525
-426
-206
-376
-479
-282
-254
-385
-385
-301
-411
-384
-154
-353
-464
-194
-227
-515
-376
-321
-495
-274
-57
-237
-329
-152
-166
-327
-109
168
-139
-228
70
44
-110
10
95
-76
1
149
-113
-45
209
50
-75
100
129
-345
-255
69
-242
-368
-224
-246
-340
-253
-128
-394
-429
-102
-346
-456
-93
-261
-482
-183
-144
-364
-285
-147
-334
-400
-111
-100
-314
-221
-24
-204
-243
-28
-230
-326
-30
-194
-451
-113
8
-301
-187
54
-256
-458
-205
-148
-357
-249
-37
-296
-310
-23
-247
-342
-135
-277
-315
-97
-173
-428
-270
0
-250
-448
-80
-109
-454
-237
-101
-272
-277
-108
-11
-94
4
44
-212
51
299
46
207
360
0
-42
217
41
-211
-128
-148
-367
-305
-77
-230
-387
-207
-279
-563
-252
54
-308
-473
-335
93
1360
2957
4102
4350
3554
2291
1126
667
666
193
-194
-105
-261
-496
-377
-343
-457
-397
-309
-477
-479
-169
-264
-481
-309
-215
-487
-481
-133
-333
-524
-153
-187
-400
-178
-254
-401
-223
-104
-169
-217
-23
-30
-177
2
145
-54
-34
216
67
-92
248
302
124
345
320
60
93
395
424
208
382
392
132
219
240
-109
-85
268
13
-217
52
-14
-245
-152
-53
-190
-95
201
-75
-318
14
-26
-333
-129
20
-226
-164
35
-134
-258
-9
-20
-283
-117
40
-156
-117
83
-123
-158
79
-61
-219
-21
89
-139
-197
81
-35
-231
-6
-8
-281
-171
40
-264
-201
57
-237
-260
107
79
-306
-163
24
-236
-169
51
-85
-302
-107
-59
-314
-152
15
-243
-330
-6
-89
-245
57
67
-81
82
154
1
-22
-27
168
277
377
436
72
202
319
-105
-97
117
-170
-385
-154
-199
-385
-240
-168
-306
-270
-2
-197
-352
-247
-375
45
1396
2910
4022
4493
3789
2379
1244
775
483
168
61
-86
-407
-431
-196
-459
-598
-230
-399
-728
-294
-118
-494
-444
-255
-437
-430
-204
-391
-513
-359
-316
-406
-441
-240
-284
-459
-298
-206
-353
-223
-46
-346
-403
-47
-76
-242
-99
4
-102
-48
95
-27
-20
241
115
-70
165
182
14
134
213
-14
-22
217
-18
-170
119
-48
-399
-135
26
-251
-234
-139
-317
-354
-61
-97
-364
-206
-68
-327
-380
-113
-215
-300
-114
-85
-283
-459
-236
-150
-198
-1
-114
-218
-40
-92
-301
-83
105
-238
-229
94
-96
-244
-3
-40
-193
-79
-13
-250
-216
77
-165
-277
-46
-71
-152
-88
-71
-202
-150
52
-133
-274
-17
-34
-186
-61
33
-160
-250
-86
-38
-190
-31
90
-261
-142
96
-159
-61
145
-2
43
229
145
-10
151
252
145
235
455
359
55
196
320
44
35
135
-172
-353
-21
-82
-334
-62
-24
-279
-104
0
-353
-362
-303
-299
574
2140
3667
4520
4137
3043
1807
841
768
540
-104
-74
-51
-386
-349
-220
-460
-551
-400
-352
-439
-429
-272
-404
-387
-209
-384
-441
-302
-298
-368
-289
-229
-390
-307
-183
-334
-329
-164
-191
-252
-105
-128
-370
-153
-25
-305
-100
185
40
-96
146
255
-83
33
355
89
43
315
200
100
224
247
17
26
197
-90
-151
87
-81
-271
-138
-117
-213
-142
-76
-270
-264
19
-73
-264
-138
-113
-265
-233
-69
-165
-266
1
-129
-399
9
-23
-485
-111
173
-146
-216
-7
-104
-274
10
47
-225
-90
-80
-220
-100
17
-70
-187
-176
-158
-168
-52
33
-147
-180
-14
-178
-317
-9
-82
-293
-145
-64
-221
-288
23
-102
-430
-155
-15
-244
-167
9
-267
-320
20
-82
-273
-82
60
-90
-54
128
-17
-59
164
29
-88
283
275
98
387
390
34
49
218
-2
-259
-150
-77
-264
-185
-22
-289
-324
-131
-240
-326
-140
-154
-754
-442
915
2105
3652
4785
4122
2711
1815
1064
484
287
127
-150
-281
-192
-357
-528
-317
-338
-535
-346
-262
-431
-387
-194
-375
-564
-196
-162
-587
-323
-111
-498
-320
-49
-264
-293
-124
-173
-339
-195
-9
-172
-189
23
-30
-139
10
24
-96
87
306
53
-80
232
168
29
222
247
95
93
307
253
132
310
198
20
128
152
-58
1
126
-98
-86
36
-103
-281
-68
116
-140
-125
82
-118
-103
168
-101
-188
120
77
-143
-9
208
-106
-145
100
-38
-97
79
194
29
52
142
-65
-35
82
-70
-118
101
120
-120
-42
103
-158
-182
112
14
-219
-60
78
-92
-175
-63
-138
-243
-11
-152
-365
9
42
-203
-107
-46
-126
-161
-89
-197
-247
80
225
24
38
131
-32
39
366
224
-5
395
350
-5
194
166
-106
-143
9
-91
-338
-271
-248
-305
-276
-210
-298
-366
-113
-163
-513
-386
50
900
2607
4221
4450
3377
2187
1290
617
452
359
-117
-304
-199
-471
-522
-330
-417
-544
-436
-389
-570
-412
-276
-587
-549
-133
-296
-598
-248
-170
-465
-362
-208
-367
-385
-205
-244
-267
-117
-153
-344
-177
29
-161
-244
-77
-88
-230
35
165
-178
-63
196
-3
-19
148
29
7
150
113
-7
127
200
-54
-111
32
-110
-319
-127
37
-141
-170
-70
-192
-357
-164
-67
-433
-306
-18
-256
-176
50
-275
-373
-86
-158
-406
-270
8
-215
-279
-50
-131
-205
-44
-67
-248
-91
5
-251
-223
-34
-238
-295
-37
-78
-213
-101
-141
-310
-194
-85
-220
-360
-160
-101
-486
-258
-51
-375
-210
-58
-366
-346
-47
-242
-412
-167
-166
-390
-320
-102
-199
-318
-169
-107
-210
-84
12
-161
-98
19
-101
6
213
211
190
332
249
-25
93
208
-120
-327
-37
-163
-442
-96
-40
-364
-303
-117
-263
-356
-140
-240
-603
-262
651
1817
3380
4552
4110
2891
2044
1027
346
425
287
-350
-343
-117
-359
-410
-306
-426
-554
-360
-370
-605
-587
-404
-495
-567
-420
-590
-577
-269
-298
-522
-506
-324
-487
-539
-275
-363
-480
-323
-263
-416
-441
-166
-205
-346
-76
-169
-342
14
124
-181
-153
78
-74
-122
190
100
-122
90
130
-60
14
73
-1
-79
10
11
-276
-100
-17
-328
-244
-57
-205
-315
-79
-113
-416
-277
-73
-267
-252
-50
-199
-299
-91
-121
-478
-331
-32
-217
-196
-42
-243
-292
-67
-89
-285
-140
-51
-311
-175
43
-181
-336
-80
35
-218
-179
-43
-262
-248
-21
-190
-283
-11
-105
-422
-229
-87
-276
-174
-25
-231
-295
-58
-129
-340
-94
-32
-317
-155
63
-146
-314
-140
-137
-295
-49
35
-149
18
95
-79
-60
182
226
0
190
420
60
-12
287
135
-63
70
-139
-340
-39
-24
-405
-379
9
-200
-427
-85
-196
-451
-241
-288
-366
543
2098
3350
4304
4308
2957
1662
973
707
450
85
-50
-373
-499
-267
-390
-539
-403
-432
-614
-503
-260
-506
-607
-412
-531
-585
-359
-327
-583
-498
-261
-417
-581
-345
-264
-428
-311
-200
-366
-354
-162
-244
-319
-107
-160
-378
-146
14
-215
-251
-34
-110
-112
92
-102
-170
155
186
-152
-20
147
-175
-148
174
36
-257
-119
2
-333
-364
-9
-242
-318
-74
-190
-343
-198
-130
-427
-297
-45
-267
-396
-200
-234
-385
-246
-93
-203
-328
-125
-181
-309
-13
-54
-361
-239
-32
-207
-200
-9
-144
-205
-116
-111
-245
-251
-121
-257
-181
-23
-287
-375
-81
-48
-380
-319
-52
-194
-308
-122
-152
-386
-213
-42
-324
-337
-56
-191
-276
-78
-135
-352
-250
-194
-379
-185
-75
-303
-265
-33
-147
-322
-7
12
-288
-42
72
-3
175
269
148
115
297
193
-24
28
52
-154
-212
-58
-208
-397
-214
-149
-390
-224
-74
-437
-336
-70
-413
-484
463
1761
3025
4361
4522
3121
1873
1187
635
502
377
-103
-390
-245
-190
-432
-506
-338
-417
-446
-344
-413
-465
-426
-356
-409
-328
-132
-315
-510
-264
-243
-393
-210
-124
-317
-297
-109
-262
-312
-125
-122
-168
23
141
-90
-78
166
-4
-124
181
139
-85
155
241
-18
-1
260
241
129
330
302
90
233
299
37
99
292
14
-180
159
136
-205
61
133
-200
-107
122
-62
-216
38
-11
-206
23
102
-174
-176
66
-79
-77
196
105
-166
-30
168
-44
19
126
-14
-51
107
156
-85
-84
35
-55
43
253
37
-119
144
135
-127
-32
76
-125
-33
172
-9
-132
36
3
-309
-110
218
-77
-206
36
-57
-126
110
66
-116
-78
13
-97
-121
135
76
-79
159
165
-17
218
328
125
295
520
309
200
347
258
-56
-10
195
-60
-222
-48
-206
-283
-30
-185
-377
-107
8
-238
-139
-142
-394
145
1474
3058
4252
4496
3673
2230
1209
894
628
148
-5
-15
-381
-372
-238
-446
-312
-155
-489
-565
-174
-137
-349
-340
-240
-376
-388
-147
-234
-359
-176
-209
-377
-135
-35
-253
-236
-59
-112
-251
-24
14
-278
-120
55
-18
19
133
84
-64
48
101
21
186
259
39
61
225
76
70
351
219
16
288
244
6
83
133
-15
-140
8
29
-204
-143
48
-121
-305
-46
40
-347
-114
128
-130
-13
-4
-143
-85
57
19
-258
-48
97
-95
24
96
-169
-112
61
-147
-104
7
10
-18
-52
-11
-121
-111
15
-69
-118
-74
-92
-126
-87
-37
-259
-343
-48
-194
-386
17
0
-338
-161
2
-248
-345
-85
-63
-210
-90
27
-129
-68
111
-55
-68
196
254
38
201
382
13
70
270
-41
-199
-125
-173
-345
-224
-154
-395
-247
-214
-408
-322
-198
-260
-301
-330
-466
7
1364
2885
4018
4324
3461
2076
1043
682
494
84
-104
-178
-400
-388
-274
-433
-579
-390
-276
-462
-401
-273
-474
-595
-293
-260
-487
-231
-191
-504
-420
-232
-354
-353
-103
-164
-294
-99
-179
-376
-104
97
-192
-239
78
-38
-183
166
155
-201
49
285
26
9
241
101
-39
245
119
-67
277
215
-13
127
183
44
-89
-26
-5
-208
-157
-80
-359
-367
-132
-225
-320
-25
-20
-370
-252
-20
-216
-302
-78
-178
-354
-130
-7
-257
-337
51
29
-191
79
-2
-209
48
12
-265
-169
-38
-166
-195
-149
-224
-166
31
-85
-356
-143
-4
-215
-201
-73
-159
-316
-177
-113
-366
-228
-50
-285
-239
-39
-195
-403
-174
-33
-316
-222
37
-272
-381
-12
-112
-239
20
45
-179
-150
141
72
-8
319
311
64
88
127
-22
-44
92
-159
-308
-106
-223
-351
-190
-260
-447
-377
-221
-295
-415
-130
-349
-583
700
2204
3278
4391
4260
2743
1678
1080
523
323
105
-207
-447
-363
-351
-601
-542
-358
-423
-561
-385
-318
-591
-531
-313
-397
-435
-339
-378
-454
-257
-298
-462
-271
-190
-290
-357
-228
-217
-293
-115
-113
-281
-100
0
-236
-167
70
-8
-179
-51
107
-18
47
49
-113
12
246
197
-19
151
280
12
-3
267
68
-140
83
24
-180
-101
-64
-233
-258
-74
-175
-278
-19
-50
-282
-133
-69
-351
-237
4
-282
-325
-5
-201
-332
-94
-33
-195
-199
-42
-167
-257
-50
-51
-255
0
72
-209
-102
-46
-174
-157
24
-31
-278
-109
-66
-303
-107
76
-177
-295
-23
-28
-436
-293
-16
-183
-121
38
-213
-262
-34
-186
-293
-166
-84
-313
-245
91
-167
-263
60
16
-163
79
130
-131
-78
162
151
82
361
372
91
252
220
-80
53
166
-171
-274
-49
-205
-339
-169
-112
-264
-261
-43
-206
-287
-197
-434
-122
1287
2752
3833
4598
3938
2382
1351
897
621
201
6
-86
-361
-380
-210
-414
-532
-286
-374
-517
-281
-314
-569
-359
-209
-438
-421
-207
-390
-464
-172
-224
-447
-241
-3
-266
-350
-56
-211
-409
-67
-58
-305
-77
46
-135
-82
100
23
-35
97
119
4
79
179
-28
-66
250
265
9
187
340
58
82
289
-30
-171
112
-51
-180
139
64
-279
-163
39
-88
-169
-13
-82
-277
-138
-19
-225
-168
41
-217
-336
-38
-78
-279
-106
-53
-142
-70
50
-54
-188
4
-7
-153
22
43
-166
-56
74
-113
-138
94
-32
-287
-38
87
-96
-71
-14
-95
-149
-46
-38
-175
-109
-104
-246
-147
-14
-138
-177
55
-26
-239
-16
-1
-293
-235
105
-4
-135
154
57
-46
170
43
-126
96
306
178
58
340
341
103
270
282
-17
-33
97
-222
-447
-82
-69
-370
-191
-143
-408
-271
-41
-186
-309
-294
-481
-151
1292
2789
3852
4525
3857
2285
1247
873
624
196
-72
-174
-395
-432
-215
-444
-629
-277
-364
-588
-341
-218
-408
-385
-201
-401
-538
-252
-235
-415
-240
-182
-457
-376
-96
-282
-383
-84
-127
-358
-98
77
-281
-183
70
-255
-284
160
220
-60
78
264
31
44
258
-9
-66
273
230
32
159
275
61
18
162
-15
-75
187
33
-276
-157
12
-154
-176
22
-149
-220
-7
-122
-250
-71
15
-221
-276
-61
-155
-211
-1
-140
-302
89
167
-179
-87
134
-18
-152
2
32
-213
-61
144
-130
-116
71
-78
-247
13
109
-293
-146
186
-127
-146
97
-89
-186
-80
-51
-214
-245
80
-94
-274
35
-81
-175
-33
-118
-219
-160
-73
-217
-269
-39
-123
-181
104
172
-58
-8
187
69
140
327
183
111
283
149
-76
-43
-82
-305
-324
-65
-116
-304
-238
-169
-261
-263
-159
-363
-390
-178
-482
-528
529
1880
3207
4482
4329
2810
1645
943
439
286
146
-100
-369
-419
-341
-484
-517
-351
-433
-602
-487
-438
-555
-390
-358
-583
-428
-296
-504
-510
-338
-460
-548
-234
-123
-411
-323
-83
-345
-342
-31
-122
-304
-172
15
-111
-125
53
-164
-196
101
46
-91
17
201
75
51
243
-14
-109
227
157
-82
71
137
-44
-65
-93
-213
-103
-29
-231
-330
-134
-120
-385
-238
6
-210
-339
-168
-207
-380
-158
-100
-391
-155
-8
-397
-370
-9
-105
-258
-123
-135
-258
-195
2
-153
-322
-226
-237
-200
-59
-17
-246
-212
-8
-227
-324
-103
-127
-324
-239
-154
-305
-294
-243
-367
-329
-98
-146
-395
-258
-127
-397
-309
-73
-301
-342
-75
-142
-391
-167
37
-246
-286
-15
-74
-127
202
200
-146
110
419
27
-154
103
-21
-189
-188
-363
-392
-302
-297
-392
-352
-257
-420
-437
-234
-233
-485
-616
-347
303
1546
3161
4139
4021
3078
1741
767
553
444
-107
-468
-284
-357
-604
-524
-586
-688
-459
-468
-587
-475
-460
-528
-573
-435
-373
-571
-456
-320
-590
-525
-255
-399
-533
-340
-289
-431
-310
-205
-478
-457
-61
-285
-464
-53
-70
-357
-121
109
-137
-138
58
-64
-231
-184
-87
-253
-158
45
-199
-127
48
-125
-195
-34
-147
-312
-234
-271
-413
-358
-181
-385
-524
-219
-144
-436
-347
-160
-378
-453
-310
-263
-290
-196
-199
-455
-369
-100
-317
-387
-13
-166
-344
-52
-123
-287
-40
-12
-157
-192
-130
-124
-356
-118
-11
-230
-51
-53
-288
-227
-53
-171
-342
-146
-84
-368
-219
-99
-428
-255
32
-212
-329
-88
-116
-313
-27
-15
-387
-172
37
-201
-291
-17
-8
-355
-34
199
-192
-101
157
119
26
265
468
179
195
268
-45
7
184
-136
-340
-119
-110
-407
-288
-85
-279
-301
-146
-226
-300
-142
-341
-505
468
2000
3304
4442
4400
3077
1908
1161
607
315
276
57
-391
-439
-217
-414
-583
-309
-300
-538
-450
-267
-407
-497
-284
-344
-601
-412
-228
-398
-364
-206
-384
-424
-142
-179
-403
-263
-123
-424
-252
66
-243
-164
62
-207
-306
15
35
-247
-130
37
-70
-31
54
-112
-135
181
218
-12
80
198
108
103
240
56
-172
58
0
-293
-202
-41
-223
-273
-57
-133
-292
-158
-175
-378
-151
16
-254
-352
-106
-129
-320
-143
-81
-281
-178
-84
-223
-171
-33
-125
-229
2
9
-207
-25
82
-125
-147
1
-102
-181
101
72
-252
-73
104
-250
-221
125
-129
-266
92
-29
-266
3
3
-264
-105
54
-132
-174
9
-38
-324
-184
86
-197
-225
135
-91
-307
29
89
-52
111
272
57
-54
238
242
119
404
489
214
235
363
46
-116
145
-18
-297
-79
-42
-328
-287
-103
-285
-296
-14
-189
-352
-66
-324
-420
871
2392
3585
4475
4104
2754
1528
790
577
380
53
-127
-305
-352
-247
-423
-555
-347
-356
-612
-438
-226
-538
-553
-261
-394
-535
-354
-268
-500
-394
-154
-437
-359
-75
-313
-402
-171
-182
-345
-206
-41
-271
-251
58
-62
-234
-33
74
-53
20
54
-80
7
230
156
9
197
148
50
258
320
88
63
279
36
-89
162
26
-201
-72
36
-243
-298
29
-93
-271
-17
-44
-297
-114
36
-216
-259
-6
-99
-295
-188
-118
-153
-81
-2
-185
-243
-23
-81
-266
-79
-45
-272
-116
30
-179
-173
80
-80
-272
-34
-94
-284
-43
29
-231
-199
-40
-98
-255
-97
40
-293
-202
69
-171
-131
27
-260
-272
46
-9
-300
-148
48
-200
-169
70
-120
-238
81
80
-157
-20
62
-73
3
274
191
112
388
308
87
208
198
3
-52
-24
-105
-287
-121
-27
-355
-235
9
-306
-393
-43
-159
-395
-275
-334
91
1527
3126
4285
4415
3353
2031
1088
753
583
87
-101
-79
-388
-441
-207
-382
-568
-468
-399
-435
-434
-322
-397
-469
-228
-256
-454
-228
-222
-479
-343
-187
-330
-315
-115
-202
-317
-157
-82
-233
-110
23
-302
-228
82
-34
-55
157
74
-152
38
227
29
33
191
62
54
298
291
-5
121
347
76
-1
190
70
-103
-27
-27
-258
-157
30
-247
-279
-94
-230
-251
15
-72
-318
-164
-7
-143
-214
-29
-69
-274
-109
24
-85
-96
-1
-53
-122
83
-5
-200
71
85
-146
-68
83
-41
-194
107
103
-146
148
193
-198
-125
111
-130
-186
48
-68
-148
39
-29
-223
-110
59
-129
-212
70
-2
-212
-89
-2
-147
-98
96
-182
-192
217
31
-151
163
227
-30
152
424
190
236
458
202
7
179
101
-104
-84
-109
-264
-367
-105
-102
-429
-242
-100
-351
-313
-139
-418
-663
-207
471
1462
3282
4511
4117
3097
1955
897
582
611
168
-356
-227
-153
-488
-449
-317
-535
-516
-248
-380
-625
-384
-346
-597
-303
-133
-423
-432
-316
-369
-413
-388
-255
-228
-269
-297
-421
-301
-89
-232
-333
-92
-66
-290
-179
27
-107
-157
64
-39
-127
45
-9
-20
90
176
132
-46
112
177
-37
125
180
-108
-72
82
-126
-232
65
19
-312
-206
-65
-182
-222
-68
-73
-283
-158
-187
-377
-35
47
-275
-194
-66
-177
-220
-34
-50
-292
-41
114
-193
-117
49
-197
-188
32
-41
-213
-47
125
-155
-109
104
-169
-238
-25
-131
-293
-125
-94
-211
-91
-31
-286
-304
-47
-148
-202
-20
2
-205
-217
-4
-172
-343
-124
-89
-326
-186
-25
-363
-238
130
-121
-236
48
70
-8
100
20
-61
100
245
151
158
341
158
-54
159
241
-72
-139
-71
-356
-400
-177
-218
-341
-201
-124
-310
-328
-225
-309
-531
-209
585
1727
3323
4414
3969
2831
1975
855
354
455
25
-405
-326
-201
-484
-598
-416
-469
-552
-439
-580
-765
-474
-507
-796
-590
-406
-683
-826
-369
-299
-613
-376
-307
-529
-448
-310
-442
-529
-222
-253
-430
-169
-173
-361
-205
-56
-211
-228
42
32
-132
47
137
-78
-52
167
34
-90
209
174
-46
72
110
4
10
72
-164
-277
-2
-80
-319
-196
-64
-227
-208
-128
-303
-346
-154
-40
-267
-197
-63
-293
-282
-139
-270
-306
-56
-130
-351
-185
-77
-289
-286
-29
-103
-213
-37
-105
-273
-69
6
-253
-190
-43
-160
-164
-105
-162
-291
-151
-67
-306
-255
-105
-133
-273
-125
-16
-263
-109
-37
-302
-194
-78
-299
-317
-106
-159
-301
-128
-74
-293
-219
-5
-226
-259
-29
-98
-197
-80
142
26
-48
110
17
15
277
305
116
226
240
-82
-36
101
-153
-287
-120
-166
-356
-259
-141
-345
-342
-107
-312
-413
-123
-366
-626
278
1552
2703
4148
4655
3416
2108
1314
567
296
284
-23
-375
-321
-209
-464
-623
-357
-357
-617
-389
-333
-654
-457
-257
-453
-426
-237
-374
-486
-371
-287
-342
-362
-249
-376
-413
-213
-267
-448
-331
-139
-300
-270
-50
-231
-223
-13
-175
-157
112
97
-68
10
235
-21
-149
251
290
26
145
259
10
35
166
14
-12
123
-51
-212
12
-89
-260
-90
-42
-170
-189
-21
-108
-325
-129
9
-250
-179
20
-222
-265
-28
-145
-450
-258
51
-168
-227
14
-142
-288
-48
-176
-420
-155
-36
-248
-177
-46
-266
-276
-24
-134
-256
-66
-64
-221
-209
-47
-120
-285
-48
-60
-300
-152
-44
-229
-302
-161
-181
-240
-79
-134
-343
-166
-79
-296
-187
41
-141
-247
-33
-135
-263
58
157
-114
-48
143
-36
-2
336
276
40
238
418
81
64
308
32
-134
