124
1
-238
159
138
-231
9
147
-113
-109
102
4
-188
10
121
-118
-84
144
-60
-72
202
73
-79
108
81
-117
12
37
-127
-98
110
66
-197
-120
7
-191
-136
114
-73
-176
-2
-57
-148
17
69
-156
-38
133
-87
-118
158
60
-209
-33
59
-110
-23
177
20
-85
186
125
-56
168
205
90
253
392
264
239
383
236
-7
90
128
-115
-110
-3
-214
-220
77
-129
-342
-28
-23
-339
-205
80
-275
-447
286
1217
2501
4175
4708
3541
2352
1705
825
497
544
-34
-425
-176
-272
-587
-380
-220
-501
-560
-293
-371
-624
-424
-278
-574
-479
-295
-532
-475
-119
-124
-217
-84
-185
-344
-246
-119
-213
-245
-23
-108
-294
-91
8
-179
-76
149
-39
-110
130
84
-22
171
172
-34
8
153
21
-38
167
141
2
192
279
57
57
171
38
-83
61
31
-232
-54
102
-198
-141
54
-187
-264
11
-66
-217
4
5
-230
-23
124
-159
-148
103
-44
-231
14
-2
-228
-19
220
-60
-199
75
-64
-194
87
98
-111
4
223
-72
-233
106
14
-159
46
76
-39
-22
46
-88
-175
150
73
-325
-57
51
-223
-59
91
-121
-311
18
180
-147
20
116
-182
16
271
35
40
314
166
-15
250
423
220
191
498
343
156
320
146
-23
75
25
-208
-142
-9
-196
-255
-58
-96
-294
-117
-49
-276
-245
-190
-90
875
2544
3909
4413
3927
2720
1391
864
749
229
-37
3
-205
-449
-316
-246
-499
-407
-183
-356
-461
-235
-306
-509
-247
-148
-429
-415
-219
-350
-413
-134
-115
-347
-211
-112
-294
-104
31
-251
-136
58
-108
-133
70
52
-180
-74
118
14
-30
139
134
25
170
219
-66
-19
314
79
-82
296
187
29
217
72
-94
-44
40
-103
-199
7
-63
-281
-84
28
-202
-149
47
-161
-247
26
-140
-335
-39
7
-301
-213
-41
-302
-252
17
-122
-288
-42
71
-211
-139
-28
-234
-222
-18
-79
-306
-123
-107
-405
-221
-107
-237
-175
-66
-223
-425
-175
-89
-369
-376
-159
-197
-335
-54
-131
-608
-274
-77
-401
-225
-40
-331
-370
-52
-204
-389
-46
82
-281
-228
95
-98
51
507
216
-6
311
351
17
62
286
-98
-193
12
-182
-295
-226
-156
-337
-391
-67
-192
-334
-97
-158
-331
-327
-184
538
2114
3687
4272
3813
2895
1726
690
582
531
-80
-214
-95
-385
-482
-316
-473
-623
-320
-186
-437
-332
-127
-377
-500
-229
-275
-469
-257
-232
-487
-417
-61
-151
-360
-129
-223
-453
-109
20
-340
-182
-30
-273
-172
-6
-87
-148
59
94
-135
-82
109
-32
-117
215
48
-271
89
98
-236
102
395
19
-53
276
37
-278
70
65
-320
-128
110
-128
-236
36
-47
-354
-139
-68
-325
-194
18
-189
-302
-56
-51
-99
-13
-133
-183
32
142
-134
-271
41
4
-302
-90
73
-156
-141
44
-82
-224
52
-24
-288
0
63
-223
-171
-43
-202
-198
5
-102
-246
-133
-78
-164
-148
-66
-164
-227
-65
-87
-361
-127
55
-270
-125
20
-275
-307
-49
-109
-217
106
66
-235
-2
179
-97
-139
259
246
33
294
355
114
114
137
-75
-139
30
-109
-387
-240
-161
-463
-307
-74
-321
-413
-326
-296
-378
-403
-388
-60
1260
2946
3960
4221
3690
2247
974
756
691
156
-232
-184
-344
-580
-424
-497
-624
-402
-415
-549
-409
-370
-566
-536
-329
-404
-561
-336
-115
-313
-299
-87
-368
-549
-146
-73
-330
-161
-54
-288
-220
-90
-240
-209
-29
-133
-278
-105
-16
-73
33
132
-65
-128
118
-11
-198
130
179
-143
16
302
67
-191
89
60
-212
55
55
-300
-210
23
-206
-336
-53
-99
-358
-196
-109
-351
-118
70
-242
-226
34
-57
-284
-150
-49
-267
-199
-1
-237
-303
14
-66
-308
-168
-47
-284
-221
48
-197
-248
-22
-137
-285
-92
-54
-436
-273
-16
-308
-244
-91
-300
-352
-136
-104
-295
-242
-46
-249
-384
-101
-225
-403
-74
-58
-300
-211
-52
-182
-271
40
-39
-318
22
48
-222
124
387
90
61
241
30
-103
59
83
-148
-220
-175
-340
-406
-211
-243
-519
-296
-189
-475
-322
-90
-391
-739
-317
647
1830
3439
4516
3886
2615
1711
778
375
516
5
-473
-292
-317
-561
-497
-364
-596
-658
-420
-433
-593
-528
-406
-473
-499
-357
-406
-495
-258
-318
-579
-345
-179
-392
-269
-180
-472
-351
-39
-197
-460
-124
62
-259
-179
32
-113
-164
84
-7
-203
102
122
-199
-40
97
-62
-16
129
49
-105
46
105
-54
41
93
-161
-194
70
-118
-379
-122
-150
-362
-181
-25
-236
-337
-106
-222
-445
-156
-36
-370
-178
14
-319
-245
3
-107
-279
-120
-70
-346
-158
106
-140
-296
-64
-96
-347
-125
15
-217
-158
27
-175
-280
-39
-131
-360
-93
-37
-371
-207
-37
-331
-437
-192
-230
-418
-244
-166
-327
-261
-98
-380
-477
-159
-182
-279
-72
-118
-307
-170
-45
-179
-189
171
119
-93
27
11
-132
-69
0
-263
-408
-255
-343
-664
-430
-237
-612
-494
-253
-491
-540
-251
-309
-639
-286
576
1692
3328
4542
3969
2667
1906
998
363
440
193
-345
-285
-132
-476
-618
-348
-404
-563
-369
-350
-567
-403
-188
-448
-461
-249
-411
-537
-314
-179
-452
-469
-249
-384
-488
-280
-287
-439
-255
-206
-354
-225
-52
-313
-357
-5
-165
-308
89
64
-244
-41
147
-50
-169
51
-33
-283
58
152
-182
-55
106
-160
-175
82
-84
-341
-76
72
-254
-206
-30
-257
-321
-245
-289
-318
-157
-102
-346
-269
-1
-100
-223
-88
-113
-212
12
39
-253
-67
218
-121
-186
176
-67
-290
56
77
-159
-19
36
-244
-243
-95
-283
-399
-104
-21
-338
-295
-100
-291
-301
-90
-199
-377
-224
-132
-362
-294
-69
-379
-408
-38
-233
-491
-119
-38
-410
-265
-44
-265
-346
-35
-20
-224
-34
75
-137
-90
205
100
36
341
221
-46
187
280
-61
-29
109
-177
-231
-64
-177
-423
-310
-100
-435
-373
-67
-468
-467
-61
-385
-534
668
2170
3329
4372
4184
2771
1542
933
572
240
71
-196
-559
-460
-282
-532
-603
-315
-429
-704
-429
-343
-569
-432
-321
-456
-501
-334
-310
-469
-289
-311
-585
-356
-150
-417
-411
-150
-395
-493
-143
-139
-406
-155
103
-193
-145
130
-39
-201
50
48
-157
45
121
-115
16
315
92
-99
165
200
-37
114
297
7
-56
235
39
-321
-20
37
-259
-137
-104
-197
-177
43
37
-240
-93
-15
-283
-137
109
-177
-275
51
-11
-174
17
90
-33
25
168
-66
-108
211
17
-164
172
128
-175
-18
120
-67
-142
-20
11
-44
15
6
-179
-123
44
-107
-161
50
-89
-223
-23
-37
-118
-67
82
-59
-236
43
-63
-253
55
12
-326
-174
57
-87
-149
-34
17
23
87
158
41
-1
200
158
118
387
256
48
347
366
92
85
164
-58
-178
-25
-211
-370
-36
-41
-482
-311
30
-174
-277
-56
-312
-557
356
1591
2740
4252
4718
3433
2044
1321
811
474
380
50
-403
-338
-74
-306
-454
-207
-417
-626
-306
-265
-602
-395
-105
-332
-399
-248
-392
-511
-187
-144
-459
-314
-82
-298
-326
-18
-148
-435
-140
10
-229
-155
69
-119
-302
25
37
-162
87
109
-101
50
148
-96
-105
169
32
-108
200
186
-56
68
182
1
-7
106
-35
-181
-78
-43
-250
-163
6
-158
-222
-69
-135
-328
-93
27
-283
-172
60
-210
-237
46
-77
-253
-19
20
-293
-143
107
-138
-165
119
-27
-263
102
102
-265
-29
96
-127
-182
-4
2
-138
51
93
-211
-66
161
-164
-225
107
18
-276
-13
113
-295
-196
66
-181
-138
87
-150
-223
32
-1
-242
-186
84
4
-70
197
82
-87
95
115
40
183
357
190
301
460
133
45
209
175
-102
-86
126
-164
-328
-21
-156
-458
-171
-47
-328
-194
24
-300
-524
-257
329
1392
3018
4448
4246
3084
2258
1162
468
551
151
-347
-194
-160
-443
-377
-268
-511
-503
-269
-403
-532
-343
-326
-557
-408
-179
-438
-465
-236
-409
-528
-253
-113
-444
-308
9
-371
-355
-40
-234
-437
-154
-64
-379
-186
96
-158
-227
59
28
-177
70
175
-88
88
242
-6
14
268
176
-23
172
159
-97
161
328
-16
-100
115
-33
-296
-100
-1
-203
-197
-59
-97
-209
-65
-151
-291
118
183
-106
-45
94
-31
-136
41
117
-13
113
201
-70
-19
166
-48
-65
124
16
-117
123
32
-256
122
309
10
-159
70
75
-179
32
66
-280
-160
75
-269
-297
67
-80
-272
-60
31
-208
-160
34
-181
-315
-26
-53
-320
-59
40
-239
-125
54
-129
-111
59
15
-21
126
90
-56
144
273
167
101
373
377
60
238
198
-25
26
-22
-199
-285
-99
-146
-347
-133
-37
-460
-456
29
-205
-521
-256
-81
653
2277
3840
4406
3869
2842
1460
685
706
333
-63
-112
-178
-416
-502
-245
-395
-576
-281
-302
-559
-366
-293
-662
-505
-261
-522
-394
-165
-395
-419
-313
-330
-372
-339
-84
-235
-404
-114
-208
-375
-83
27
-253
-237
-8
-50
-44
84
-35
-207
51
138
-103
24
174
-7
-50
191
95
-95
146
190
-102
-67
113
-73
-273
-17
-39
-367
-147
-39
-296
-229
-118
-212
-292
-158
-143
-354
-121
-104
-392
-140
56
-230
-225
-20
-261
-358
-41
-26
-270
-173
15
-127
-163
71
-17
-270
-75
20
-329
-100
90
-269
-150
41
-161
-262
-91
-18
-282
-249
86
-109
-331
-129
-195
-331
-98
-40
-294
-203
-26
-291
-302
-17
-160
-356
-151
-93
-297
-311
-148
-245
-303
-62
-101
-178
80
60
-185
-69
137
26
-7
266
196
6
206
207
-17
-14
-4
-288
-428
-216
-247
-472
-286
-141
-502
-424
-120
-400
-408
-273
-593
-192
1123
2446
3716
4502
3887
2505
1434
821
458
146
23
-226
-594
-543
-313
-498
-664
-441
-495
-627
-478
-438
-572
-572
-439
-588
-535
-248
-502
-564
-252
-414
-603
-319
-197
-482
-442
-202
-326
-411
-242
-186
-271
-240
-128
-186
-219
8
-39
-217
23
55
-95
63
91
-81
-148
102
169
-34
143
187
-93
37
181
-122
-128
128
-117
-364
-127
-120
-362
-152
29
-314
-433
-83
-101
-357
-145
-100
-418
-251
-31
-282
-353
-207
-249
-324
-169
-194
-509
-289
-52
-340
-287
-39
-211
-292
-62
-48
-315
-325
2
-227
-482
-53
-135
-378
-110
-165
-372
-278
-78
-230
-345
-59
-166
-403
-168
-90
-414
-286
-32
-239
-243
-83
-165
-321
-144
-72
-352
-235
-30
-286
-328
-47
-147
-323
-84
67
-136
-48
100
-97
30
260
67
62
388
324
8
55
167
-87
-221
-107
-253
-353
-149
-129
-453
-451
-192
-320
-376
-106
-206
-558
-459
-43
725
2329
4047
4479
3701
2707
1516
515
522
497
-96
-246
-123
-474
-546
-188
-353
-625
-419
-366
-600
-421
-241
-477
-481
-209
-280
-461
-279
-299
-497
-253
-62
-320
-406
-107
-146
-329
-27
-43
-367
-134
153
-67
-172
77
-17
-125
47
2
-18
224
357
166
223
490
246
167
467
381
218
340
458
212
98
388
238
-30
158
164
-144
-10
294
-27
-168
218
145
-79
94
110
-131
18
221
-127
-154
228
47
-266
-23
141
-72
-1
108
-131
-67
249
23
-214
79
69
-156
20
191
-40
-92
174
-30
-271
65
107
-161
-18
61
-146
-121
98
-16
-201
25
25
-274
-106
77
-288
-250
152
-141
-330
31
5
-258
-161
24
-162
-191
194
32
-161
197
137
-120
85
320
133
144
562
289
-105
276
287
-79
1
77
-204
-312
-34
-115
-354
-123
-72
-408
-291
-27
-210
-380
-355
-210
484
2030
3572
4365
4128
3010
1739
886
695
404
-93
-140
-168
-482
-474
-238
-427
-520
-210
-372
-679
-291
-179
-515
-422
-269
-397
-410
-186
-274
-503
-272
-264
-417
-172
-83
-266
-313
-38
-115
-357
-27
64
-196
-150
20
-133
-193
120
65
-142
120
157
-108
104
245
-59
-36
176
122
7
170
301
-80
-62
229
-77
-179
58
-136
-353
-47
-54
-416
-252
2
-256
-360
-92
-146
-325
-59
-4
-427
-293
-74
-297
-252
-62
-191
-334
-161
-138
-232
-85
50
-124
-222
-36
-136
-183
41
120
-93
-211
54
-100
-207
23
-190
-402
-152
-124
-454
-207
15
-289
-165
65
-164
-232
7
-100
-344
-95
-20
-332
-244
-35
-135
-294
-216
-70
-305
-225
256
24
-191
70
-89
-128
273
228
-53
172
132
-184
-56
125
-93
-317
-194
-183
-431
-441
-277
-435
-431
-214
-393
-622
-339
-191
-496
-585
-384
134
1197
2779
4043
3994
3088
2042
938
496
451
-80
-291
-150
-459
-617
-416
-595
-725
-500
-461
-609
-658
-497
-605
-718
-300
-301
-728
-547
-240
-550
-552
-188
-425
-635
-279
-256
-510
-288
-178
-468
-410
-231
-288
-342
-175
-4
-289
-251
30
-160
-211
15
-9
-150
-4
-12
-250
-17
158
-194
-168
169
15
-297
-71
44
-286
-208
0
-281
-427
-169
-225
-349
-171
-145
-390
-333
-81
-291
-306
-116
-282
-395
-253
-164
-376
-311
-102
-339
-292
48
-121
-419
-140
-8
-367
-266
58
-225
-512
-81
-11
-384
-130
-48
-429
-219
-11
-367
-328
-99
-261
-435
-222
-101
-386
-170
25
-459
-398
-80
-301
-358
-126
-142
-354
-216
-89
-317
-284
-4
-105
-340
-106
-30
-244
-41
125
-209
-251
136
91
-59
247
348
152
326
410
121
24
37
-68
-207
-79
-38
-338
-231
-44
-356
-514
-121
-49
-355
-98
-32
-549
-317
799
1932
3353
4574
4101
2863
2047
1092
499
569
302
-273
-392
-240
-358
-555
-363
-264
-720
-615
-200
-514
-459
-96
-383
-533
-297
-295
-439
-377
-237
-385
-488
-198
-255
-473
-178
-206
-501
-322
-85
-301
-338
-50
-158
-230
-41
-110
-148
20
71
-50
-41
168
10
-228
96
220
-172
-1
354
43
-22
204
58
-40
172
127
-205
-45
195
28
26
215
26
-233
82
226
-104
-28
193
-86
-183
126
67
-154
70
100
-260
-106
192
-56
-103
143
41
-152
-38
88
-96
-83
142
-27
-212
31
91
-109
85
119
-215
-36
216
-139
-174
197
-37
-274
63
30
-172
46
70
-196
-200
98
-7
-219
31
95
-222
-143
129
-138
-216
177
102
-121
140
151
-97
132
266
39
181
289
141
229
409
352
130
176
284
-9
-156
56
-148
-348
-95
-73
-264
-246
-74
-209
-286
-43
-209
-451
-321
116
1017
2577
4155
4416
3537
2537
1439
590
629
447
-192
-263
-247
-613
-752
-509
-454
-536
-445
-492
-714
-562
-236
-414
-535
-251
-360
-530
-278
-278
-475
-370
-265
-353
-381
-222
-143
-266
-149
-80
-359
-216
21
-258
-238
152
-7
-366
49
260
-145
-20
248
-17
-142
232
91
-218
226
275
-25
241
348
126
102
209
21
-262
-28
35
-329
-238
25
-275
-420
-130
-187
-315
-137
-124
-436
-354
-84
-287
-357
-150
-119
-313
-269
-137
-323
-245
-7
-207
-334
51
54
-292
-35
65
-263
-53
83
-98
-111
27
19
-228
-28
120
-221
-126
60
-234
-225
106
6
-210
-118
-126
-216
-81
43
-71
-152
-54
-106
-286
-30
99
-295
-278
-1
-166
-111
267
116
-83
148
124
-79
148
244
118
328
490
219
-12
187
133
-292
-273
-99
-313
-316
-126
-297
-319
-149
-254
-423
-331
-143
-363
-568
-229
508
1645
3180
4231
3900
2825
1983
1015
423
658
236
-430
-137
2
-465
-409
-263
-584
-501
-185
-404
-628
-330
-239
-568
-301
-37
-556
-488
-33
-221
-435
-166
-50
-407
-394
-187
-287
-145
-1
-295
-328
-63
-26
-229
-80
203
-205
-196
258
54
-95
146
177
-14
13
103
-11
12
162
104
27
253
222
-123
-65
137
-11
-131
122
-41
-275
117
69
-298
-98
89
-137
-163
-12
-135
-261
-19
-31
-348
-27
112
-187
-124
7
-114
-157
67
49
-191
-60
156
-120
-164
228
6
-276
69
88
-140
36
108
-259
-220
181
-34
-269
2
-107
-310
-77
7
-291
-359
-24
-92
-349
-170
-93
-297
-206
-69
-334
-359
-51
-179
-340
-211
-151
-286
-192
-61
-360
-300
5
-120
-195
70
83
-146
-2
86
-127
-86
264
282
19
282
330
-113
50
297
-44
-232
-63
-135
-340
-233
-187
-384
-285
-112
-341
-371
-94
-223
-532
-275
370
1278
2853
4205
4127
3161
2214
1177
482
481
248
-246
-242
-132
-432
-558
-324
-382
-629
-407
-308
-604
-452
-355
-590
-419
-103
-305
-505
-274
-245
-509
-349
-60
-345
-307
-16
-347
-408
-90
-167
-374
-96
91
-285
-181
152
-7
-153
26
138
-72
-2
207
-17
-81
197
88
-99
293
330
-139
92
326
22
36
211
98
4
94
-134
-206
109
76
-169
-176
-3
-78
-277
-49
47
-210
-28
-24
-288
-42
173
-21
-122
39
85
-110
-107
153
-26
-221
105
104
-29
182
98
-103
121
253
-122
-141
213
-28
-173
63
-35
-200
-120
58
-139
-277
4
-149
-264
26
-68
-263
-147
-68
-200
-278
-18
-50
-294
-31
-58
-382
-80
80
-258
-256
-41
-83
-287
-62
36
-253
-75
21
-115
85
203
47
-15
215
308
96
217
461
161
-55
279
152
-220
54
128
-324
-245
-51
-396
-319
-29
-266
-328
-167
-242
-262
-285
-360
-188
947
2730
3955
4348
3787
2566
1224
626
671
266
-70
-23
-342
-528
-163
-297
-572
-301
-300
-580
-460
-269
-485
-548
-258
-301
-521
-326
-236
-499
-438
-256
-475
-559
-337
-294
-509
-399
-127
-296
-359
-128
-184
-324
-153
-43
-193
-114
74
-186
-218
62
-152
-302
-6
-86
-250
36
24
-173
-53
58
-17
-137
44
85
-255
-164
-24
-283
-258
-43
-248
-425
-166
-113
-380
-220
-119
-411
-207
18
-211
-316
-115
-74
-417
-293
76
-176
-245
-47
-188
-195
-39
-212
-302
36
169
-271
-297
127
-242
-490
28
57
-320
-281
-96
-260
-338
-102
-258
-433
-104
-103
-392
-238
-69
-320
-333
-84
-346
-458
-59
-184
-468
-146
-21
-385
-343
-77
-319
-447
-66
-113
-398
-71
87
-217
-77
141
-165
-212
186
174
58
321
327
95
24
102
-14
-144
47
-194
-605
-279
-104
-469
-396
-160
-363
-453
-181
-176
-361
-373
-384
-121
1002
2698
3960
4387
3764
2284
1034
689
663
134
-252
-132
-390
-592
-193
-243
-624
-463
-326
-623
-606
-300
-463
-584
-340
-383
-527
-259
-101
-403
-448
-168
-332
-594
-228
-308
-709
-298
-113
-428
-398
-238
-271
-344
-234
-153
-310
-212
-80
-266
-263
-55
-197
-495
-254
-124
-370
-226
-62
-234
-248
-68
-175
-291
-173
-245
-406
-313
-194
-445
-540
-283
-384
-580
-377
-234
-490
-432
-205
-499
-518
-203
-418
-622
-371
-367
-586
-397
-196
-475
-418
-125
-382
-431
-129
-156
-356
-187
-58
-295
-238
14
-68
-224
-29
-22
-245
-112
55
-166
-217
75
-80
-250
10
123
-107
-53
177
-56
-79
185
-70
-222
249
297
-44
151
371
24
-65
199
72
-36
265
360
117
168
361
123
154
560
445
279
531
378
-5
182
281
-87
-293
-37
-72
-453
-279
-179
-491
-398
-207
-348
-277
8
-185
-518
-117
854
2000
3603
4669
3854
2573
1803
917
417
416
245
-158
-181
-64
-506
-533
-29
-260
-482
-164
-262
-427
-171
-164
-466
-230
61
-295
-360
22
-112
-366
-88
43
-218
-217
31
-91
-258
47
61
-281
-91
119
-219
-217
173
69
-106
117
58
-193
29
191
-90
-107
246
184
-156
159
443
140
180
303
56
-1
233
139
-6
208
218
4
45
186
15
12
286
124
10
292
193
-71
92
278
106
121
345
110
18
296
250
57
266
382
126
223
349
90
67
389
384
101
219
379
158
125
420
303
107
450
471
125
293
453
14
7
443
170
-117
150
107
-75
147
186
-133
106
335
-3
-136
-17
-8
-235
-126
100
-192
-220
77
-8
-37
196
160
-52
114
389
151
167
536
168
-132
104
-112
-319
-212
-287
-409
-329
-236
-401
-501
-244
-220
-519
-296
-121
-446
-498
-276
132
1180
2945
4214
4177
3355
2261
976
489
685
102
-366
-149
-253
-590
-429
-339
-639
-540
-362
-445
-440
-302
-356
-639
-434
-191
-432
-415
-220
-403
-562
-181
-62
-317
-101
-15
-274
-140
110
18
-47
161
146
-104
65
169
-72
121
367
157
107
417
346
40
326
567
284
357
606
403
281
410
282
92
311
346
-57
34
300
31
-106
112
138
-166
-23
195
-121
-24
247
-10
-4
213
-14
-155
154
188
-127
30
99
-197
-140
163
64
-239
19
182
-155
-179
-12
-47
-74
86
50
-136
32
97
-139
-142
-11
-123
-259
-48
53
-182
-101
21
-128
-83
140
-56
-227
64
-144
-411
-55
57
-246
-294
-7
-186
-510
-146
-115
-434
-221
-47
-320
-337
-8
-44
-100
120
-58
-273
24
74
-86
147
406
70
-51
335
45
-374
-164
-107
-385
-342
-169
-419
-500
-156
-191
-572
-452
-183
-402
-555
-386
-129
770
2343
3632
4232
3840
2705
1384
590
539
84
-358
-175
-419
-766
-528
-566
-907
-737
-501
-676
-773
-478
-552
-923
-591
-441
-748
-593
-414
-613
-720
-435
-455
-710
-433
-377
-716
-539
-190
-468
-700
-249
-293
-550
-135
-158
-543
-355
-7
-246
-408
-32
-35
-323
-150
-40
-315
-277
22
-85
-282
34
83
-224
-58
40
-281
-314
-109
-320
-380
-56
-183
-455
-324
-157
-379
-446
-128
-309
-577
-167
-126
-540
-264
-105
-452
-303
-79
-348
-434
-183
-155
-279
-164
-135
-369
-244
-53
-348
-386
-52
-174
-434
-230
-101
-358
-238
-36
-348
-367
-56
-195
-475
-207
-47
-448
-336
7
-265
-390
-73
-218
-520
-158
-108
-404
-223
-48
-276
-439
-230
-123
-269
-175
6
-174
-236
12
-69
-139
142
62
-123
128
270
75
284
533
150
-8
145
51
-248
-190
88
-301
-348
38
-316
-536
-192
-200
-397
-176
-84
-470
-518
22
843
2139
3780
4687
3942
2722
1813
837
646
725
112
-288
-65
-107
-360
-188
-135
-347
-441
-211
-107
-278
-89
-119
-341
-193
-149
-287
-216
-52
-290
-316
124
-56
-397
-120
-99
-398
-220
91
-183
-412
66
134
-324
-58
80
-236
-18
180
-71
-218
-11
79
-158
-109
-24
-113
65
171
31
-24
143
65
-174
-39
87
-182
-172
48
-249
-362
-2
-86
-368
-128
-84
-359
-217
8
-213
-357
-125
-99
-370
-217
17
-295
-215
1
-373
-291
116
-77
-233
-22
-22
-295
-152
90
-205
-353
-165
-64
-237
-105
92
-247
-127
180
-108
-234
128
84
-283
-44
206
-120
-104
280
-35
-293
110
14
-205
118
206
17
142
297
74
-16
219
219
-1
228
374
-111
-112
175
-125
-211
131
70
-81
126
301
292
213
285
115
-88
134
-51
-326
-98
-91
-362
-314
-49
-182
-489
-115
-64
-538
-169
-114
-509
133
1586
3055
4308
4675
3410
1977
1322
774
399
223
26
-290
-526
-315
-356
-638
-336
-265
-674
-503
-262
-575
-520
-252
-462
-594
-303
-315
-600
-372
-128
-462
-530
-128
-250
-496
-169
-120
-468
-304
-1
-262
-427
-28
-60
-409
-65
110
-220
-179
-38
-235
-365
-197
-189
-417
-195
37
-224
-141
120
-187
-254
144
-112
-357
-21
-23
-310
-224
-55
-363
-390
-16
-70
-234
-113
-127
-345
-246
-15
-215
-305
-20
-152
-510
-172
124
-286
-240
126
-142
-305
11
-40
-323
-68
118
-157
-133
43
-94
-109
196
91
-126
180
234
-47
53
240
89
-83
12
-79
-151
268
316
28
74
206
132
101
299
230
20
195
356
141
52
264
163
-15
299
307
-71
157
310
106
250
583
585
364
425
315
51
268
313
-97
-103
91
-151
-263
-31
-110
-295
-91
-94
-369
-181
50
-296
-504
189
1173
2420
4149
4717
3607
2387
1543
779
449
444
9
-447
-246
-188
-474
-338
-148
-508
-538
-97
-260
-538
-283
-131
-360
-314
-86
-332
-482
-278
-414
-660
-400
-266
-545
-440
-162
-343
-415
-96
-114
-333
-99
59
-276
-294
-14
-72
-28
26
-457
-773
-516
-531
-914
-854
-565
-735
-854
-526
-628
-885
-611
-690
-904
-774
-744
-917
-1021
-748
-838
-1143
-815
-707
-1035
-960
-733
-872
-920
-750
-866
-842
-528
-635
-785
-499
-326
-451
-565
-296
-245
-534
-166
77
-283
-194
35
-288
-321
55
-46
-216
-47
34
-154
-180
51
-66
-166
28
-139
-257
144
127
-198
-29
144
-193
-262
176
12
-261
48
19
-262
-145
125
-136
-707
-639
-509
-588
-393
-457
-655
-498
-221
-253
-336
-27
-155
-519
-199
-241
-690
-559
-465
-866
-960
-665
-841
-1033
-773
-695
-915
-831
-531
-715
-1113
-890
-272
537
2188
3687
3779
2989
1849
646
72
137
-79
-525
-609
-633
-726
-635
-540
-765
-856
-661
-769
-951
-650
-552
-960
-827
-497
-925
-1082
-588
-581
-683
-436
-439
-697
-580
-275
-454
-549
-337
-371
-506
-299
-171
-452
-249
47
-415
-468
32
-23
-308
-121
43
-166
-63
135
-67
-99
161
68
-93
204
219
-126
57
181
-306
-322
67
-97
-312
-143
-117
-385
-280
-82
-468
-475
-106
-401
-606
-94
-87
-501
-294
-54
-322
-372
-5
-73
-227
-2
-137
-491
-351
-158
-440
-511
-219
-274
-486
-222
-51
-336
-217
73
-226
-343
132
82
-270
40
173
-164
-18
221
-55
-157
164
-37
-308
241
401
-5
96
209
-339
-662
-488
-507
-595
-342
-248
-550
-416
-241
-466
-372
-99
-155
-299
-129
25
-92
-33
127
-152
-341
-56
-194
-473
-249
-199
-557
-413
-80
-450
-429
-41
-232
-414
-319
-242
386
1970
3515
4272
4050
2912
1623
741
611
580
25
-170
-135
-547
-635
-304
-465
-521
-276
-770
-1269
-773
-251
-544
-790
-481
-657
-1066
-649
-258
-665
-632
-256
-635
-923
-688
-827
-1179
-908
-804
-1175
-1130
-854
-961
-1137
-900
-928
-1085
-944
-928
-954
-1034
-1043
-1054
-1022
-859
-1057
-1122
-822
-1182
-1663
-1337
-1129
-1361
-1302
-1051
-1341
-1790
-1529
-1504
-2046
-1875
-1641
-2009
-1866
-1666
-2034
-2072
-1679
-1675
-1955
-1721
-1520
-1884
-1772
-1340
-1534
-1670
-1182
-1100
-1456
-1173
-945
-1226
-1056
-716
-776
-755
-661
-813
-1039
-767
-343
-648
-794
-439
-409
-414
-235
-260
-359
-331
-236
-354
-468
-51
-37
-338
-112
-13
-148
-258
-20
95
-116
78
159
12
231
220
-52
309
501
324
402
552
530
449
681
671
374
583
931
739
595
874
884
540
529
554
434
630
719
541
484
660
541
358
660
747
612
689
618
163
438
1618
2355
3541
5152
4767
3306
2521
1917
1452
1173
1019
700
278
564
506
155
480
280
28
311
351
46
121
584
480
178
293
461
263
192
479
336
151
538
636
135
388
870
260
157
897
927
369
498
906
595
756
1330
1149
1199
1660
1785
1716
1742
1788
1736
2039
1980
1388
1567
1980
1718
1497
1826
1910
1372
1472
1875
1359
1184
1591
1290
1039
1463
1169
817
1254
1124
557
582
917
706
301
336
215
-288
-369
-64
-267
-365
36
-60
-184
-68
-225
-489
-348
-18
-427
-608
-133
-406
-735
-445
-660
-1172
-991
-772
-1291
-1612
-1429
-1726
-2234
-2033
-2085
-2695
-2539
-2073
-2556
-2714
-1989
-1925
-1759
-1021
-995
-1324
-1110
-687
-924
-1105
-794
-1505
-2319
-2070
-2681
-3510
-3069
-2589
-2680
-2642
-2274
-2476
-2624
-1786
-1784
-2522
-2020
-1638
-2295
-2331
-1989
-2320
-2383
-1867
-1785
-2127
-1936
-1474
-1835
-1908
-1406
-1394
-833
988
2614
2966
2792
1930
395
-294
-20
-339
-1013
-910
-918
-1195
-809
-618
-1133
-1109
-611
-993
-1386
-606
-621
-1247
-809
-578
-897
-914
-557
-708
-985
-184
-311
-1127
-381
190
-399
-391
401
217
-440
110
372
-364
-154
368
-194
-112
829
622
248
972
936
341
852
1112
649
792
1358
1129
773
1330
1349
876
1336
1558
858
803
1422
923
427
1251
1282
479
785
1153
459
332
959
595
348
1085
994
205
118
305
-161
-124
519
139
-386
333
364
-499
110
700
-72
-198
534
351
-238
301
373
-215
331
568
-105
-84
263
-84
-303
43
-194
-774
-468
-310
-1186
-1360
-820
-1154
-1469
-902
-1008
-1892
-1587
-981
-1708
-1737
-904
-1370
-1687
-926
-871
-1319
-912
-207
-728
-966
-103
-304
-540
3
-191
-729
-279
128
-502
-228
516
20
-190
638
981
384
621
1126
552
789
2180
3241
4449
6049
5942
4339
3912
3774
2966
3024
3312
2759
2603
3335
3226
2552
3087
3563
2666
2370
2998
2489
1898
2523
2507
1770
2079
2351
1684
1834
2429
1802
1296
1971
1915
1054
1379
1661
766
705
1337
787
227
841
914
207
633
1007
98
123
752
209
-47
664
458
-166
208
417
-154
-260
159
-271
-575
10
-316
-1007
-671
-601
-1448
-1675
-1016
-1308
-1648
-753
-669
-1336
-868
-350
-979
-943
-375
-870
-1305
-743
-659
-1382
-1106
-686
-1231
-1308
-577
-762
-1136
-212
-251
-1036
-430
103
-651
-893
-227
-620
-953
-214
-224
-839
-407
69
-733
-726
196
-155
-647
96
159
-423
42
363
-115
-119
472
120
-164
686
585
-13
476
1109
650
358
1078
782
413
1307
1238
529
909
1202
443
258
1032
706
141
1059
1118
174
760
1224
308
227
1108
784
68
589
1135
1663
3364
5018
4951
4188
3382
2047
1123
1438
1417
358
578
900
-197
-204
495
162
-203
340
447
-323
45
661
-98
-197
636
257
-301
375
405
-314
205
703
-56
139
890
75
-266
682
535
-119
331
845
346
173
742
422
102
826
846
67
475
1149
549
279
972
771
193
864
1050
179
606
1339
618
483
1193
815
570
1476
1562
769
1213
1964
1500
1712
2508
2080
1819
2587
2690
2029
2247
2811
2277
2191
2872
2464
2071
2853
2896
2140
2642
2928
2041
2185
3049
2512
1971
2856
2907
2169
2733
3098
2245
2322
2941
2413
2041
2575
2335
1619
1936
2346
1743
1396
1842
1417
879
1437
1303
433
630
1135
351
-50
572
73
-404
385
483
38
459
894
482
432
992
604
202
464
126
-473
-257
1
-726
-901
-355
-930
-1577
-1199
-1391
-2474
-2890
-3115
-4265
-4304
-2788
-1904
-761
1041
713
-808
-1178
-1712
-2664
-2962
-2887
-3508
-3937
-3093
-2965
-3419
-2878
-2571
-3144
-3152
-2339
-2416
-3053
-2591
-2359
-2825
-2424
-1986
-2538
-2465
-1550
-1788
-2229
-1458
-1275
-1848
-1343
-741
-1255
-1154
-572
-1010
-1154
-612
-491
-742
-424
-157
-646
-510
65
-287
-618
-32
125
-353
-123
226
-242
-284
255
-116
-517
143
260
-228
-16
195
-337
-360
203
-70
-589
-314
-104
-437
-275
-2
-139
-55
387
332
63
715
878
563
1242
1544
1118
1270
1535
1159
1019
1439
1302
1003
1509
1760
1267
1305
1666
1306
852
1215
1458
1021
1066
1405
1015
839
1235
946
584
917
968
615
704
817
321
312
897
787
443
705
648
433
746
1010
895
759
1150
1162
841
1168
1219
809
940
1135
632
398
690
444
4
88
-70
-603
-429
-116
-528
-608
-192
-675
-974
266
1496
2502
4162
4587
3013
1838
1315
518
101
149
-195
-755
-504
-255
-784
-721
-340
-608
-589
-92
-165
-566
-368
-262
-712
-517
-9
-332
-523
-71
-73
-490
-221
68
-449
-500
80
-194
-559
-106
-68
-513
-359
-40
-524
-492
226
-93
-395
46
-49
-389
-270
-289
-640
-556
-181
-474
-750
-260
-240
-721
-537
-369
-746
-752
-469
-703
-995
-727
-718
-1155
-832
-588
-1194
-1085
-580
-925
-1214
-852
-855
-1206
-993
-781
-1170
-1148
-764
-1044
-1215
-880
-865
-1314
-1537
-1446
-1555
-1526
-1318
-1361
-1495
-1286
-1181
-1482
-1395
-1178
-1236
-1167
-1001
-1117
-1280
-1099
-1033
-1206
-1110
-945
-1147
-1220
-989
-1044
-1138
-881
-810
-1003
-851
-692
-928
-875
-524
-537
-633
-494
-454
-578
-441
-240
-434
-498
-396
-551
-697
-551
-627
-771
-616
-552
-605
-614
-413
-522
-759
-425
-420
-963
-727
283
1438
3023
4406
3907
2358
1479
789
212
110
-8
-399
-543
-401
-578
-706
-467
-618
-872
-600
-443
-640
-670
-491
-528
-549
-414
-555
-590
-304
-185
-330
-309
-144
-259
-344
-147
-139
-252
-78
41
-181
-204
56
-21
-202
88
201
-186
-85
227
38
113
353
54
-159
87
199
45
148
309
85
67
325
234
53
196
156
-103
7
129
-76
43
250
-95
-174
145
156
8
16
60
55
143
224
59
-83
150
246
-2
117
250
-68
-35
218
119
10
196
288
-5
111
127
-201
18
251
117
-3
170
139
-99
99
213
-44
-6
274
209
54
189
262
34
-9
256
192
84
218
131
89
279
355
234
239
431
299
306
576
380
251
596
614
269
376
555
315
196
253
126
-82
-5
56
-155
-77
12
-250
-226
109
1
-271
-221
-271
-31
1203
2869
4110
4548
3828
2430
1425
950
674
426
55
-158
-223
-315
-167
-266
-396
-139
-292
-562
-263
-67
-358
-332
-5
-193
-301
3
-45
-175
28
149
-98
-188
87
52
-219
-103
9
-155
-17
179
40
104
317
191
155
286
262
223
318
398
263
197
342
281
314
585
470
292
495
635
374
318
589
414
213
418
445
127
126
259
45
-65
95
52
-209
-93
92
-138
-142
38
-286
-164
216
-127
-263
133
126
-172
-18
67
-195
-195
92
60
-251
-84
72
-235
-145
112
-126
-192
43
-87
-230
-3
-76
-340
-156
-26
-245
-251
106
36
-343
-232
-189
-259
-36
-3
-235
-254
-3
-101
-328
-68
26
-138
6
42
-143
-75
27
-51
-21
216
335
210
186
100
-86
-59
-16
-308
-424
-102
-224
-432
-183
-153
-402
-294
-88
-317
-418
-183
-416
-592
225
1512
2884
4206
4401
3061
1792
1149
620
436
307
-71
-337
-351
-363
-521
-454
-352
-498
-450
-295
-362
-511
-383
-229
-423
-581
-277
-128
-313
-230
-320
-514
-188
72
4
-63
34
132
-56
37
252
58
-69
268
375
-76
170
498
231
357
451
180
147
462
544
335
402
719
755
665
791
760
852
983
727
584
770
777
609
699
693
581
861
925
605
580
567
442
398
700
917
581
586
791
588
537
636
573
515
569
703
531
267
418
482
541
709
591
479
486
578
456
344
639
625
506
642
438
56
312
558
168
334
836
566
438
1117
1034
456
987
1405
1185
1346
1704
1438
1332
1949
1867
1349
1704
2033
1599
1650
2219
2042
1709
2019
2019
1509
1632
1792
1165
1087
1419
1046
981
1290
915
639
865
958
787
603
866
797
337
593
1059
1605
3057
4732
4926
3997
3057
2068
1328
1260
1034
450
393
366
122
84
244
-41
-446
-81
-193
-706
-401
-117
-479
-531
-174
-479
-688
-136
-328
-886
-670
-485
-685
-614
-375
-528
-641
-230
-208
-736
-481
164
-357
-708
9
-138
-476
46
9
-384
-75
89
-291
-282
106
-105
-318
192
104
-348
96
362
-179
-231
229
-75
-345
35
-237
-650
-262
-53
-558
-646
-182
-367
-786
-394
-201
-700
-585
-361
-679
-602
-317
-669
-853
-308
-385
-954
-586
-227
-806
-858
-333
-587
-886
-487
-550
-923
-619
-535
-995
-859
-501
-808
-922
-552
-682
-1045
-720
-561
-1017
-900
-481
-781
-1137
-670
-421
-923
-798
-384
-742
-806
-334
-471
-689
-426
-488
-658
-263
-52
-485
-420
5
-419
-800
-213
-103
-891
-876
-390
-751
-880
-340
-560
-1072
-673
-525
-818
-478
-351
-847
-1030
-449
397
1632
3412
4041
2991
2039
1362
416
109
190
-383
-747
-370
-493
-818
-710
-592
-857
-862
-416
-692
-851
-455
-668
-988
-558
-330
-780
-660
-264
-666
-776
-237
-323
-785
-495
-87
-558
-647
-58
-317
-673
-190
-162
-472
-151
-20
-417
-402
60
-238
-587
26
1
-522
-200
64
-187
-111
135
-189
-532
-81
54
-337
-81
29
-410
-429
-117
-274
-381
-73
-211
-493
-234
-53
-442
-452
-79
-285
-473
-141
-196
-484
-214
-67
-392
-450
-209
-219
-364
-142
-142
-438
-146
25
-340
-247
-6
-294
-367
-43
-14
-269
-121
49
-265
-202
124
-181
-359
-48
55
-223
-277
110
23
-180
119
69
-176
176
282
44
235
291
5
76
408
332
214
496
633
334
205
342
79
5
358
239
8
149
17
-210
50
64
-241
-159
127
99
-124
-40
34
-338
-293
532
1461
2846
4403
4313
2891
2112
1534
909
925
634
179
22
63
178
-106
-97
-4
-244
-120
-83
-287
-158
105
24
-182
62
182
-184
34
341
-115
-201
245
162
-102
221
274
-68
59
267
-23
22
354
186
-8
156
291
-119
-42
429
142
81
239
-9
-111
76
42
-194
-15
77
-206
-57
234
-145
-342
153
58
-447
-281
-61
-359
-431
-132
-252
-473
-191
-198
-587
-378
-169
-429
-424
-203
-357
-531
-222
-253
-556
-265
-129
-529
-543
-292
-386
-529
-294
-158
-532
-514
-109
-471
-679
-242
-320
-571
-391
-351
-709
-571
-286
-648
-604
-303
-587
-814
-537
-368
-639
-658
-499
-729
-758
-428
-461
-632
-402
-422
-769
-549
-266
-474
-383
-107
-327
-425
-319
-475
-664
-630
-499
-784
-825
-466
-731
-924
-552
-653
-1015
-759
-555
-800
-893
-738
-545
-261
871
2447
3156
3011
2303
1133
247
226
36
-542
-574
-578
-965
-927
-710
-1057
-1137
-782
-923
-1045
-611
-618
-1067
-903
-641
-962
-923
-451
-776
-1054
-622
-576
-832
-747
-507
-696
-786
-436
-516
-686
-379
-258
-701
-667
-213
-483
-507
-93
-399
-571
-49
-60
-508
-290
31
-352
-412
135
-97
-502
-39
113
-321
-197
83
-416
-385
52
-390
-591
-99
-38
-546
-324
234
-270
-594
21
-53
-501
-46
165
-356
-129
275
-279
-309
252
60
-372
-16
196
-336
-112
262
-224
-271
304
36
-440
227
239
-490
-187
176
-257
-315
244
-42
-484
68
267
-171
-218
-115
-428
-399
222
65
-429
-17
72
-321
26
238
-225
-258
229
94
-103
352
325
-88
252
635
3
-162
483
55
-526
-67
15
-493
-297
52
-278
-215
98
-370
-626
-6
-84
-855
-444
768
1393
2683
4396
3682
2092
1853
1080
163
396
285
-534
-638
-74
-445
-965
-333
-166
-931
-589
-28
-637
-774
-401
-591
-829
-351
-251
-782
-454
-17
-562
-754
-209
-434
-699
-150
-231
-804
-404
97
-439
-554
20
-203
-563
-112
-56
-564
-271
135
-275
-296
159
-190
-464
213
207
-375
-91
203
-207
-201
294
84
-312
54
83
-559
-304
289
-151
-461
-10
-120
-491
0
43
-444
-219
45
-157
-213
62
-134
-377
44
73
-334
-97
130
-373
-248
318
-75
-440
19
239
-324
-122
249
-315
-217
252
-131
-435
143
110
-508
-76
374
-382
-534
379
6
-643
64
141
-447
-112
409
0
-265
248
91
-320
296
604
-15
199
662
143
-47
304
55
-247
265
219
-570
-283
149
-256
-222
221
4
-418
55
294
-301
-248
59
-390
66
1631
2453
3395
4270
3255
1754
1359
1219
429
-204
217
61
-638
-115
66
-513
-224
-1
-580
-523
78
-142
-542
-127
90
-401
-93
507
116
-192
193
278
134
609
450
-132
320
552
117
443
1161
1046
485
758
1210
901
1030
1409
1093
991
1575
1644
1201
1636
1728
1035
1461
2100
1701
1552
1976
1621
1205
1647
1664
1240
1487
1660
1122
984
1307
1028
764
1354
1398
797
1091
1346
841
954
1349
999
798
1279
1326
830
1130
1702
1346
1191
1545
1146
797
1324
1561
1160
1388
1823
1393
1276
1763
1828
1524
1868
2082
1307
1364
1941
1484
1341
1947
1684
1179
1698
1932
1374
1534
1958
1663
1497
1646
1494
1280
1570
1624
1065
1244
1725
1268
1107
1573
1211
759
1147
1031
373
403
528
118
72
390
95
-348
-57
92
-457
-416
94
-277
-733
-335
389
1482
3229
4296
3370
2052
1373
441
74
220
-496
-1077
-712
-817
-1460
-1349
-925
-1391
-1611
-1197
-1562
-1937
-1523
-1389
-1894
-1688
-1324
-1833
-1911
-1633
-1895
-2054
-1708
-1726
-2081
-1827
-1527
-1765
-1809
-1422
-1462
-1743
-1362
-1131
-1435
-1349
-1072
-1328
-1429
-952
-1071
-1452
-1069
-997
-1336
-1024
-855
-1246
-1124
-637
-833
-1265
-994
-890
-1296
-1216
-941
-1255
-1515
-1161
-1220
-1623
-1294
-1132
-1682
-1590
-1089
-1413
-1649
-1269
-1396
-1788
-1491
-1316
-1750
-1745
-1352
-1533
-1878
-1681
-1683
-1974
-1508
-1198
-1722
-1656
-1327
-1549
-1562
-1285
-1410
-1732
-1530
-1325
-1680
-1610
-1219
-1499
-1626
-1232
-1378
-1698
-1379
-1234
-1624
-1435
-1035
-1354
-1479
-1181
-1196
-1251
-964
-955
-1209
-940
-684
-932
-1021
-782
-878
-1163
-904
-874
-1300
-1261
-999
-1132
-1295
-976
-1013
-1417
-1057
-761
-1173
-1093
-686
-1125
-1408
-394
707
1815
3650
3976
2298
1405
966
135
-139
-274
-701
-1000
-750
-635
-1044
-1024
-742
-986
-1140
-733
-763
-1051
-814
-740
-926
-804
-516
-728
-915
-437
-378
-692
-408
-241
-669
-611
-232
-417
-582
-272
-231
-525
-218
36
-370
-356
-13
-208
-302
122
61
-273
0
188
-142
-73
284
88
-10
331
201
-85
171
211
-298
-237
220
-78
-300
-16
-177
-464
-167
-67
-511
-518
-206
-374
-490
-173
-332
-725
-381
-134
-467
-467
-219
-476
-697
-319
-204
-488
-361
-184
-522
-542
-191
-415
-534
-85
-302
-769
-295
-23
-442
-344
-77
-471
-615
-195
-224
-570
-323
-50
-431
-334
65
-300
-381
16
-4
-223
-322
-228
-158
-80
41
-232
-418
-74
-146
-613
-339
-290
-722
-575
-429
-646
-685
-250
-252
-602
-551
-537
-736
-811
-422
178
1330
3159
4077
3463
2454
1458
440
194
251
-335
-556
-303
-467
-679
-548
-415
-670
-634
-278
-620
-794
-319
-353
-647
-450
-338
-614
-485
-128
-294
-396
-201
-320
-363
10
41
-269
-139
86
-203
-285
137
62
-300
-37
174
-140
-85
240
-15
-161
211
111
-212
75
221
-190
-2
426
33
-90
355
159
-170
84
195
-114
24
360
