-190
0
0
0
0
0
0
0
0
0
0
0
0
0
0
0
0
0
0
0
0
0
0
0
0
0
0
0
0
0
0
0
0
0
0
0
0
0
0
0
0
0
0
0
0
0
0
0
0
0
0
0
0
0
0
0
0
0
0
0
0
0
0
0
0
0
0
0
0
0
0
0
0
0
0
0
0
0
0
0
0
0
0
0
0
0
0
0
0
0
0
0
0
0
0
0
0
0
0
0
0
0
0
0
0
0
0
0
0
0
0
0
0
0
0
0
0
0
0
0
0
0
0
0
0
0
0
0
0
0
0
0
0
0
0
0
0
0
0
0
0
0
0
0
0
0
0
0
0
0
0
0
0
0
0
0
0
0
0
0
0
0
0
0
0
0
0
0
0
0
0
0
0
0
0
0
0
0
0
0
0
0
0
0
0
0
0
0
0
0
0
0
0
0
0
0
0
0
0
0
0
234
58
20
289
191
-29
174
219
-41
35
168
-75
-164
45
-36
-232
-59
2
-246
-177
27
-181
-264
-12
-110
-316
-158
-97
76
850
1427
1159
551
226
-41
-349
-262
-236
-448
-257
35
-121
-181
73
-24
-233
-10
88
-166
-113
97
-84
-163
80
-8
-211
25
125
-133
-61
168
-4
-100
170
142
-63
148
261
34
124
360
204
146
440
426
306
564
632
442
610
852
685
627
894
827
615
774
795
479
440
534
201
8
195
28
-254
-64
0
-302
-243
-44
-292
-382
-107
-218
-420
-203
-179
-433
-314
-107
-349
-415
-128
-236
-421
-186
-135
-362
-271
-79
-270
-345
-76
-171
-395
-176
-91
-356
-309
-108
-301
-376
-135
-229
-425
-230
-172
-421
-328
-135
-345
-386
-141
-256
-441
-228
-157
-399
-333
-143
-325
-393
-172
-253
-410
-188
-132
-381
-278
-75
-313
-387
-110
-200
-404
-187
-129
-377
-276
-90
-300
-367
-113
-207
-402
-166
-117
-385
-277
-70
-276
-346
-96
-184
-374
-161
-87
-346
-257
-31
-260
-320
-33
-105
-260
8
141
-107
-44
168
-76
-118
224
120
-117
102
142
-145
-45
131
-139
-244
-28
-148
-344
-138
-104
-385
-277
-63
-272
-312
-54
-168
-370
-167
-203
-331
374
1189
1204
895
504
-27
-303
-185
-225
-505
-351
-52
-188
-227
16
-91
-278
-52
7
-251
-155
49
-154
-187
82
-43
-253
-18
52
-194
-69
134
-96
-143
140
67
-105
124
194
-10
127
355
191
159
455
403
256
529
670
497
623
869
705
667
963
910
713
896
918
604
601
661
334
201
359
171
-73
100
90
-213
-127
42
-186
-257
-28
-125
-328
-115
-47
-319
-217
-18
-256
-294
-22
-155
-360
-116
-80
-337
-207
-36
-260
-294
-25
-125
-349
-135
-69
-332
-216
-30
-264
-310
-69
-158
-333
-143
-86
-318
-226
-50
-271
-320
-63
-165
-372
-138
-67
-371
-267
-50
-285
-338
-76
-162
-352
-143
-83
-337
-243
-65
-273
-311
-73
-185
-354
-106
-66
-347
-205
-10
-253
-295
-23
-120
-326
-77
-21
-299
-178
24
-207
-256
-2
-104
-287
-67
9
-263
-185
23
-188
-224
48
-18
-143
96
138
-103
-4
178
0
-31
216
142
-71
111
174
-84
13
144
-127
-174
73
-39
-257
-55
-9
-278
-177
16
-189
-231
15
-107
-316
-131
140
563
1245
1538
910
140
18
-176
-443
-273
-269
-448
-195
58
-147
-175
56
-66
-246
-24
54
-179
-78
115
-98
-143
110
1
-200
24
122
-106
-2
189
-21
-56
195
94
-65
182
257
39
178
400
214
207
504
433
311
615
709
518
702
899
691
715
974
817
633
836
779
427
465
536
205
71
243
57
-176
28
13
-282
-164
4
-254
-306
-69
-197
-377
-147
-108
-355
-234
-61
-270
-297
-58
-157
-324
-91
-30
-291
-201
-12
-213
-255
5
-105
-296
-58
-8
-276
-159
28
-214
-251
-9
-129
-321
-102
-48
-306
-206
-43
-268
-281
-3
-146
-346
-96
-74
-322
-183
-5
-248
-285
-12
-127
-301
-62
-29
-300
-178
32
-205
-273
-21
-134
-317
-69
-28
-290
-158
19
-215
-242
16
-114
-301
-64
-20
-277
-182
-12
-225
-260
-13
-130
-321
-89
-36
-288
-162
9
-213
-223
26
-94
-262
-25
51
-147
18
237
38
30
261
106
-46
242
304
32
137
303
48
16
281
107
-154
47
71
-195
-79
59
-185
-197
54
-74
-269
-38
8
-258
-156
-37
-242
167
1084
1330
1070
739
211
-207
-185
-117
-401
-387
1
-47
-196
43
70
-177
-59
119
-99
-123
154
29
-163
75
122
-102
27
208
-14
-43
223
105
-46
197
211
-15
136
328
108
99
398
297
154
440
525
327
479
714
544
556
883
801
676
981
1021
756
883
1032
740
639
786
537
273
412
337
13
88
202
-93
-131
99
-61
-226
0
21
-235
-136
28
-209
-258
-11
-130
-304
-62
-44
-299
-131
29
-226
-228
20
-112
-272
-31
-6
-272
-141
41
-190
-220
41
-82
-247
0
-15
-288
-129
41
-219
-228
22
-134
-299
-69
-39
-268
-163
2
-226
-282
-19
-150
-361
-116
-72
-314
-182
-31
-263
-275
-19
-148
-319
-80
-59
-303
-160
14
-215
-224
12
-137
-278
-49
-28
-258
-149
17
-210
-239
7
-127
-283
-39
-32
-291
-137
43
-219
-249
34
-96
-287
-29
-9
-259
-107
42
-204
-200
87
-17
-122
163
187
-60
62
209
-26
24
309
131
-42
192
187
-63
66
198
-87
-177
35
-86
-241
-15
-19
-271
-131
30
-211
-229
21
-117
-274
-77
-103
-47
770
1438
1181
656
301
-51
-313
-234
-232
-452
-229
66
-149
-155
122
-20
-175
72
90
-159
0
176
-86
-98
164
38
-112
133
164
-85
64
236
-5
19
281
149
13
266
286
68
258
420
209
267
551
442
349
662
726
529
708
930
755
766
1046
937
774
976
911
600
656
703
361
239
404
189
-39
157
106
-195
-57
79
-195
-219
9
-102
-249
-33
-16
-253
-97
51
-214
-216
34
-105
-257
-29
-12
-250
-107
51
-194
-211
37
-86
-240
-7
26
-216
-95
73
-170
-189
64
-87
-275
-59
-52
-282
-118
32
-204
-200
38
-100
-265
-45
-45
-283
-126
30
-203
-207
36
-105
-280
-43
3
-253
-134
36
-227
-241
31
-108
-270
-54
-43
-281
-158
21
-221
-254
20
-110
-297
-68
-42
-262
-113
40
-216
-253
-1
-113
-264
-43
-33
-268
-149
18
-212
-247
27
-108
-282
-6
50
-159
24
213
-39
-79
173
76
-53
197
202
-66
71
220
-32
-60
154
-30
-224
-3
-6
-259
-138
18
-204
-229
-9
-153
-314
-74
-73
-314
-198
43
372
1046
1557
1169
304
33
-68
-443
-377
-228
-439
-320
45
-65
-242
12
51
-237
-82
132
-135
-146
114
-25
-160
101
98
-166
9
184
-48
-44
198
57
-80
179
181
-61
113
324
86
63
385
291
120
384
480
308
495
727
528
554
871
767
637
903
931
675
756
864
551
426
563
304
66
240
175
-125
-32
100
-198
-247
24
-133
-310
-95
-115
-337
-197
-71
-292
-283
-53
-183
-325
-88
-75
-331
-200
-22
-266
-292
-24
-151
-332
-91
-57
-316
-183
-7
-235
-267
-26
-142
-318
-72
-39
-312
-182
-9
-262
-267
-9
-158
-328
-123
-81
-305
-189
-16
-253
-273
-40
-170
-311
-87
-74
-334
-195
-18
-266
-281
-26
-169
-336
-101
-108
-354
-186
-35
-299
-300
-32
-198
-359
-92
-85
-329
-200
-45
-265
-293
-56
-186
-331
-90
-85
-323
-189
-29
-244
-215
114
25
-157
83
88
-176
-6
205
-9
-57
167
30
-146
84
80
-206
-88
35
-253
-256
-19
-206
-372
-109
-110
-380
-229
-52
-290
-314
-85
-309
-396
391
1048
1076
1024
564
-172
-301
-144
-381
-562
-263
-148
-295
-118
18
-212
-214
15
-118
-256
-22
-10
-241
-86
65
-185
-170
95
-42
-199
42
70
-165
-5
184
-46
-67
180
76
-48
209
240
37
231
417
211
250
558
471
370
666
719
528
702
886
672
664
891
716
489
623
544
182
207
291
-61
-165
51
-134
-331
-126
-133
-397
-297
-132
-370
-402
-157
-288
-443
-220
-219
-457
-301
-133
-371
-384
-131
-265
-450
-208
-165
-414
-264
-106
-353
-348
-92
-231
-390
-134
-142
-407
-247
-89
-314
-329
-98
-212
-376
-168
-149
-389
-261
-91
-322
-338
-101
-250
-382
-132
-134
-377
-226
-60
-323
-340
-71
-225
-388
-130
-102
-366
-247
-64
-280
-313
-81
-210
-368
-141
-147
-374
-220
-63
-290
-295
-41
-197
-386
-141
-124
-371
-223
-71
-312
-330
-74
-204
-340
-99
-119
-346
-201
-49
-285
-291
-10
-100
-200
71
96
-158
-50
113
-72
-61
169
19
-152
70
72
-171
-70
28
-246
-292
-39
-168
-370
-138
-131
-399
-242
-82
-329
-327
-69
-210
-421
-212
126
556
1182
1365
627
-45
-12
-203
-504
-312
-273
-420
-153
54
-192
-197
56
-75
-227
32
44
-228
-67
108
-142
-134
123
-32
-203
57
98
-154
-15
143
-80
-53
216
88
-68
191
226
19
212
383
190
225
516
460
316
602
707
504
680
877
701
740
970
806
614
807
755
412
445
494
171
75
236
29
-191
27
27
-259
-141
11
-231
-252
-40
-189
-349
-109
-95
-352
-214
-63
-305
-307
-64
-224
-368
-115
-111
-337
-199
-36
-282
-303
-12
-153
-325
-84
-87
-342
-215
-45
-266
-287
-51
-185
-346
-129
-131
-366
-219
-80
-314
-303
-64
-215
-364
-118
-112
-353
-232
-66
-283
-328
-67
-182
-353
-102
-97
-341
-182
-34
-273
-278
-15
-161
-338
-95
-102
-350
-192
-41
-289
-290
-26
-166
-322
-68
-74
-349
-192
-8
-245
-258
-17
-140
-287
-43
32
-120
54
196
-45
-55
201
95
-41
197
203
-73
23
184
-59
-87
122
-96
-302
-63
-43
-323
-217
-41
-268
-311
-70
-181
-336
-105
-99
-362
-273
100
527
1089
1495
975
77
-56
-123
-478
-408
-242
-385
-308
7
-77
-249
-17
-3
-247
-72
92
-149
-132
107
-41
-178
44
54
-154
-9
157
-69
-72
184
48
-100
154
192
-34
136
328
92
109
412
331
217
490
571
369
569
826
646
680
966
859
724
1006
1034
752
839
894
569
473
587
365
128
271
227
-71
32
166
-115
-147
87
-60
-218
-2
0
-222
-108
37
-182
-203
71
-66
-255
-12
34
-204
-92
88
-151
-182
96
-41
-242
-8
29
-231
-83
98
-156
-182
53
-75
-246
-31
-4
-256
-103
42
-214
-199
16
-126
-266
-67
-56
-274
-148
13
-218
-252
-20
-150
-297
-62
-55
-306
-161
11
-226
-245
15
-142
-308
-41
-42
-292
-155
6
-216
-244
-8
-121
-262
-31
-29
-275
-139
21
-198
-216
24
-105
-282
-39
0
-264
-155
17
-197
-193
81
4
-95
154
165
-115
-1
204
19
11
234
96
-86
124
165
-95
4
109
-212
-225
51
-125
-302
-65
-70
-311
-171
-23
-258
-272
-13
-169
-404
39
711
1028
1256
1019
93
-278
-88
-326
-583
-367
-251
-369
-148
38
-203
-215
32
-89
-244
-13
13
-217
-100
67
-127
-148
99
-40
-202
59
72
-169
-19
148
-65
-64
175
48
-75
208
256
26
215
436
215
238
547
477
382
661
739
565
745
958
749
722
978
819
597
776
708
354
370
448
131
16
214
23
-216
-24
-32
-300
-183
-21
-257
-295
-59
-193
-365
-126
-112
-378
-227
-42
-282
-324
-70
-172
-351
-119
-60
-307
-202
-27
-242
-272
-40
-175
-355
-118
-79
-332
-214
-50
-270
-305
-78
-216
-397
-138
-101
-374
-241
-62
-307
-333
-74
-204
-383
-137
-95
-357
-237
-58
-299
-333
-79
-212
-391
-153
-131
-382
-232
-62
-301
-328
-59
-177
-361
-113
-108
-375
-210
-36
-307
-333
-49
-188
-391
-151
-110
-359
-232
-51
-272
-295
-54
-198
-360
-98
-52
-243
-35
159
-85
-134
105
-9
-121
155
151
-104
18
166
-53
-80
123
-64
-292
-72
-36
-303
-200
-44
-277
-304
-54
-188
-357
-109
-93
-352
-281
-118
94
762
1382
1169
429
87
-60
-400
-377
-243
-420
-339
20
-62
-235
3
15
-214
-89
59
-159
-190
71
-28
-219
20
73
-176
-47
128
-97
-110
154
19
-148
136
179
-61
102
286
81
100
385
295
160
468
558
331
536
779
573
601
925
850
711
978
1006
708
805
951
625
482
640
410
135
282
236
-77
6
145
-105
-149
79
-50
-223
-5
-7
-276
-115
77
-176
-203
54
-72
-248
-23
-6
-257
-127
54
-172
-209
48
-70
-253
-13
28
-251
-123
65
-188
-210
47
-72
-247
-37
10
-230
-118
65
-169
-224
30
-72
-235
-2
40
-219
-110
91
-156
-197
75
-69
-260
-20
30
-236
-122
63
-173
-201
51
-63
-233
-28
9
-221
-105
72
-152
-165
79
-87
-242
4
14
-230
-101
61
-181
-197
78
-46
-208
48
66
-151
74
289
29
-13
221
86
-24
264
286
1
118
308
60
15
251
74
-165
5
17
-210
-103
32
-205
-230
23
-102
-278
-37
0
-250
-117
-5
-187
329
1262
1408
1014
580
117
-235
-249
-163
-387
-371
15
-1
-163
47
80
-153
-23
160
-77
-115
159
38
-136
110
147
-97
27
208
-20
-24
267
130
-57
197
254
37
179
339
123
141
420
327
198
465
548
341
527
788
603
623
933
850
709
980
1033
766
885
1032
728
611
756
518
230
365
313
-7
74
207
-78
-171
61
-59
-267
-47
-8
-277
-178
11
-205
-259
7
-103
-312
-81
-22
-286
-156
29
-217
-224
28
-107
-268
-46
-4
-249
-135
49
-195
-239
15
-102
-297
-69
-3
-263
-155
21
-218
-246
9
-142
-328
-78
-61
-336
-204
-13
-254
-311
-44
-147
-346
-109
-76
-356
-226
-32
-275
-337
-70
-152
-331
-112
-56
-299
-198
-24
-277
-320
-46
-185
-366
-109
-76
-330
-199
-24
-256
-289
-31
-160
-337
-81
-45
-312
-189
9
-210
-249
71
33
-132
92
129
-139
-14
220
17
-40
191
67
-132
91
129
-165
-102
24
-214
-240
-9
-150
-352
-119
-62
-332
-218
-36
-269
-292
-24
-160
-386
181
958
1157
1244
896
7
-304
-154
-343
-553
-302
-145
-294
-144
69
-135
-201
41
-65
-236
6
46
-198
-69
121
-91
-136
113
14
-186
34
113
-146
-25
218
10
-19
251
126
-25
239
297
76
233
456
275
291
609
568
418
676
790
587
742
971
759
720
965
804
552
716
681
334
344
415
109
4
184
7
-209
-19
-6
-279
-193
-14
-246
-292
-22
-158
-371
-125
-69
-309
-192
-45
-289
-318
-38
-150
-332
-82
-25
-280
-184
-16
-236
-260
8
-117
-303
-50
-4
-294
-191
1
-236
-270
-22
-139
-327
-126
-63
-301
-206
-17
-243
-288
-12
-144
-344
-105
-67
-302
-178
-17
-248
-289
-25
-129
-330
-108
-65
-320
-180
-3
-249
-278
-26
-138
-306
-81
-36
-291
-165
23
-235
-284
-17
-136
-324
-103
-58
-320
-212
-25
-271
-301
-58
-180
-326
-115
-60
-273
-125
124
-87
-151
99
-32
-220
54
131
-150
-30
168
-118
-163
107
-71
-318
-121
-90
-345
-236
-90
-344
-361
-97
-222
-412
-200
-148
-389
-294
-182
-394
35
996
1212
846
438
-73
-482
-445
-325
-615
-652
-251
-216
-361
-149
-76
-315
-215
5
-204
-278
-34
-119
-286
-67
-12
-260
-154
57
-151
-201
51
-64
-233
12
69
-166
-31
180
-21
-36
262
188
40
309
405
214
400
641
462
479
791
735
592
849
929
689
777
911
621
492
649
430
128
279
261
-92
-52
114
-163
-250
27
-123
-348
-111
-85
-360
-245
-40
-264
-314
-62
-198
-381
-123
-76
-326
-201
-23
-238
-292
-36
-119
-331
-114
-52
-325
-199
2
-253
-286
-31
-165
-335
-101
-81
-360
-245
-64
-278
-308
-81
-192
-376
-167
-107
-365
-269
-67
-294
-359
-93
-184
-374
-160
-122
-382
-267
-62
-290
-357
-78
-202
-408
-145
-96
-359
-240
-61
-279
-317
-62
-166
-349
-93
-35
-321
-214
4
-216
-274
-3
-117
-322
-91
-36
-307
-178
24
-196
-168
147
47
-128
96
113
-149
23
258
8
-62
194
68
-145
71
103
-212
-153
7
-216
-258
-20
-140
-348
-148
-87
-340
-249
-35
-254
-333
-120
-264
-182
690
1241
1029
673
224
-247
-374
-261
-422
-573
-236
-53
-241
-129
60
-180
-248
47
-29
-234
-13
51
-198
-88
108
-108
-168
90
-3
-181
68
129
-115
13
213
-6
-44
243
153
-12
256
327
108
273
513
345
367
696
622
478
781
896
687
827
1037
838
796
1032
851
576
728
657
286
291
393
107
-31
170
17
-228
6
20
-275
-148
13
-217
-239
25
-110
-310
-60
-31
-297
-175
22
-194
-264
-6
-99
-296
-67
-6
-263
-163
30
-198
-247
0
-102
-253
-55
-36
-273
-181
2
-194
-266
-25
-117
-329
-105
-31
-304
-211
-24
-243
-281
-25
-123
-332
-129
-67
-311
-190
-21
-261
-299
-35
-123
-336
-134
-41
-299
-216
-3
-219
-268
-25
-145
-310
-86
-29
-265
-183
-11
-216
-254
2
-98
-284
-46
22
-257
-155
42
-182
-230
32
-34
-206
35
150
-58
55
244
8
-33
272
172
-52
135
166
-100
-6
196
-38
-132
74
-80
-279
-44
-4
-278
-167
42
-195
-272
-9
-84
-261
-65
-83
-337
208
1087
1207
1063
743
39
-277
-153
-230
-506
-383
-60
-158
-184
72
-28
-232
-7
69
-188
-75
142
-79
-158
99
37
-151
80
157
-102
13
220
3
-41
215
119
-65
174
269
44
191
405
199
156
437
418
285
546
657
458
623
871
705
681
969
908
700
913
955
619
648
757
404
231
394
210
-50
119
129
-176
-135
40
-180
-277
-30
-125
-323
-95
-45
-311
-211
-13
-228
-293
-29
-115
-308
-87
-21
-268
-184
12
-189
-237
22
-91
-279
-33
12
-272
-152
49
-187
-228
29
-105
-295
-61
-26
-276
-155
32
-188
-246
-9
-111
-287
-73
-18
-269
-175
25
-179
-245
-15
-118
-307
-99
-45
-289
-192
7
-199
-259
5
-84
-260
-48
-25
-276
-173
14
-201
-249
25
-87
-313
-89
13
-251
-198
22
-171
-252
19
-77
-298
-52
15
-260
-144
55
-185
-227
53
-44
-215
25
136
-57
56
252
6
-78
216
180
-12
187
253
-42
22
232
13
-100
78
-71
-277
-25
33
-270
-129
97
-168
-228
21
-101
-285
-75
-27
-318
-139
605
1072
1264
1268
488
-247
-159
-194
-505
-426
-208
-301
-250
76
0
-212
17
93
-158
-55
139
-80
-141
128
38
-145
112
193
-83
23
240
15
-32
236
129
-62
193
277
23
140
344
150
143
431
372
226
498
621
416
556
795
643
638
926
874
697
898
945
663
708
851
519
314
484
306
12
171
176
-143
-73
108
-145
-254
-2
-89
-298
-78
-22
-278
-177
28
-197
-276
-24
-117
-302
-70
5
-271
-180
37
-170
-232
15
-86
-271
-44
-9
-268
-141
45
-194
-246
14
-88
-285
-73
-4
-263
-209
-7
-198
-272
-27
-124
-314
-115
-53
-290
-213
-12
-220
-298
-31
-133
-364
-138
-40
-319
-243
1
-228
-320
-41
-146
-349
-117
-62
-330
-224
-32
-265
-312
-48
-152
-347
-118
-43
-306
-230
-19
-214
-293
-34
-90
-256
-4
118
-107
-25
172
-68
-153
136
78
-124
87
155
-128
-47
183
-51
-205
-3
-100
-305
-115
-56
-305
-236
-45
-240
-300
-29
-124
-346
-99
-35
-377
-129
687
1073
1151
1044
247
-354
-214
-256
-567
-490
-228
-289
-236
61
-11
-210
-9
68
-187
-87
120
-110
-181
103
34
-166
55
121
-124
-26
171
-26
-80
182
103
-83
148
237
-9
107
352
155
116
431
382
218
480
622
440
592
851
680
665
976
909
734
947
980
680
697
799
491
340
476
278
-1
129
162
-136
-112
73
-156
-261
-8
-106
-318
-104
-61
-313
-209
-24
-228
-280
-33
-129
-308
-90
-26
-276
-176
54
-153
-240
25
-53
-276
-56
37
-243
-177
27
-174
-273
-48
-120
-338
-141
-56
-313
-255
-56
-241
-335
-95
-178
-384
-148
-59
-325
-237
-46
-255
-297
-60
-162
-370
-159
-65
-326
-261
-39
-221
-313
-58
-124
-328
-128
-65
-309
-228
-33
-237
-313
-58
-132
-342
-134
-61
-313
-216
-25
-228
-309
-74
-137
-328
-121
11
-161
-67
134
-83
-179
94
38
-135
88
145
-132
-51
150
-80
-179
37
-108
-358
-155
-81
-335
-258
-77
-288
-362
-120
-193
-388
-178
-87
-359
-370
-42
369
899
1316
954
83
-109
-80
-483
-497
-291
-424
-362
-21
-77
-289
-92
3
-239
-164
40
-144
-203
26
-28
-205
-20
95
-124
-53
176
-3
-90
159
104
-94
115
229
-22
53
309
134
56
356
348
182
435
565
354
492
761
627
591
896
897
709
916
1028
744
760
914
591
394
567
392
86
200
210
-85
-52
129
-85
-210
20
-75
-293
-82
-16
-264
-197
-2
-194
-280
-24
-99
-322
-126
-45
-295
-233
-34
-232
-309
-19
-81
-317
-113
-8
-270
-224
5
-198
-302
-27
-105
-325
-131
-57
-288
-205
-7
-209
-297
-43
-119
-356
-138
-29
-311
-249
-25
-222
-304
-34
-108
-323
-117
-40
-294
-220
0
-207
-313
-55
-109
-314
-125
-26
-270
-230
-14
-202
-294
-37
-101
-315
-138
-36
-287
-237
-8
-204
-313
-30
-82
-319
-81
35
-222
-87
206
34
-83
161
113
-92
141
253
-29
31
232
13
-65
178
69
-217
-75
23
-234
-189
13
-196
-301
-37
-92
-314
-111
-17
-281
-234
-80
-233
167
1092
1339
958
513
84
-274
-343
-242
-439
-472
-97
-48
-228
-43
76
-182
-133
100
-81
-177
96
43
-203
-2
108
-147
-94
137
-43
-142
131
89
-128
70
201
-41
8
264
107
23
336
320
111
361
521
321
458
739
581
525
864
868
680
911
1041
795
828
1007
755
568
717
549
224
307
311
-7
-7
167
-50
-192
43
-23
-273
-79
32
-232
-196
24
-167
-297
-44
-81
-318
-133
-5
-271
-229
20
-166
-292
-40
-70
-274
-109
6
-220
-203
8
-144
-235
-2
-67
-295
-96
33
-256
-207
43
-165
-282
-45
-111
-328
-153
-49
-299
-274
-69
-256
-336
-81
-173
-381
-189
-105
-321
-275
-84
-249
-344
-87
-129
-360
-179
-81
-342
-281
-57
-248
-335
-83
-151
-378
-176
-72
-339
-270
-48
-250
-349
-90
-151
-381
-171
-44
-303
-268
-41
-174
-262
19
45
-189
-24
101
-160
-79
184
13
-81
174
117
-147
17
128
-161
-169
2
-191
-297
-67
-131
-387
-210
-74
-302
-260
-48
-228
-340
-90
-186
-412
227
1081
1215
1112
684
-113
-383
-211
-346
-622
-421
-168
-281
-198
51
-107
-250
4
-25
-243
-49
46
-203
-151
86
-71
-188
85
78
-170
1
139
-90
-25
222
62
-42
226
215
13
206
358
153
207
484
339
275
638
617
415
683
845
663
753
999
854
729
964
904
619
702
692
342
315
471
185
-10
194
109
-149
-16
70
-200
-193
9
-188
-308
-36
-64
-310
-144
-32
-276
-214
19
-166
-277
-28
-67
-270
-80
24
-244
-204
59
-105
-240
14
-26
-261
-74
36
-220
-170
42
-158
-258
-6
-56
-281
-105
-3
-251
-210
12
-162
-287
-26
-75
-314
-123
-23
-272
-230
-5
-174
-311
-52
-66
-325
-153
-18
-272
-229
3
-194
-327
-60
-82
-328
-150
-26
-301
-262
-11
-170
-302
-83
-100
-319
-164
-29
-271
-225
34
-131
-184
122
86
-150
-9
114
-92
-33
203
40
-77
131
74
-140
17
88
-211
-226
-3
-176
-345
-109
-127
-368
-198
-70
-308
-271
-37
-211
-344
-170
-116
235
1046
1394
872
192
-46
-302
-512
-317
-397
-580
-242
-13
-239
-210
38
-133
-278
-32
-38
-245
-87
44
-177
-159
81
-79
-193
75
61
-165
5
156
-97
-74
190
31
-83
195
182
-31
188
362
137
193
479
380
355
708
748
561
779
943
718
785
1061
887
720
929
849
532
577
583
241
172
342
105
-113
87
42
-214
-74
37
-221
-222
-14
-177
-307
-73
-86
-326
-171
-27
-284
-263
-8
-188
-339
-67
-53
-276
-110
18
-227
-189
47
-129
-260
-2
-40
-301
-114
34
-238
-225
7
-161
-283
-38
-56
-296
-144
0
-242
-261
-27
-144
-273
-47
-52
-272
-120
4
-242
-207
19
-146
-273
-37
-33
-259
-100
24
-218
-183
62
-100
-250
-8
-34
-272
-88
48
-208
-183
43
-122
-255
-17
-7
-226
-79
48
-201
-177
75
-36
-93
179
153
-90
44
177
2
69
286
106
-23
200
185
-36
49
147
-128
-188
59
-85
-270
-37
-20
-274
-145
6
-236
-235
6
-157
-328
-127
105
513
1185
1417
760
106
62
-172
-447
-248
-259
-421
-126
63
-166
-137
88
-71
-202
37
16
-215
-39
118
-124
-110
142
-7
-150
102
104
-121
47
204
-31
-19
237
82
-30
252
251
39
238
419
214
278
551
440
375
666
713
547
745
918
718
770
1044
868
667
867
802
467
508
543
199
104
266
56
-144
51
11
-251
-102
46
-235
-245
6
-159
-301
-70
-88
-304
-146
-1
-231
-229
-4
-150
-265
-27
-35
-251
-108
34
-188
-175
56
-121
-265
-5
-34
-289
-123
12
-237
-231
14
-127
-286
-53
-60
-299
-155
-12
-228
-226
3
-156
-305
-49
-54
-258
-60
83
-171
-175
85
-63
-249
-7
1
-248
-72
91
-191
-203
48
-120
-265
-44
-74
-310
-171
-15
-249
-261
-7
-158
-324
-68
-70
-325
-165
-13
-250
-246
-14
-146
-275
-32
-25
-223
5
193
-49
-64
166
19
-108
164
161
-69
87
212
-45
-39
205
-10
-217
13
-11
-257
-112
-5
-257
-216
35
-129
-267
-9
-21
-282
-135
-47
-222
323
1216
1305
907
505
64
-252
-224
-181
-454
-383
23
-36
-154
101
116
-105
54
202
-60
-53
205
34
-132
98
108
-116
31
201
-34
-40
224
77
-74
196
228
-9
147
350
142
145
431
306
174
476
539
366
558
762
589
636
947
834
697
1003
1051
791
929
1027
706
643
769
528
273
378
329
44
94
211
-37
-89
133
-25
-216
15
32
-229
-113
36
-181
-191
33
-109
-256
-26
-35
-264
-114
29
-216
-219
39
-117
-273
-24
-8
-240
-117
34
-211
-216
47
-120
-280
-4
-5
-273
-127
13
-235
-234
19
-123
-314
-53
-9
-299
-166
-2
-238
-253
-16
-147
-318
-72
-57
-312
-159
13
-240
-256
1
-154
-312
-62
-42
-268
-133
30
-218
-254
11
-149
-324
-53
-65
-320
-156
-8
-241
-252
-23
-161
-306
-66
-54
-301
-166
27
-179
-161
141
36
-76
158
108
-130
48
233
8
6
224
30
-120
139
130
-186
-127
21
-203
-227
-8
-168
-320
-78
-89
-332
-168
-15
-264
-277
-49
-248
-246
634
1261
1172
967
380
-285
-350
-243
-468
-609
-275
-135
-300
-135
43
-174
-190
53
-71
-199
22
20
-189
-27
128
-116
-135
124
-1
-164
100
115
-143
26
230
21
-2
257
171
42
280
322
114
290
508
314
355
662
587
489
761
828
639
832
1031
790
769
995
817
589
726
642
300
351
438
119
34
225
21
-179
42
29
-252
-127
19
-240
-235
7
-138
-294
-68
-43
-308
-192
-13
-235
-238
20
-137
-325
-65
-44
-283
-125
4
-228
-209
8
-145
-263
-10
-28
-301
-165
11
-238
-253
6
-139
-295
-75
-75
-307
-166
-16
-270
-261
1
-168
-321
-78
-102
-343
-171
-11
-247
-260
-57
-176
-295
-89
-98
-338
-163
12
-256
-258
-24
-186
-295
-45
-58
-303
-156
19
-219
-247
12
-119
-289
-50
-39
-275
-86
129
-85
-74
180
36
-140
103
171
-82
18
203
-34
-77
181
40
-146
48
9
-252
-125
2
-239
-256
-31
-151
-292
-48
-49
-314
-179
-4
-287
-264
506
1020
1083
1089
456
-318
-320
-263
-569
-577
-258
-269
-310
-8
13
-209
-64
82
-161
-177
92
-29
-193
55
73
-194
-47
138
-95
-103
142
19
-126
107
142
-88
52
209
6
54
297
184
93
348
382
196
390
613
436
473
796
728
601
892
949
709
852
974
683
595
746
525
263
399
291
-46
67
161
-165
-206
3
-172
-332
-126
-145
-371
-231
-95
-324
-331
-73
-207
-374
-121
-113
-368
-227
-61
-310
-326
-71
-212
-356
-126
-121
-355
-218
-41
-278
-304
-49
-194
-365
-140
-128
-376
-244
-83
-325
-335
-99
-241
-380
-122
-125
-385
-239
-77
-301
-319
-64
-168
-316
-85
-73
-318
-192
-26
-259
-294
-50
-186
-363
-143
-141
-370
-212
-78
-317
-301
-73
-210
-351
-132
-103
-357
-242
-46
-268
-270
12
-78
-198
47
55
-199
-63
119
-77
-70
157
8
-153
60
65
-168
-64
12
-282
-277
-22
-193
-377
-147
-145
-399
-241
-87
-338
-332
-70
-217
-444
-182
285
727
1185
1153
303
-286
-180
-386
-629
-410
-380
-500
-217
27
-152
-140
97
-55
-248
6
46
-225
-87
70
-167
-168
76
-64
-218
40
62
-163
8
169
-64
-72
175
73
-57
210
245
-8
188
390
157
190
502
426
313
616
671
467
677
853
657
699
927
770
572
733
660
329
401
445
89
27
204
-12
-215
0
-8
-284
-153
-7
-283
-318
-54
-144
-272
-57
-73
-312
-175
-44
-278
-278
-53
-187
-340
-117
-75
-301
-177
-16
-245
-242
-4
-154
-298
-84
-98
-330
-193
-29
-254
-288
-51
-192
-359
-120
-124
-375
-215
-54
-301
-313
-51
-192
-372
-129
-102
-349
-222
-70
-305
-287
-23
-200
-361
-98
-103
-358
-217
-64
-292
-295
-57
-187
-345
-123
-103
-353
-229
-59
-276
-269
9
-91
-250
-39
-14
-260
-121
76
-125
-60
234
68
-113
98
91
-101
93
221
-43
-31
177
-3
-137
72
3
-302
-179
-16
-276
-302
-66
-208
-356
-132
-139
-366
-195
-53
-327
-366
-147
19
560
1247
1265
573
64
1
-304
-431
-221
-368
-411
-31
17
-239
-100
56
-196
-208
49
-96
-252
14
24
-235
-81
94
-143
-141
134
-8
-179
81
104
-134
37
224
1
24
342
243
85
345
394
194
382
564
384
439
719
645
530
814
899
665
824
1023
782
738
924
705
455
594
499
167
210
282
-19
-90
122
-62
-251
-18
-20
-290
-146
28
-252
-266
7
-171
-325
-48
-52
-300
-134
8
-244
-241
5
-125
-273
-29
-24
-285
-134
14
-239
-235
17
-126
-295
-69
-60
-297
-145
19
-242
-279
-2
-98
-243
-16
-15
-261
-120
23
-248
-239
18
-154
-280
-8
-38
-317
-172
0
-239
-258
-2
-156
-335
-47
-47
-329
-146
-10
-288
-284
-35
-177
-329
-90
-75
-321
-182
-18
-270
-279
-17
-147
-319
-73
-21
-245
-39
173
-47
-56
162
8
-149
112
138
-103
45
185
-93
-103
147
-68
-302
-96
-96
-332
-199
-75
-322
-312
-58
-188
-312
-17
0
-278
-140
-57
-238
316
1219
1296
943
585
89
-264
-237
-187
-425
-394
-52
-109
-253
-13
2
-239
-83
82
-156
-154
98
-51
-212
33
40
-211
-56
115
-107
-112
130
6
-143
108
136
-92
88
277
32
54
347
232
123
386
438
261
451
672
493
550
857
743
630
907
913
673
822
938
629
526
664
408
154
320
244
-69
36
140
-147
-169
53
-99
-273
-55
-49
-318
-157
10
-270
-277
-23
-165
-315
-90
-91
-318
-181
-38
-262
-266
-4
-128
-294
-38
-36
-281
-113
10
-237
-215
31
-141
-300
-39
-64
-306
-132
25
-220
-241
26
-114
-279
-32
-41
-261
-41
128
-147
-151
81
-71
-217
1
-9
-242
-89
49
-195
-201
36
-93
-244
2
20
-238
-82
70
-183
-158
103
-58
-227
3
14
-216
-81
66
-193
-204
61
-78
-235
12
17
-239
-100
47
-170
-121
165
43
-87
160
136
-129
62
296
48
16
299
119
-91
178
180
-128
-49
70
-177
-200
40
-111
-314
-84
-64
-317
-153
9
-251
-251
-1
-204
-233
604
1243
1220
1102
534
-205
-270
-135
-394
-544
-219
-82
-241
-42
116
-147
-136
116
13
-99
119
106
-139
6
174
-52
-53
168
25
-76
168
142
-89
78
235
14
29
276
164
44
303
338
124
317
521
319
362
676
603
500
796
847
636
843
1013
785
802
996
797
609
761
654
323
370
422
104
56
232
23
-149
58
48
-210
-90
39
-233
-198
67
-100
-229
38
49
-230
-86
99
-141
-134
99
-74
-227
26
26
-232
-63
113
-161
-178
73
-69
-228
-6
-11
-256
-116
27
-209
-209
45
-113
-280
-37
-48
-271
-117
4
-232
-226
4
-152
-305
-70
-78
-284
-82
56
-204
-182
61
-92
-235
6
-2
-252
-88
57
-196
-178
68
-93
-235
17
6
-238
-80
62
-186
-171
69
-74
-144
114
52
-189
-21
123
-133
-123
131
-19
-101
189
177
-57
80
192
-15
60
289
102
-45
175
155
-83
48
105
-219
-215
26
-143
-311
-94
-93
-323
-172
-32
-276
-256
0
-158
-314
-124
21
384
1117
1408
808
94
-96
-325
-546
-338
-379
-577
-257
2
-202
-191
50
-102
-249
3
9
-234
-82
121
-71
-76
154
5
-137
97
115
-98
40
161
-63
-16
221
57
-62
213
209
-32
175
380
152
194
505
413
303
576
628
447
659
861
637
665
937
752
574
798
721
400
471
486
122
47
209
-16
-206
-9
-47
-303
-176
-60
-323
-311
-74
-265
-412
-140
-130
-375
-238
-93
-325
-308
-77
-240
-351
-90
-132
-384
-211
-76
-340
-308
-65
-251
-387
-129
-101
-311
-176
-42
-287
-288
-64
-238
-378
-133
-166
-412
-234
-98
-370
-348
-98
-267
-423
-179
-192
-458
-278
-115
-382
-368
-137
-313
-435
-176
-188
-434
-289
-147
-393
-376
-139
-294
-424
-197
-209
-420
-240
-122
-376
-338
-109
-276
-381
-120
-151
-395
-243
-86
-313
-318
-78
-227
-346
-82
-97
-336
-139
62
-137
-89
129
-67
-184
69
82
-116
30
150
-104
-101
123
-66
-226
-16
-107
-372
-201
-99
-367
-342
-125
-304
-410
-160
-190
-410
-250
-116
-404
-407
218
743
1003
1201
655
-199
-228
-184
-558
-570
-280
-335
-361
-60
-100
-317
-122
10
-240
-214
40
-142
-255
17
-11
-229
-37
109
-143
-102
143
-24
-132
118
109
-100
84
243
26
75
332
180
67
363
399
188
374
576
406
478
753
643
591
904
900
680
880
1018
720
686
840
553
340
503
378
71
185
254
-69
-99
126
-53
-208
47
1
-253
-56
59
-212
-167
59
-135
-256
-12
-51
-282
-105
28
-222
-193
39
-116
-228
24
3
-242
-76
53
-219
-180
74
-114
-245
9
-39
-279
-97
40
-212
-199
41
-132
-257
7
-29
-267
-105
12
-230
-201
17
-167
-270
-12
-60
-290
-114
5
-244
-211
7
-177
-299
-50
-76
-305
-118
-10
-287
-232
13
-162
-291
-20
-40
-310
-142
9
-240
-223
24
-142
-251
34
6
-229
-27
167
-19
9
202
8
-115
177
197
-44
100
229
-25
-15
217
37
-135
57
-19
-276
-94
32
-251
-249
-21
-197
-313
-59
-87
-306
-142
-32
-324
-300
343
874
1137
1298
705
-122
-101
-62
-452
-440
-172
-240
-234
60
23
-185
-20
80
-134
-77
138
-11
-82
176
140
-77
103
227
-9
22
247
86
-38
206
173
-46
169
316
77
153
406
251
171
437
446
261
500
685
468
588
867
705
660
987
984
771
950
1068
798
761
923
666
423
567
410
84
220
321
34
12
194
-36
-174
93
57
-192
-35
95
-164
-145
99
-88
-238
24
0
-227
-56
24
-216
-158
54
-118
-229
15
-27
-259
-85
10
-233
-184
18
-160
-255
-13
-75
-260
-70
20
-215
-196
12
-157
-281
-36
-50
-261
-101
9
-248
-219
18
-154
-261
-16
-46
-256
-92
35
-209
-159
72
-141
-267
-18
-61
-267
-90
14
-221
-200
4
-154
-240
11
-38
-235
-18
97
-184
-131
130
-75
-218
56
31
-199
-7
106
-117
11
281
89
-46
195
149
-41
209
307
26
86
295
92
-22
210
95
-198
-41
46
-212
-169
33
-158
-278
-31
-72
-300
-109
-9
-253
-199
-71
-185
274
1214
1441
985
483
92
-250
-333
-187
-383
-454
-27
57
-149
61
191
-85
-24
217
11
-94
162
102
-90
124
220
-55
-13
238
49
-74
180
141
-78
102
233
24
85
301
147
69
344
331
161
404
550
332
427
704
570
518
824
828
654
874
995
746
786
974
720
530
686
531
244
348
343
14
-8
188
-18
-170
60
-12
-247
-66
40
-229
-189
42
-154
-251
8
-37
-247
-85
29
-173
-111
92
-79
-140
104
34
-163
24
114
-135
-85
135
-71
-173
99
13
-235
-46
34
-230
-164
57
-123
-226
19
-55
-288
-67
14
-261
-187
25
-145
-257
-26
-68
-309
-109
12
-244
-176
18
-196
-298
-38
-82
-331
-143
-17
-259
-214
14
-173
-300
-21
-57
-278
-88
17
-239
-188
46
-161
-273
-20
-70
-267
-65
40
-169
-34
198
-22
-113
155
85
-109
122
212
-22
48
227
26
-66
146
27
-246
-93
12
-248
-215
5
-195
-298
-50
-124
-339
-130
-32
-298
-273
-61
172
778
1337
1103
269
-148
-205
-527
-541
-338
-537
-526
-114
-96
-298
-95
-7
-250
-169
23
-165
-226
11
-55
-241
-47
49
-199
-133
106
-79
-170
108
58
-145
78
196
-54
21
265
82
1
299
295
140
393
538
346
472
743
578
539
876
830
636
870
967
687
703
871
590
392
536
351
50
159
165
-145
-141
27
-186
-321
-108
-163
-379
-180
-101
-393
-303
-61
-267
-359
-98
-158
-367
-167
-86
-358
-267
-25
-235
-322
-63
-126
-338
-148
-51
-318
-264
-35
-243
-334
-63
-127
-322
-92
2
-285
-229
-14
-233
-317
-52
-146
-350
-135
-65
-330
-259
-34
-243
-355
-108
-179
-384
-171
-112
-380
-291
-96
-306
-375
-112
-194
-403
-170
-100
-395
-316
-92
-284
-368
-117
-197
-421
-197
-86
-352
-280
-25
-161
-195
70
-18
-235
-40
82
-127
-66
162
-17
-131
128
72
-198
-66
-31
-337
-241
-15
-285
-383
-103
-203
-431
-217
-133
-405
-353
-136
-350
-505
-60
483
835
1179
868
-69
-317
-174
-497
-638
-390
-393
-451
-136
-47
-335
-255
-24
-220
-293
-35
-115
-318
-126
-41
-266
-187
31
-171
-264
34
-22
-256
-28
93
-151
-69
179
-6
-55
265
202
27
289
406
176
292
571
407
377
700
674
533
768
858
642
748
947
685
546
738
552
296
461
428
87
101
234
-30
-159
55
-49
-286
-92
-7
-274
-213
-12
-236
-307
-40
-146
-350
-125
-44
-302
-225
-32
-235
-284
-29
-127
-324
-109
-45
-292
-195
-11
-222
-261
19
-75
-284
-64
8
-265
-189
30
-178
-268
-15
-110
-340
-122
-42
-312
-225
-31
-244
-321
-71
-160
-370
-162
-100
-345
-253
-74
-270
-316
-63
-151
-376
-169
-66
-324
-242
0
-208
-315
-60
-126
-329
-115
-22
-288
-217
-6
-217
-288
-27
-131
-333
-91
6
-225
-141
44
-99
-76
208
135
-83
120
206
-33
118
300
36
-21
225
118
-90
100
104
-217
-162
28
-195
-268
-27
-152
-360
-132
-50
-304
-228
-26
-227
-353
-162
12
471
1200
1325
639
70
-21
-310
-497
-275
-341
-439
-91
47
-199
-98
106
-112
-165
106
30
-145
105
185
-77
14
210
16
-25
231
141
-39
190
256
6
102
293
85
56
330
237
72
332
441
217
355
602
446
448
744
727
587
843
992
777
861
1093
914
807
1001
840
558
682
644
291
306
432
155
22
213
120
-90
80
130
-126
-22
191
-30
-103
143
36
-166
54
137
-120
-38
183
-30
-117
132
29
-179
44
105
-178
-87
118
-105
-177
61
-28
-207
-4
48
-209
-113
92
-138
-203
68
-39
-236
-26
22
-222
-145
45
-158
-238
33
-52
-286
-64
1
-267
-130
78
-195
-259
25
-77
-265
-41
14
-213
-81
121
-106
-181
71
-11
-193
48
115
-171
-67
126
-107
-146
101
-20
-221
-8
27
-242
-110
73
-161
-167
145
107
-54
172
224
-63
46
310
109
25
293
181
-41
181
228
-79
-29
125
-138
-197
62
-65
-263
-30
51
-195
-108
117
-94
-184
75
-33
-263
239
1035
1311
1429
1140
215
-128
53
-155
-393
-169
-3
-141
36
244
3
-40
219
134
-50
151
201
-47
75
247
23
-8
237
149
-52
162
239
-13
90
306
123
80
330
261
102
336
443
217
347
607
420
388
711
666
495
782
915
689
842
1075
858
821
1082
951
682
825
813
453
464
544
221
95
282
170
-55
90
114
-176
-107
44
-231
-298
-76
-203
-371
-146
-88
-356
-289
-104
-356
-457
-216
-338
-542
-323
-283
-511
-367
-168
-352
-373
-128
-240
-415
-177
-152
-431
-295
-80
-309
-365
-102
-215
-426
-189
-128
-391
-268
-93
-334
-364
-117
-225
-384
-166
-126
-366
-233
-17
-218
-280
-50
-137
-320
-96
-35
-315
-198
2
-234
-280
-41
-136
-318
-96
-41
-312
-176
24
-203
-202
74
10
-104
99
140
-92
-11
193
14
-45
186
90
-111
88
146
-120
-49
77
-192
-239
26
-106
-321
-67
-5
-257
-146
29
-193
-224
64
-60
-309
117
825
1158
1366
1127
188
-222
-40
-255
-515
-323
-230
-351
-118
89
-162
-196
67
-58
-245
1
56
-199
-75
122
-115
-157
113
-10
-189
63
103
-167
-30
177
-54
-73
193
101
-55
192
274
31
192
455
247
256
581
510
386
668
780
589
761
1014
799
747
1004
837
587
759
703
343
363
456
141
3
171
-8
-238
-33
-32
-327
-203
-27
-260
-275
-39
-176
-351
-101
-60
-354
-219
-11
-258
-291
-15
-147
-343
-106
-71
-304
-188
-31
-242
-281
-39
-151
-324
-95
-52
-323
-224
-29
-257
-289
-17
-117
-294
-61
-54
-350
-199
-6
-270
-303
-37
-161
-344
-140
-124
-374
-251
-67
-308
-359
-96
-195
-368
-140
-100
-365
-241
-44
-290
-325
-67
-196
-347
-103
-91
-346
-212
-51
-273
-275
18
-21
-167
41
62
-222
-104
145
-40
-104
130
21
-156
38
74
-146
-77
38
-218
-255
0
-148
-351
-89
-43
-362
-242
-14
-234
-305
-73
-245
-484
93
826
1001
1115
796
-98
-355
-140
-381
-643
-383
-222
-352
-156
25
-212
-234
17
-104
-261
-12
26
-208
-67
107
-112
-139
111
17
-140
74
132
-85
27
228
8
-34
256
156
-2
282
330
96
282
495
298
331
638
562
470
787
868
661
823
1026
826
811
1046
873
634
783
703
355
365
426
120
0
175
28
-180
-5
6
-268
-155
17
-242
-265
-21
-161
-306
-56
-52
-315
-184
-25
-250
-247
14
-111
-281
-33
-13
-290
-136
42
-210
-234
17
-119
-296
-43
-37
-323
-197
-32
-275
-311
-55
-153
-305
-82
-40
-298
-195
-7
-253
-279
-17
-150
-296
-68
-65
-314
-197
-39
-297
-325
-62
-211
-396
-150
-105
-363
-237
-58
-316
-357
-105
-222
-394
-166
-112
-360
-233
-54
-320
-355
-69
-175
-321
12
98
-175
-39
107
-166
-130
196
53
-146
88
86
-175
-33
130
-154
-267
-73
-221
-394
-160
-129
-364
-230
-58
-299
-339
-80
-209
-404
-179
-240
-389
361
1149
1094
777
332
-254
-506
-403
-482
-728
-515
-207
-358
-348
-96
-242
-385
-165
-166
-389
-267
-96
-316
-340
-94
-220
-405
-159
-71
-757
-1294
-2683
-5184
-5592
-4518
-3979
-3435
-2608
-2172
-2099
-1596
-1491
-2126
-2022
-1396
-1299
-1259
-762
-487
-595
-322
30
-99
-30
391
330
152
478
544
219
303
444
132
65
315
117
-106
120
97
-194
-107
49
-208
-255
61
-63
-277
-4
73
-190
-35
202
-80
-134
221
94
-143
159
258
-17
114
326
56
18
343
208
-21
253
312
7
149
367
72
26
361
219
-17
278
357
47
190
394
124
124
407
225
6
301
365
43
182
424
120
36
377
245
-9
284
329
13
176
393
105
38
365
215
-46
266
326
-9
145
382
135
127
459
325
94
404
456
89
258
516
223
244
644
511
268
545
584
252
452
738
407
326
651
479
225
521
567
172
260
466
173
112
410
250
-8
290
328
-4
178
413
124
71
364
156
214
1239
1793
1482
1132
633
38
-51
152
-66
-253
144
292
27
184
396
121
83
397
239
-7
280
354
20
159
412
98
56
412
250
21
322
353
35
211
453
177
163
497
356
144
458
562
289
463
716
468
479
873
770
587
932
1020
745
930
1180
882
831
1149
928
623
862
807
374
444
587
204
81
355
166
-99
157
192
-140
-14
208
-123
-199
141
-38
-273
63
88
-261
-73
153
-160
-192
107
-54
-234
65
89
-236
-79
147
-157
-186
160
-42
-309
23
67
-287
-129
97
-187
-211
91
-95
-313
-9
3
-331
-155
86
-212
-252
102
-61
-313
-8
28
-318
-164
88
-218
-275
36
-151
-341
-28
-16
-325
-149
66
-238
-275
52
-94
-327
-36
0
-328
-144
92
-204
-240
90
-38
-246
106
242
-61
126
357
15
-31
339
222
7
311
320
-28
136
348
19
-63
207
29
-146
163
157
-184
-8
212
-117
-161
159
38
-145
97
81
-251
141
1002
1246
1247
1005
131
-302
-121
-216
-494
-371
-116
-206
-132
138
-15
-171
95
109
-185
-38
183
-81
-127
173
38
-168
126
161
-165
14
239
-81
-82
261
78
-96
226
249
-37
164
417
143
139
511
400
247
588
662
431
666
920
663
683
1068
957
743
1029
1019
613
703
842
440
295
507
263
-29
211
190
-190
-58
131
-226
-275
45
-146
-350
-53
-43
-348
-171
32
-279
-294
50
-125
-340
-40
-27
-332
-157
45
-235
-253
66
-98
-332
-32
-2
-330
-158
54
-258
-273
52
-137
-337
-30
-37
-356
-177
48
-247
-290
48
-94
-292
9
10
-319
-136
89
-241
-280
69
-110
-340
-27
-10
-348
-178
36
-278
-307
5
-162
-356
-63
-48
-379
-212
29
-265
-311
24
-133
-361
-45
-7
-342
-166
64
-245
-267
74
-66
-245
114
197
-138
-18
182
-109
-87
261
66
-133
174
132
-215
-8
181
-199
-242
73
-105
-324
-36
-16
-361
-184
49
-288
-322
21
-184
-434
-216
-283
-200
703
1288
1019
538
142
-231
-467
-349
-396
-616
-323
-59
-274
-242
13
-152
-291
-7
-23
-272
-78
67
-172
-147
83
-78
-184
82
40
-195
-6
131
-101
-50
190
43
-15
265
250
56
246
409
204
264
530
399
340
650
662
483
708
870
644
713
982
795
641
872
812
488
548
597
241
161
313
58
-127
76
0
-282
-121
15
-274
-260
-12
-171
-271
4
-56
-297
-91
1
-255
-191
35
-130
-250
2
1
-238
-86
45
-202
-162
82
-110
-244
45
41
-210
-56
59
-204
-171
72
-103
-247
-19
-31
-261
-109
34
-221
-203
41
-152
-288
-24
-38
-275
-119
9
-232
-215
9
-144
-264
3
-7
-260
-95
44
-225
-200
34
-144
-250
-5
-46
-264
-99
16
-223
-204
23
-147
-279
-42
-86
-282
-57
49
-223
-144
112
-19
-81
172
132
-139
14
178
-29
-6
195
37
-107
111
83
-163
0
84
-236
-226
6
-188
-321
-82
-124
-344
-176
-44
-291
-278
-42
-227
-402
-152
186
635
1247
1326
517
-65
-29
-286
-526
-319
-305
-418
-107
100
-166
-152
122
-44
-166
109
75
-145
43
162
-79
-33
193
-1
-97
184
130
-100
63
199
-25
-15
237
89
-32
258
266
37
253
440
193
259
569
442
364
677
716
548
753
913
704
748
987
805
642
838
717
370
446
476
122
67
235
-7
-217
7
-31
-307
-145
-23
-295
-256
-31
-237
-357
-98
-111
-305
-118
-12
-285
-258
-9
-186
-323
-53
-82
-328
-142
-5
-268
-258
-40
-250
-358
-81
-167
-440
-255
-129
-414
-385
-161
-361
-454
-195
-248
-473
-313
-191
-426
-402
-170
-365
-477
-208
-273
-508
-318
-197
-458
-438
-220
-386
-505
-261
-274
-502
-331
-202
-446
-380
-138
-324
-443
-183
-222
-481
-302
-155
-412
-407
-164
-320
-444
-181
-213
-433
-233
-78
-297
-266
-29
-194
-300
-3
46
-108
89
219
-45
-11
244
97
21
275
236
-5
142
255
7
28
211
-36
-185
95
37
-225
-28
75
-186
-140
63
-106
-229
-3
-29
-277
-147
257
712
1269
1540
890
42
-47
-128
-434
-329
-232
-360
-153
153
-8
-125
129
96
-131
62
204
-57
-34
221
62
-54
204
180
-48
137
250
-22
52
302
134
15
255
247
54
246
362
118
196
484
337
260
557
562
395
640
814
599
673
944
823
736
983
945
684
803
855
495
428
587
318
120
306
174
-113
32
138
-131
-159
62
-109
-258
-25
-66
-293
-115
8
-227
-185
43
-164
-303
-24
-51
-285
-117
0
-233
-197
-1
-161
-260
-32
-70
-302
-125
-4
-264
-215
25
-171
-318
-80
-139
-371
-167
-56
-308
-272
-68
-243
-347
-93
-129
-363
-172
-46
-317
-270
-45
-235
-333
-93
-130
-354
-216
-113
-344
-300
-86
-259
-366
-117
-132
-371
-212
-82
-331
-285
-71
-264
-378
-116
-157
-402
-206
-96
-382
-337
-82
-271
-388
-137
-174
-376
-185
-15
-220
-174
68
-149
-290
9
25
-212
-48
90
-197
-170
69
-155
-319
-103
-187
-446
-261
-167
-441
-399
-178
-366
-493
-242
-287
-517
-335
-232
-545
-475
210
716
956
1087
492
-306
-299
-255
-595
-585
-314
-370
-358
-17
-39
-287
-125
1
-230
-178
60
-110
-207
80
58
-170
19
144
-94
-58
163
2
-98
151
119
-63
146
251
9
79
305
132
68
364
343
156
381
529
349
475
751
610
535
834
837
614
801
922
625
612
765
471
275
440
302
10
101
150
-131
-138
43
-160
-293
-63
-95
-326
-144
-8
-282
-237
11
-176
-294
-45
-89
-319
-131
-1
-242
-197
39
-139
-263
-6
-44
-266
-60
43
-219
-179
29
-139
-229
49
1
-220
-1
76
-200
-131
72
-124
-212
41
-23
-245
-64
19
-234
-162
56
-159
-253
11
-64
-290
-87
20
-255
-206
26
-180
-298
-25
-70
-292
-106
-21
-248
-188
18
-147
-263
-13
-52
-280
-74
27
-239
-168
64
-133
-254
-17
-75
-289
-89
39
-197
-83
216
30
-71
175
81
-113
138
267
-6
27
266
45
-79
197
83
-198
6
91
-177
-124
67
-133
-238
12
-55
-275
-78
22
-214
-173
-5
-270
-185
690
1206
1159
1040
466
-181
-196
-96
-364
-477
-139
-55
-218
8
124
-154
-93
138
-63
-157
97
30
-163
38
141
-75
-33
163
8
-84
161
119
-67
146
225
-17
78
311
124
35
361
341
109
356
510
311
435
693
560
525
827
824
662
931
1083
830
893
1108
856
676
863
691
326
441
470
118
90
232
2
-134
96
32
-219
-40
43
-223
-168
28
-172
-267
-31
-101
-307
-97
28
-246
-201
42
-155
-263
-13
-75
-271
-58
27
-234
-184
37
-164
-276
4
-57
-300
-107
5
-253
-210
5
-180
-272
-20
-81
-297
-95
1
-238
-143
74
-133
-225
25
-59
-277
-81
13
-245
-192
15
-206
-313
-66
-131
-327
-149
-87
-322
-238
-41
-247
-325
-64
-127
-343
-161
-63
-275
-221
-50
-231
-297
-52
-128
-327
-116
-39
-309
-245
-14
-192
-297
-57
-118
-312
-78
39
-212
-100
199
39
-66
164
95
-126
89
239
-26
5
234
12
-119
163
83
-213
-61
6
-275
-207
-10
-232
-319
-73
-120
-328
-123
40
-187
-127
92
-156
-211
522
1150
1277
1332
812
-6
-67
60
-254
-363
-44
5
-117
146
234
-40
57
294
101
30
267
178
28
300
381
132
217
423
250
163
411
350
142
348
441
192
262
484
308
244
514
474
311
541
665
462
569
832
705
659
966
974
817
1061
1185
946
1004
1216
1013
858
1019
839
526
648
616
267
274
409
163
47
282
184
-61
118
180
-68
7
204
0
-101
155
108
-121
63
169
-89
-23
207
-9
-97
171
82
-133
73
207
-25
23
246
51
-33
224
144
-78
98
182
-67
-2
191
-21
-105
135
41
-184
21
101
-148
-62
123
-73
-151
79
18
-185
0
85
-164
-92
115
-76
-154
76
-19
-210
9
74
-191
-95
121
-98
-192
81
35
-198
4
95
-167
-73
149
-32
-94
151
61
-136
67
138
-109
-48
131
-79
-130
146
36
-205
0
89
-166
-89
157
2
-50
235
200
-10
156
220
4
147
358
136
36
274
184
-44
158
185
-147
-112
86
-109
-212
4
-71
-274
-69
21
-238
-154
60
-147
-230
-22
46
463
1296
1543
922
266
41
-239
-414
-220
-313
-462
-122
74
-128
-54
142
-68
-157
103
30
-192
12
92
-151
-66
114
-67
-111
130
58
-156
53
166
-75
12
210
1
-42
252
162
-28
239
340
109
254
506
350
324
615
623
467
692
832
619
730
980
770
666
900
757
460
576
549
196
194
315
42
-97
110
13
-206
-21
31
-236
-169
35
-158
-249
-17
-105
-305
-87
-10
-272
-229
-30
-213
-310
-64
-122
-312
-101
-29
-290
-216
-9
-201
-291
-35
-103
-330
-130
-40
-289
-234
-45
-240
-320
-96
-185
-375
-186
-136
-371
-280
-92
-302
-383
-131
-212
-421
-221
-143
-377
-291
-93
-306
-379
-132
-219
-395
-187
-147
-371
-244
-56
-255
-333
-89
-149
-348
-142
-70
-328
-249
-41
-245
-341
-91
-174
-397
-195
-126
-381
-291
-73
-256
-308
-3
-40
-230
-20
35
-218
-82
157
-57
-126
135
38
-174
18
47
-236
-195
-67
-275
-332
-126
-218
-421
-217
-115
-375
-280
-60
-275
-358
-106
-279
-456
289
1047
1080
950
483
-253
-415
-250
-461
-707
-440
-246
-390
-233
-42
-279
-319
-50
-150
-347
-123
-62
-312
-188
5
-213
-261
2
-81
-267
-51
17
-211
-119
89
-94
-159
120
53
-127
125
228
1
127
373
197
187
511
469
345
639
753
544
691
934
722
677
930
769
511
649
610
241
229
337
33
-110
67
-79
-313
-134
-92
-348
-267
-86
-293
-370
-128
-213
-392
-174
-121
-366
-247
-50
-286
-350
-78
-162
-378
-163
-93
-362
-263
-57
-268
-329
-80
-155
-326
-126
-94
-341
-220
-37
-285
-355
-94
-178
-376
-196
-167
-403
-294
-105
-310
-381
-128
-216
-417
-199
-133
-402
-306
-93
-328
-394
-149
-253
-427
-226
-194
-435
-318
-124
-348
-412
-154
-255
-436
-208
-172
-420
-267
-41
-286
-344
-66
-194
-397
-189
-124
-341
-262
-75
-284
-370
-120
-221
-408
-160
-116
-343
-159
83
-118
-186
41
-79
-261
16
102
-188
-105
87
-150
-197
60
-92
-330
-156
-124
-365
-292
-130
-362
-414
-131
-222
-393
-169
-142
-381
-273
-167
-306
171
1054
1215
836
405
-55
-394
-404
-333
-565
-558
-177
-151
-305
-123
-79
-331
-221
-29
-250
-290
-42
-129
-305
-83
-14
-264
-142
45
-186
-206
77
-5
-196
23
97
-130
0
197
-2
-15
260
182
42
306
411
246
429
666
477
484
803
746
620
876
932
680
766
920
640
516
677
431
141
294
255
-86
-63
86
-162
-260
-39
-176
-379
-153
-113
-381
-280
-80
-320
-382
-115
-238
-411
-155
-134
-405
-265
-91
-327
-317
-56
-199
-361
-120
-95
-348
-224
-55
-297
-328
-70
-195
-363
-131
-96
-350
-242
-50
-261
-282
-9
-128
-330
-107
-83
-344
-210
-33
-262
-303
-61
-182
-361
-126
-91
-348
-229
-51
-288
-323
-58
-181
-358
-126
-106
-362
-230
-49
-291
-313
-55
-202
-376
-130
-94
-340
-222
-42
-254
-298
-54
-155
-318
-103
-81
-325
-212
-32
-237
-264
-38
-168
-325
-80
-12
-196
-11
177
-33
-51
185
62
-76
194
217
-63
42
228
-7
-72
149
-7
-236
-51
-31
-312
-212
-40
-286
-311
-35
-186
-389
-129
-103
-384
-291
-130
-5
653
1338
1184
478
91
-65
-420
-430
-292
-521
-416
-19
-123
-301
-46
-16
-275
-105
108
-119
-149
112
6
-176
45
95
-120
10
198
-20
-64
201
95
-64
190
250
11
146
363
155
149
445
345
200
463
524
330
513
723
521
578
885
785
671
937
978
715
809
942
657
529
649
419
169
310
219
-86
12
142
-130
-207
32
-86
-265
-48
-40
-301
-168
10
-226
-265
-27
-142
-304
-61
7
-224
-116
43
-182
-208
48
-100
-278
-16
-9
-274
-154
6
-241
-271
-7
-126
-310
-96
-62
-335
-201
-12
-259
-263
-31
-185
-349
-146
-100
-322
-214
-43
-282
-318
-48
-168
-354
-119
-90
-348
-220
-49
-270
-285
-60
-190
-319
-70
-44
-274
-136
4
-230
-234
-20
-166
-324
-112
-100
-326
-198
-25
-232
-286
-49
-164
-330
-84
-70
-325
-185
-12
-220
-189
117
24
-135
98
109
-168
-3
221
-17
-49
177
19
-156
72
75
-207
-128
-15
-233
-219
30
-103
-287
-58
-12
-240
-136
8
-202
-228
-38
-208
-53
890
1377
1115
728
198
-310
-400
-234
-437
-630
-275
-132
-299
-112
42
-199
-189
58
-78
-222
5
23
-197
-72
101
-112
-116
149
-9
-163
96
110
-116
35
196
-2
20
263
140
3
287
334
133
351
535
348
397
692
631
513
808
899
684
852
1026
770
767
993
760
518
678
577
237
271
323
41
-31
146
-13
-213
-9
-2
-281
-158
15
-232
-283
-42
-154
-312
-108
-73
-259
-132
3
-212
-194
39
-114
-265
-40
-16
-229
-88
91
-119
-137
89
-62
-217
28
24
-215
-71
31
-229
-197
27
-164
-295
-48
-61
-311
-156
14
-233
-245
-6
-161
-307
-56
-36
-283
-155
14
-235
-263
9
-147
-332
-62
-68
-327
-148
10
-245
-255
5
-133
-289
-43
-47
-291
-136
14
-217
-219
21
-144
-310
-24
11
-166
66
232
-11
-24
195
60
-41
217
204
-63
82
216
-57
-70
142
-63
-268
-37
-50
-305
-175
-46
-283
-289
-47
-204
-354
-96
-98
-348
-248
-53
193
884
1419
1026
220
-75
-229
-550
-449
-331
-537
-393
-21
-119
-275
-8
24
-199
-25
110
-142
-129
103
-60
-191
56
25
-218
-52
102
-141
-133
124
-3
-112
145
162
-50
114
274
59
105
372
248
140
430
492
298
503
718
526
584
883
757
650
930
918
653
774
877
563
468
588
342
135
267
146
-115
40
142
-133
-139
71
-107
-248
-22
-60
-309
-176
-35
-279
-272
-11
-180
-326
-62
-73
-306
-148
-6
-250
-246
8
-142
-285
-34
-36
-297
-153
5
-249
-234
16
-167
-313
-50
-76
-338
-163
-5
-245
-239
-14
-159
-287
-43
-37
-261
-95
42
-209
-207
26
-121
-279
-45
-67
-327
-173
-54
-296
-262
-24
-186
-327
-74
-91
-326
-147
-26
-282
-244
20
-147
-297
-44
-74
-305
-149
-11
-251
-259
4
-155
-312
-54
-65
-287
-132
-6
-226
-176
118
4
-106
155
117
-149
30
211
-11
21
263
92
-60
169
149
-102
-10
52
-221
-209
32
-155
-329
-91
-132
-359
-162
-52
-306
-272
-65
-303
-389
328
976
1061
1074
634
-139
-256
-131
-417
-576
-298
-171
-277
-90
32
-224
-178
64
-119
-239
13
-9
-246
-79
65
-177
-170
74
-55
-172
104
116
-117
37
179
-54
-9
267
112
-4
257
246
67
282
439
228
314
588
451
396
715
726
534
757
918
685
708
931
742
565
721
598
264
335
385
30
-24
156
-74
-222
-5
-75
-307
-119
0
-285
-267
-24
-192
-336
-104
-127
-329
-160
-61
-303
-255
-29
-223
-305
-4
-41
-283
-96
29
-244
-230
3
-164
-307
-78
-113
-338
-164
-42
-294
-271
-45
-232
-350
-104
-139
-350
-187
-91
-327
-271
-55
-232
-361
-130
-135
-354
-205
-82
-332
-305
-92
-266
-365
-116
-170
-390
-165
-56
-328
-271
-44
-241
-358
-93
-119
-351
-173
-50
-303
-245
11
-148
-272
-37
-72
-283
-87
48
-132
-46
177
-18
-152
119
87
-122
89
177
-112
-80
128
-62
-179
19
-75
-350
-201
-58
-326
-338
-113
-284
-403
-144
-180
-412
-215
-98
-367
-385
-150
101
662
1307
1195
370
-56
-87
-436
-532
-319
-480
-486
-95
-99
-325
-122
8
-238
-198
57
-106
-236
45
26
-228
-44
86
-172
-125
107
-79
-186
70
36
-173
21
163
-95
-49
235
75
-36
246
271
107
311
463
290
390
646
541
510
790
778
623
835
922
673
693
843
596
415
557
403
80
177
226
-99
-116
63
-148
-290
-80
-129
-376
-216
-78
-350
-356
-125
-272
-372
-126
-166
-400
-215
-78
-329
-281
-44
-216
-330
-87
-120
-355
-173
-50
-313
-265
-48
-252
-362
-110
-156
-369
-171
-87
-359
-305
-88
-289
-393
-136
-197
-408
-216
-97
-318
-267
-44
-213
-349
-99
-107
-351
-196
-73
-306
-258
-45
-233
-359
-126
-151
-383
-225
-92
-329
-279
-50
-243
-356
-102
-160
-372
-179
-88
-334
-271
-61
-246
-322
-73
-137
-349
-153
-33
-266
-179
101
-44
-131
122
52
-177
57
235
9
35
227
43
-83
144
87
-194
-62
21
-241
-200
-8
-222
-344
-105
-153
-371
-190
-58
-310
-291
-67
-325
-267
655
1226
1177
1023
415
-274
-316
-204
-479
-588
-243
-161
-281
-58
17
-229
-155
72
-101
-230
25
-11
-243
-41
78
-155
-92
118
-80
-167
117
71
-131
96
242
25
110
349
165
95
380
354
171
380
534
374
488
736
601
553
850
845
675
915
1032
788
835
1045
846
660
807
667
324
431
477
108
75
247
14
-119
103
35
-197
-31
82
-195
-154
85
-110
-195
56
-25
-218
11
87
-167
-93
101
-90
-169
95
54
-130
56
130
-98
-42
150
-46
-143
117
26
-214
4
85
-192
-123
96
-107
-209
52
5
-197
-17
49
-192
-126
73
-114
-232
-2
-55
-256
-71
10
-222
-167
35
-156
-266
-10
-50
-276
-85
21
-246
-197
19
-149
-253
-20
-36
-244
-26
101
-190
-120
111
-112
-216
55
-12
-229
-20
47
-232
-155
93
-40
-83
165
87
-115
76
146
-62
57
243
27
-63
158
92
-103
87
122
-196
-148
85
-119
-269
-25
-92
-325
-125
-29
-271
-207
-19
-209
-337
-23
435
855
1282
1121
159
-289
-177
-458
-577
-319
-341
-448
-131
41
-207
-150
59
-147
-211
54
-33
-238
-29
53
-205
-118
105
-96
-174
94
31
-178
7
106
-117
-39
202
6
-74
240
174
-41
221
360
144
252
499
350
327
663
655
472
726
857
630
728
937
730
605
781
648
360
464
457
126
122
255
-38
-185
75
-37
-297
-114
-32
-276
-215
-25
-238
-334
-78
-143
-358
-157
-72
-325
-255
-46
-229
-295
-47
-120
-317
-116
-18
-264
-203
9
-198
-307
-53
-104
-316
-123
-45
-321
-243
-27
-248
-322
-74
-185
-387
-176
-97
-291
-177
0
-213
-261
10
-85
-293
-105
-43
-271
-175
15
-211
-270
-15
-106
-311
-124
-46
-295
-206
-9
-232
-283
-45
-141
-329
-128
-62
-325
-253
-57
-234
-289
-47
-117
-311
-63
95
-115
-26
170
-68
-161
157
139
-92
81
155
-124
-59
153
-73
-197
-13
-128
-311
-102
-46
-305
-224
-9
-210
-288
-25
-105
-315
-116
-81
-385
-47
816
1113
1084
901
158
-330
-197
-266
-585
-490
-182
-266
-265
10
-105
-303
-84
-15
-257
-179
32
-162
-235
48
-28
-236
-11
70
-169
-82
121
-70
-138
129
53
-153
85
175
-67
55
283
95
61
378
345
172
446
605
426
572
811
638
618
924
869
670
871
927
636
634
708
390
220
373
211
-71
63
115
-180
-166
18
-207
-311
-60
-154
-364
-144
-99
-351
-237
-54
-265
-335
-89
-177
-369
-124
-67
-345
-245
-46
-254
-306
-50
-139
-358
-137
-45
-325
-241
-4
-211
-279
-15
-128
-330
-116
-63
-325
-250
-62
-275
-341
-95
-207
-404
-173
-105
-350
-250
-61
-279
-335
-86
-187
-395
-185
-103
-356
-260
-68
-299
-359
-96
-177
-362
-164
-127
-356
-234
-31
-246
-333
-84
-163
-362
-132
-32
-274
-184
30
-175
-264
-6
-85
-284
-53
26
-203
-82
177
26
-63
153
33
-146
136
204
-78
21
212
-53
-129
130
-13
-258
-82
-69
-358
-268
-89
-336
-402
-127
-208
-416
-196
-134
-412
-306
-122
-415
-188
782
1170
1018
768
154
-337
-333
-286
-531
-556
-189
-161
-287
-74
-33
-283
-181
20
-206
-273
-7
-101
-295
-67
-30
-297
-164
20
-175
-195
36
-39
-206
6
93
-128
-14
185
-11
-47
228
169
15
286
392
182
339
582
415
429
764
701
529
820
914
651
766
946
635
495
697
468
140
280
259
-71
-38
90
-183
-262
-26
-160
-389
-161
-62
-314
-241
-69
-274
-305
-68
-190
-369
-150
-114
-378
-271
-69
-284
-331
-75
-180
-335
-115
-99
-356
-229
-30
-271
-324
-72
-169
-352
-157
-113
-360
-261
-76
-308
-366
-106
-219
-423
-197
-156
-422
-291
-78
-284
-304
-46
-167
-346
-133
-87
-322
-215
-36
-273
-309
-34
-164
-357
-146
-115
-359
-243
-68
-319
-357
-83
-201
-402
-165
-112
-400
-288
-68
-304
-346
-72
-201
-373
-139
-100
-332
-225
-50
-251
-278
-5
-67
-212
51
109
-181
-85
151
4
-40
173
87
-79
112
143
-111
-13
115
-175
-239
8
-128
-342
-131
-91
-334
-211
-39
-267
-316
-61
-162
-409
-201
231
687
1256
1393
605
-88
-35
-246
-561
-348
-298
-455
-201
52
-140
-166
60
-71
-250
-18
59
-142
-11
165
-54
-95
177
67
-115
128
185
-63
31
226
25
-5
247
142
-34
215
299
55
199
426
219
231
539
453
341
643
738
543
712
958
768
741
1000
874
666
850
834
482
475
566
257
137
315
130
-112
74
106
-174
-100
67
-176
-222
32
-114
-292
-52
4
-224
-99
66
-175
-190
73
-61
-235
29
82
-186
-57
150
-115
-173
100
-17
-195
13
44
-185
-68
113
-119
-170
94
-22
-236
1
51
-210
-78
92
-148
-177
77
-68
-258
5
58
-213
-96
88
-162
-199
75
-49
-224
33
80
-177
-59
126
-104
-137
110
-4
-171
47
82
-178
-63
124
-133
-174
88
-51
-207
40
45
-221
-74
114
-105
-94
194
114
-27
212
219
-88
69
324
80
15
262
107
-80
182
190
-135
-49
105
-130
-167
33
-97
-248
-34
-20
-251
-99
77
-161
-193
50
-132
-140
740
1367
1210
914
364
-283
-417
-238
-399
-595
-300
-142
-277
-73
110
-150
-170
85
-45
-210
34
79
-186
-72
115
-121
-146
126
22
-133
100
148
-74
53
236
16
2
296
184
24
308
382
185
365
560
371
407
695
621
526
808
859
645
808
999
766
713
937
786
547
669
588
244
279
350
31
-51
124
-94
-280
-39
-39
-329
-219
-46
-286
-305
-58
-180
-344
-125
-96
-340
-202
-9
-239
-249
58
-60
-264
-39
-9
-256
-134
32
-211
-248
-6
-125
-307
-106
-66
-304
-178
-10
-255
-285
-31
-152
-339
-123
-87
-330
-212
-45
-267
-293
-58
-164
-334
-121
-76
-328
-235
-67
-258
-263
-28
-169
-339
-92
-72
-318
-162
-18
-244
-253
-45
-162
-304
-75
-54
-308
-159
13
-232
-282
-37
-119
-290
-28
81
-143
10
186
-107
-143
170
61
-121
125
124
-156
-14
147
-136
-185
16
-182
-320
-72
-85
-344
-238
-70
-290
-302
-47
-196
-360
-108
-99
-430
-185
579
981
1180
1174
392
-214
-60
-157
-502
-390
-151
-251
-199
71
-59
-239
-5
30
-220
-90
86
-161
-179
99
-36
-202
54
67
-174
-41
133
-67
-76
187
75
-84
168
227
4
149
342
107
128
436
316
220
511
560
398
593
809
635
649
952
834
682
971
964
663
749
801
439
338
474
235
8
173
136
-157
-78
48
-192
-238
-11
-121
-317
-103
-51
-322
-226
-51
-255
-267
-40
-191
-350
-100
-75
-325
-195
-19
-235
-271
-40
-146
-311
-64
25
-206
-101
80
-150
-180
53
-109
-248
-9
-11
-227
-86
63
-171
-208
25
-76
-243
-17
33
-243
-138
58
-176
-199
61
-91
-267
-18
5
-257
-129
55
-185
-235
13
-110
-267
-32
-31
-278
-141
31
-210
-253
-5
-134
-306
-57
-48
-329
-155
28
-239
-242
-24
-165
-266
-21
-8
-172
71
249
-1
-16
211
58
-55
232
224
-33
107
223
-30
-40
161
-27
-238
-52
-32
-270
-169
-35
-273
-271
-25
-179
-321
-56
-64
-325
-188
-85
-161
445
1283
1299
843
421
5
-318
-315
-254
-481
-420
-43
-110
-225
30
7
-252
-98
68
-163
-167
89
-39
-184
61
47
-181
-7
125
-116
-100
140
10
-124
120
147
-83
65
247
30
19
296
213
107
383
437
247
444
669
502
563
859
776
682
945
968
739
863
985
659
545
714
461
199
352
263
-55
33
147
-128
-172
60
-114
-309
-60
-48
-309
-162
15
-231
-244
16
-146
-312
-60
-64
-316
-170
-21
-264
-249
1
-162
-316
-61
-51
-305
-172
-22
-259
-252
2
-140
-299
-61
-54
-309
-171
-10
-252
-268
-33
-178
-317
-97
-89
-310
-184
-32
-271
-264
-4
-161
-317
-65
-52
-308
-167
-19
-279
-247
0
-187
-311
-51
-46
-281
-169
-14
-236
-248
14
-143
-309
-61
-58
-299
-151
2
-235
-246
-7
-142
-301
-65
-38
-263
-70
152
-61
-51
190
7
-153
133
164
-76
69
199
-60
-75
169
-7
-217
-21
-58
-296
-134
0
-269
-293
-45
-171
-290
-55
-66
-304
-181
4
-281
-291
444
1007
1202
1308
669
-195
-188
-152
-537
-514
-217
-280
-316
-15
-12
-255
-81
85
-169
-157
79
-78
-197
55
55
-200
-37
127
-124
-108
147
7
-127
107
127
-92
60
252
14
21
301
170
74
359
383
190
377
575
404
466
768
665
549
841
885
659
813
978
716
641
795
550
327
516
420
83
152
237
-38
-82
126
-51
-227
4
-10
-261
-92
35
-252
-224
52
-130
-294
-18
-24
-294
-137
14
-218
-189
49
-136
-309
-34
-16
-256
-101
34
-201
-189
27
-154
-287
-34
-42
-264
-132
-26
-266
-266
-34
-193
-332
-82
-106
-366
-212
-71
-340
-338
-78
-202
-349
-114
-113
-365
-220
-85
-326
-324
-105
-260
-405
-186
-245
-543
-417
-302
-587
-588
-346
-493
-608
-357
-363
-572
-375
-196
-396
-361
-117
-237
-332
-46
21
-133
58
195
-65
-55
225
121
16
267
255
11
147
293
47
5
170
-35
-156
97
88
-117
48
230
59
100
343
159
-22
170
123
-188
-124
330
745
1162
1374
668
-186
-184
-274
-641
-508
-381
-548
-384
-52
-183
-351
-118
-104
-351
-202
-36
-288
-275
-20
-175
-304
-56
-60
-283
-126
17
-201
-196
36
-77
-187
58
69
-120
49
203
6
63
328
193
99
393
448
255
444
649
455
491
764
647
532
781
774
501
584
651
327
250
382
118
-106
61
5
-266
-175
-57
-328
-366
-103
-246
-426
-176
-181
-433
-269
-126
-353
-329
-84
-248
-384
-126
-135
-324
-133
-25
-279
-237
22
-124
-255
3
20
-217
-63
77
-170
-139
107
-55
-192
59
55
-180
-24
90
-161
-165
72
-39
-197
29
37
-196
-38
105
-142
-136
118
-52
-193
70
47
-194
-40
96
-142
-128
112
-42
-174
64
41
-201
-43
100
-136
-117
103
-64
-188
65
35
-208
-22
103
-153
-131
105
-36
-147
155
191
-43
109
235
-16
18
304
134
-39
218
184
-61
128
242
-86
-154
38
-107
-240
-35
-53
-279
-130
7
-222
-209
24
-142
-291
-30
-113
-298
417
1195
1187
979
576
-61
-293
-144
-250
-500
-269
-5
-173
-130
115
-56
-183
84
60
-173
6
141
-102
-75
163
-20
-146
129
97
-124
74
210
-34
-1
240
83
-28
238
256
53
227
380
182
239
503
407
328
629
671
491
722
892
682
761
1035
876
732
982
928
591
663
726
368
261
404
172
-36
141
80
-194
-49
93
-173
-188
26
-137
-277
-51
-60
-291
-131
-9
-269
-231
4
-165
-291
-63
-76
-304
-139
7
-232
-197
29
-157
-298
-33
-23
-250
-88
45
-212
-198
34
-124
-255
-15
-25
-282
-122
36
-228
-211
21
-165
-283
-42
-74
-293
-139
-20
-273
-251
-1
-164
-301
-62
-88
-303
-100
22
-248
-225
5
-147
-255
-7
-56
-283
-98
19
-227
-207
33
-141
-288
-23
-35
-271
-100
30
-229
-199
50
-128
-263
1
-13
-213
22
197
-29
0
199
-6
-98
222
183
-89
96
225
-50
-15
221
-6
-206
-7
-35
-263
-119
-10
-270
-243
4
-157
-279
-20
-49
-277
-114
-53
-345
3
931
1244
1152
925
226
-242
-158
-163
-444
-414
-85
-137
-239
-2
-27
-253
-55
68
-192
-138
97
-80
-214
24
26
-193
-45
114
-111
-92
163
7
-105
166
128
-85
123
240
19
76
322
196
103
404
422
221
435
614
448
538
809
692
622
923
926
693
871
1005
690
613
782
522
271
418
295
-9
104
153
-134
-121
71
-116
-265
-51
-65
-304
-149
-16
-260
-241
-19
-179
-315
-45
-65
-332
-161
-8
-247
-226
15
-157
-284
-46
-96
-310
-121
-10
-257
-207
21
-173
-308
-55
-80
-329
-177
-36
-271
-255
-42
-201
-341
-105
-122
-367
-200
-82
-348
-310
-59
-240
-358
-106
-152
-394
-209
-48
-293
-265
-37
-225
-339
-79
-119
-354
-181
-57
-298
-248
-14
-206
-324
-70
-104
-316
-145
-33
-272
-221
22
-147
-249
-13
-69
-276
-114
15
-209
-173
95
-40
-91
199
155
-96
57
195
-7
76
302
101
-59
168
154
-72
72
141
-171
-182
59
-102
-243
7
-35
-298
-126
-6
-255
-202
23
-158
-270
-60
-42
279
1143
1515
1074
432
101
-178
-418
-252
-282
-494
-218
26
-173
-130
124
-59
-196
69
46
-182
3
139
-124
-83
181
14
-113
156
164
-88
71
227
-17
14
261
120
30
297
279
51
267
464
257
317
593
469
387
700
712
528
763
950
747
807
1082
896
746
978
889
576
636
668
320
237
398
178
-1
189
158
-69
42
141
-95
-123
85
-43
-184
32
25
-204
-56
63
-189
-130
116
-85
-212
49
9
-220
-44
68
-168
-126
122
-64
-219
59
26
-244
-72
52
-230
-204
43
-134
-248
-11
-66
-289
-116
6
-235
-201
36
-133
-275
-27
-43
-275
-98
31
-243
-229
18
-146
-274
-31
-61
-292
-110
12
-257
-221
4
-188
-313
-61
-76
-295
-108
22
-264
-232
25
-140
-255
-19
-66
-300
-106
39
-200
-173
101
6
-115
153
126
-160
33
208
-16
8
214
36
-113
120
103
-145
-32
24
-245
-187
3
-227
-339
-78
-95
-338
-192
-58
-285
-249
-23
-219
-387
102
738
1053
1240
875
-52
-350
-180
-435
-627
-395
-315
-391
-127
45
-201
-184
69
-82
-221
35
15
-211
-30
83
-158
-132
99
-54
-179
92
82
-152
20
128
-93
-17
216
59
-24
259
229
13
230
380
173
270
562
445
385
691
694
531
774
902
674
727
941
762
591
773
657
320
404
427
73
28
199
-33
-202
1
-45
-294
-167
-61
-327
-295
-54
-212
-341
-122
-136
-355
-178
-54
-305
-239
3
-174
-276
-10
-49
-298
-108
37
-228
-198
19
-179
-284
-30
-81
-309
-142
-24
-274
-262
-27
-202
-338
-89
-136
-360
-176
-82
-326
-274
-70
-248
-351
-111
-162
-382
-204
-89
-315
-264
-39
-222
-345
-85
-125
-355
-174
-60
-294
-269
-60
-229
-340
-77
-109
-355
-186
-51
-277
-225
-31
-216
-313
-63
-87
-321
-138
-10
-240
-122
169
-4
-140
100
52
-183
41
193
-79
-44
187
-16
-147
97
43
-221
-71
32
-236
-212
-6
-188
-319
-77
-105
-352
-173
-29
-280
-265
-93
-277
-37
889
1273
1014
689
181
-259
-292
-210
-424
-500
-157
-98
-280
-73
87
-158
-106
145
-54
-164
91
42
-183
-5
146
-70
-38
177
4
-101
164
120
-104
107
246
30
85
326
174
67
353
348
142
388
559
324
408
705
573
498
826
834
632
835
966
735
757
962
743
531
702
563
219
319
352
7
-10
190
-22
-172
44
-7
-262
-105
26
-241
-202
40
-167
-297
-44
-80
-299
-129
-4
-264
-244
17
-138
-274
-35
-65
-316
-139
1
-250
-217
-5
-184
-291
-30
-74
-330
-146
-24
-283
-242
-28
-216
-338
-89
-126
-354
-184
-94
-338
-274
-59
-242
-357
-107
-133
-368
-166
-36
-319
-270
-32
-212
-307
-66
-122
-320
-136
-50
-315
-244
-4
-201
-320
-61
-87
-343
-162
-20
-296
-268
-21
-188
-308
-65
-97
-311
-143
-20
-241
-157
142
14
-95
120
57
-148
77
242
-18
2
238
21
-111
159
80
-207
-81
-4
-254
-208
-1
-200
-328
-97
-134
-348
-168
-56
-305
-253
-49
-329
-269
653
1201
1114
943
373
-219
-235
-163
-441
-549
-201
-100
-244
-59
51
-205
-143
113
-70
-168
78
22
-176
22
141
-110
-58
207
22
-109
195
175
-54
154
265
25
103
350
188
100
386
368
170
384
540
361
450
709
627
602
890
903
723
942
1103
852
874
1091
859
667
829
675
350
440
445
112
106
266
2
-146
92
-6
-244
-52
32
-206
-145
53
-136
-250
-9
-54
-261
-67
27
-226
-155
82
-116
-225
40
-21
-252
-37
94
-167
-111
99
-102
-191
39
-35
-262
-80
30
-228
-178
44
-142
-250
-4
-46
-269
-83
31
-230
-191
25
-161
-255
-9
-67
-282
-99
-5
-278
-211
28
-178
-279
-22
-80
-294
-93
-5
-267
-202
14
-167
-255
-7
-62
-281
-90
31
-222
-180
43
-168
-271
8
-55
-276
-71
43
-223
-157
111
1
-31
221
155
-86
89
228
14
54
260
73
-50
179
137
-84
33
63
-233
-176
67
-143
-284
-51
-93
-290
-97
-35
-290
-191
22
-193
-332
-68
289
758
1320
1333
516
-13
53
-255
-484
-250
-262
-337
-38
89
-162
-83
149
-83
-181
119
67
-120
111
191
-39
39
233
67
-43
192
175
-54
124
247
-14
37
292
120
53
355
304
90
326
495
280
379
686
539
476
810
798
637
885
995
785
876
1075
855
720
912
764
437
538
552
216
182
287
29
-105
112
15
-257
-75
28
-242
-181
16
-185
-276
-28
-83
-316
-116
-14
-274
-202
38
-157
-273
8
-70
-300
-71
28
-243
-168
60
-144
-227
7
-61
-254
-79
15
-205
-168
-12
-208
-266
-4
-89
-301
-98
5
-239
-175
21
-179
-235
-24
-133
-322
-131
-34
-267
-241
-49
-217
-307
-41
-97
-334
-134
-40
-310
-236
-10
-208
-292
-49
-126
-335
-116
-12
-301
-232
11
-202
-295
-27
-87
-305
-120
-16
-249
-166
87
-32
-88
124
39
-173
36
192
-6
55
225
18
-68
166
88
-158
-12
29
-254
-179
29
-177
-296
-92
-156
-361
-147
-43
-333
-274
-41
-246
-384
37
622
1020
1341
1054
71
-264
-127
-453
-601
-344
-343
-407
-111
13
-215
-147
88
-102
-221
49
6
-196
18
96
-157
-70
145
-25
-104
142
85
-135
88
207
-50
11
243
73
-5
278
252
69
301
429
202
319
599
472
435
752
742
560
833
969
726
833
1026
774
642
834
696
372
445
436
95
88
249
-6
-146
68
-51
-269
-77
-24
-283
-213
-4
-237
-347
-50
-96
-334
-124
-38
-297
-187
1
-207
-254
-25
-113
-300
-87
-6
-284
-209
11
-203
-276
-6
-103
-319
-104
-40
-277
-208
-38
-234
-308
-60
-141
-349
-147
-68
-322
-263
-45
-210
-312
-73
-113
-318
-113
-33
-304
-217
-6
-222
-292
-37
-133
-345
-144
-71
-335
-234
-5
-257
-358
-89
-167
-372
-158
-84
-349
-259
-53
-271
-351
-84
-141
-331
-89
57
-166
-91
120
-100
-198
88
49
-155
46
115
-165
-107
106
-111
-263
-53
-144
-387
-183
-107
-377
-288
-106
-330
-407
-168
-219
-392
-203
-148
-452
-180
678
1053
1100
961
143
-454
-312
-305
-598
-552
-262
-312
-272
42
-49
-257
-47
30
-214
-114
104
-119
-184
78
-30
-221
9
71
-186
-84
143
-59
-121
159
81
-124
111
215
-41
73
306
107
76
363
293
139
424
551
333
479
751
578
546
847
788
616
828
855
550
572
684
377
203
337
147
-105
35
41
-212
-176
-31
-221
-297
-75
-165
-353
-139
-83
-346
-251
-42
-273
-352
-87
-179
-371
-139
-64
-322
-225
-20
-229
-285
-26
-157
-362
-116
-67
-335
-226
-35
-272
-342
-102
-174
-355
-182
-117
-357
-269
-59
-289
-363
-98
-215
-411
-171
-114
-378
-298
-105
-313
-386
-113
-197
-419
-199
-114
-369
-287
-80
-291
-368
-108
-196
-393
-174
-121
-385
-289
-95
-306
-372
-119
-192
-386
-181
-114
-359
-248
-36
-230
-239
68
6
-179
1
33
-202
-63
163
-54
-116
118
-20
-220
3
22
-284
-214
-70
-306
-369
-134
-225
-414
-202
-161
-438
-324
-75
-312
-389
-134
-296
-234
662
1232
1027
679
217
-274
-403
-285
-439
-634
-337
-133
-318
-226
-33
-244
-297
-21
-104
-315
-113
-41
-291
-182
21
-200
-237
25
-56
-218
-9
28
-200
-63
141
-48
-94
152
86
-76
161
264
30
151
386
227
259
558
516
412
679
780
577
716
929
740
685
895
748
479
607
564
180
185
308
-5
-126
97
-56
-277
-60
-46
-315
-220
-48
-274
-345
-90
-195
-383
-160
-107
-358
-260
-75
-295
-329
-76
-211
-362
-100
-76
-336
-223
-30
-249
-295
-35
-152
-327
-100
-82
-343
-230
-32
-236
-295
-64
-167
-354
-118
-72
-345
-222
-32
-273
-334
-74
-188
-376
-123
-69
-333
-234
-39
-261
-316
-62
-146
-316
-121
-51
-310
-235
-10
-245
-325
-54
-160
-358
-143
-83
-316
-226
-67
-286
-302
-39
-165
-343
-97
-52
-324
-198
9
-224
-264
-11
-87
-164
128
178
-106
-32
177
21
21
281
164
-30
172
194
-44
62
180
-99
-186
39
-65
-253
-67
-33
-259
-168
-6
-234
-283
-21
-143
-321
-126
-133
-45
748
1362
1121
572
226
-85
-357
-270
-274
-474
-225
61
-143
-188
56
-57
-235
22
65
-216
-104
92
-121
-181
84
-1
-189
53
101
-167
-54
137
-74
-118
152
78
-100
126
187
-50
102
311
124
144
423
350
237
513
609
429
593
838
668
679
971
843
658
860
843
519
534
610
272
123
274
85
-155
12
19
-269
-193
-18
-258
-319
-47
-159
-384
-155
-86
-362
-251
-59
-285
-328
-96
-190
-342
-111
-56
-311
-210
-14
-242
-296
-12
-122
-323
-75
-31
-292
-171
1
-234
-271
-27
-129
-299
-100
-51
-291
-211
-27
-213
-268
-32
-149
-312
-44
-8
-269
-165
14
-213
-259
1
-131
-313
-79
-40
-278
-156
12
-217
-248
-15
-134
-299
-69
-29
-298
-192
-3
-227
-248
12
-131
-308
-54
-30
-286
-154
14
-196
-217
28
-83
-270
-41
38
-176
-63
103
-79
-39
244
119
-62
153
174
-37
128
284
38
4
231
92
-77
156
119
-222
-108
40
-227
-232
9
-149
-325
-89
-61
-304
-174
-36
-276
-275
-75
-254
-68
856
1336
1123
752
259
-181
-287
-187
-370
-526
-162
-9
-221
-82
67
-179
-200
77
-24
-222
16
49
-236
-88
100
-149
-120
155
8
-130
96
112
-111
34
219
-10
-28
255
152
-1
252
282
67
250
474
292
322
629
575
482
764
836
611
777
1008
779
740
980
789
550
693
604
258
288
389
70
-46
146
-13
-199
-1
-1
-261
-149
13
-221
-255
-9
-154
-334
-86
-72
-328
-175
9
-242
-277
-3
-132
-310
-60
-25
-267
-130
35
-213
-222
29
-96
-255
-48
-39
-277
-138
26
-203
-237
-1
-131
-293
-58
-27
-267
-177
-11
-223
-262
-22
-148
-328
-100
-48
-289
-162
28
-208
-240
11
-119
-268
-25
-21
-251
-84
66
-198
-209
47
-88
-246
-16
23
-218
-112
71
-155
-195
52
-83
-232
20
20
-219
-56
110
-164
-195
84
-55
-224
3
19
-172
30
234
16
18
243
49
-106
184
229
-29
86
261
9
-31
235
65
-158
37
25
-235
-113
34
-226
-245
8
-130
-294
-71
-54
-281
-142
20
-267
-222
518
1014
1152
1193
532
-259
-275
-222
-506
-522
-247
-263
-312
9
46
-222
-52
117
-136
-137
101
-16
-169
44
80
-154
-29
130
-67
-50
166
15
-104
151
145
-82
83
253
36
65
342
219
108
381
407
212
440
649
431
497
821
723
626
933
947
705
873
1006
714
635
793
563
314
445
348
36
114
194
-94
-132
73
-103
-280
-57
-50
-290
-160
-17
-257
-273
-31
-182
-348
-82
-70
-321
-170
-3
-233
-251
1
-143
-285
-30
-36
-272
-118
23
-223
-234
-8
-143
-289
-70
-69
-297
-153
-4
-236
-252
-21
-172
-323
-77
-101
-354
-173
-24
-294
-295
-45
-192
-343
-97
-87
-330
-160
-12
-282
-259
-5
-175
-315
-41
-66
-343
-181
-19
-254
-259
-6
-152
-317
-57
-61
-334
-175
-20
-270
-241
3
-174
-297
-49
-74
-311
-164
-13
-264
-257
23
-101
-185
151
170
-129
-4
163
-65
-19
240
51
-104
141
122
-131
31
171
-149
-172
107
-87
-267
3
-21
-299
-130
39
-214
-205
36
-142
-294
-71
-137
-119
698
1314
1105
669
258
-144
-369
-241
-276
-532
-290
-12
-206
-184
78
-93
-242
7
-20
-265
-101
41
-202
-170
71
-86
-209
43
37
-191
-28
121
-111
-76
175
-6
-139
132
136
-68
129
300
89
151
436
310
216
541
596
408
634
818
606
655
916
791
650
875
832
492
579
659
270
162
316
71
-127
68
23
-236
-133
-34
-273
-264
-37
-223
-381
-110
-119
-374
-200
-62
-317
-280
-38
-197
-324
-72
-86
-325
-143
6
-252
-242
-2
-161
-305
-53
-54
-299
-136
6
-273
-263
10
-160
-319
-82
-88
-322
-170
-5
-275
-286
-9
-181
-333
-55
-63
-316
-153
-5
-249
-247
-11
-150
-300
-63
-62
-303
-157
-19
-261
-245
0
-167
-317
-53
-60
-325
-164
-8
-265
-269
-18
-162
-310
-53
-31
-288
-146
27
-236
-237
27
-144
-275
-4
-20
-277
-106
76
-120
-45
218
48
-102
134
118
-93
102
233
-13
5
218
50
-60
139
23
-247
-97
27
-245
-241
9
-174
-330
-71
-89
-330
-161
-23
-274
-272
-102
-234
122
1054
1345
921
455
82
-260
-357
-245
-431
-497
-116
-57
-234
-59
49
-192
-164
91
-52
-197
48
54
-186
-21
130
-112
-70
174
-4
-150
120
141
-98
69
238
23
58
301
145
50
350
348
141
357
532
337
400
685
590
515
817
833
629
833
1004
781
786
980
741
514
692
586
225
286
371
76
3
167
-29
-202
23
0
-263
-104
27
-226
-200
20
-155
-272
5
-22
-258
-61
60
-198
-162
80
-92
-233
19
7
-215
-44
81
-178
-174
65
-87
-218
20
-10
-242
-86
37
-197
-194
26
-123
-252
-8
-55
-281
-93
35
-235
-242
-6
-175
-314
-76
-102
-326
-143
-6
-276
-229
19
-187
-319
-55
-64
-307
-152
-14
-260
-199
53
-136
-247
28
-11
-271
-51
172
-48
-15
217
25
-101
156
113
-136
34
151
-99
-67
156
-11
-129
121
92
-147
7
125
-109
-65
221
119
14
247
202
-42
133
307
93
92
328
193
47
289
272
3
105
185
-97
-78
169
-40
-191
82
35
-232
-30
115
-156
-117
120
-77
-267
109
673
1072
1429
1262
366
-16
133
-168
-384
-118
-75
-204
76
210
-64
-33
209
57
-69
182
164
-71
104
239
-24
15
259
96
-14
223
197
-7
167
295
77
120
377
219
106
408
392
174
410
591
367
438
730
614
546
860
893
712
922
1091
878
921
1151
964
797
968
878
538
586
638
278
206
390
160
-31
175
134
-120
4
112
-112
-86
114
-51
-171
92
70
-181
-18
128
-112
-97
143
-17
-146
93
74
-146
4
111
-122
-89
128
-47
-174
62
36
-181
-26
105
-152
-147
109
-69
-203
60
21
-218
-41
86
-174
-150
87
-65
-175
67
29
-216
-48
76
-173
-150
81
-72
-217
30
3
-251
-63
76
-178
-160
76
-80
-217
31
15
-211
-48
73
-165
-137
77
-100
-216
29
6
-205
-26
110
-166
-149
128
-46
-198
47
36
-191
-56
70
-141
-92
164
47
-22
251
225
-34
107
260
57
92
308
140
-4
215
182
-70
71
137
-192
-157
89
-110
-251
-13
-20
-266
-132
15
-229
-207
28
-154
-310
-54
287
769
1374
1400
555
-80
-65
-301
-494
-242
-266
-405
-76
128
-110
-73
146
-27
-124
113
83
-129
25
175
-55
-57
184
39
-85
169
134
-135
68
248
-27
6
270
116
-13
240
259
18
220
425
175
226
539
455
369
648
684
489
672
839
639
694
943
762
607
800
691
401
470
462
140
92
234
13
-166
15
-42
-303
-175
-56
-308
-300
-84
-249
-368
-106
-116
-349
-186
-50
-272
-251
-28
-187
-325
-71
-77
-324
-176
-29
-265
-269
-25
-181
-325
-70
-97
-341
-166
-32
-305
-281
-29
-219
-335
-90
-146
-395
-240
-92
-338
-316
-76
-238
-357
-130
-165
-387
-228
-102
-330
-287
-49
-229
-358
-94
-118
-364
-195
-44
-299
-287
-39
-220
-356
-108
-144
-368
-194
-72
-317
-294
-41
-212
-366
-88
-71
-304
-148
-8
-228
-208
25
-131
-245
82
102
-119
72
168
-109
-47
238
84
-82
156
155
-98
68
180
-146
-184
36
-125
-255
-30
-65
-323
-173
2
-238
-255
-15
-156
-304
-70
-157
-311
421
1191
1141
883
458
-192
-460
-321
-377
-601
-386
-105
-228
-167
111
-32
-165
84
58
-177
-10
123
-142
-120
123
-49
-172
86
70
-154
29
164
-86
-60
199
38
-96
189
205
-29
138
328
124
150
448
359
242
530
601
421
623
814
615
670
953
815
684
924
849
549
637
673
345
245
369
131
-90
110
53
-241
-109
26
-230
-247
-21
-190
-333
-76
-88
-341
-182
-30
-287
-280
-22
-164
-309
-66
-81
-299
-123
-10
-246
-212
23
-144
-297
-42
-50
-305
-151
-3
-232
-188
38
-178
-313
-50
-95
-341
-185
-54
-280
-255
-28
-215
-351
-110
-137
-361
-193
-50
-273
-254
-25
-185
-329
-75
-98
-353
-185
-35
-289
-272
-9
-153
-289
-48
-44
-262
-113
11
-220
-205
29
-117
-292
-86
-79
-300
-170
-38
-258
-246
39
-42
-165
86
58
-205
-47
146
-53
-75
142
-9
-175
74
90
-194
-83
15
-285
-275
-23
-217
-395
-144
-143
-399
-270
-128
-354
-357
-134
-332
-553
-114
497
825
1158
996
88
-309
-155
-405
-634
-414
-325
-428
-194
-26
-285
-280
-15
-170
-295
4
6
-249
-90
77
-173
-194
65
-48
-193
44
59
-170
-9
143
-82
-53
201
74
-53
213
244
24
209
404
197
225
541
455
323
635
714
503
691
901
700
709
969
802
579
744
649
315
363
395
69
4
187
-15
-209
8
-16
-296
-155
-14
-300
-303
-49
-204
-384
-170
-158
-396
-249
-106
-369
-341
-52
-208
-382
-118
-92
-372
-238
-66
-313
-307
-40
-197
-356
-122
-136
-378
-222
-60
-308
-322
-89
-227
-374
-150
-156
-394
-246
-85
-311
-341
-114
-247
-403
-174
-168
-416
-281
-97
-324
-349
-93
-234
-393
-147
-107
-324
-211
-76
-317
-335
-66
-219
-409
-144
-125
-390
-245
-85
-322
-321
-80
-225
-388
-141
-118
-396
-243
-36
-298
-295
-34
-195
-329
-62
13
-161
2
159
-104
-131
140
57
-106
116
180
-77
0
153
-86
-146
42
-156
-347
-82
-90
-391
-261
-101
-338
-347
-88
-214
-374
-126
-103
-412
-325
157
586
1040
1315
724
-61
-44
-81
-490
-419
-224
-354
-217
87
-73
-222
19
14
-233
-83
100
-107
-91
156
11
-170
74
95
-178
-16
168
-89
-101
169
32
-114
152
162
-67
86
270
80
66
330
233
115
412
495
302
479
704
529
576
874
761
602
878
932
627
707
844
477
320
499
268
2
165
126
-186
-110
20
-219
-251
-34
-157
-340
-118
-78
-341
-223
-66
-278
-275
-30
-170
-365
-104
-62
-301
-104
72
-194
-210
37
-119
-307
-73
-39
-319
-206
-13
-251
-282
-22
-158
-321
-62
-36
-311
-205
-19
-243
-282
-35
-154
-337
-119
-69
-331
-227
-42
-283
-331
-61
-173
-369
-140
-76
-320
-232
-43
-255
-322
-87
-206
-366
-109
-76
-354
-241
-54
-295
-323
-36
-155
-322
-38
42
-199
-93
84
-147
-227
21
-79
-291
-71
-25
-288
-159
24
-219
-253
2
-122
-302
-48
55
-156
-39
134
-82
-121
131
58
-117
123
192
-100
-7
191
-52
-161
38
-106
-315
-102
-44
-279
-179
4
-232
-289
-7
-83
-257
-37
16
-297
-214
390
873
1213
1402
728
-70
20
-41
-446
-368
-152
-237
-163
132
8
-210
20
85
-195
-101
113
-97
-146
114
5
-187
64
128
-143
-35
170
-43
-88
185
91
-116
125
221
-47
87
330
115
111
419
328
175
457
581
393
536
797
625
613
928
845
690
941
988
692
720
854
541
352
509
332
61
203
181
-136
-68
131
-96
-193
57
-38
-258
-36
19
-244
-136
58
-145
-229
42
-31
-267
-37
30
-250
-139
63
-167
-261
-25
-105
-288
-86
-58
-319
-249
-38
-219
-340
-115
-185
-388
-199
-115
-365
-301
-93
-307
-403
-137
-204
-414
-205
-135
-400
-316
-139
-356
-414
-179
-263
-434
-235
-184
-444
-352
-132
-350
-409
-152
-251
-433
-224
-126
-373
-321
-110
-329
-408
-131
-221
-433
-218
-125
-371
-303
-79
-264
-342
-86
-171
-386
-172
-56
-321
-276
-19
-205
-324
-58
-122
-311
-65
55
-159
-42
169
-54
-144
113
105
-62
132
240
-38
-11
215
15
-119
54
-71
-282
-101
-30
-269
-220
-31
-234
-327
-56
-135
-350
-137
-40
-289
-270
226
752
1164
1447
878
-69
-148
-149
-517
-477
-265
-384
-363
10
-16
-255
-32
85
-179
-85
117
-78
-108
146
86
-125
70
179
-82
-21
208
23
-66
204
151
-65
138
258
43
107
332
173
105
415
421
243
471
607
411
533
799
690
684
971
920
735
952
1048
782
787
932
651
441
618
491
172
267
309
2
6
198
-40
-171
100
27
-243
-55
54
-204
-147
74
-122
-225
44
5
-226
-22
128
-125
-82
158
-21
-138
115
81
-128
34
119
-105
-45
176
-14
-143
115
71
-182
12
148
-132
-91
150
-49
-175
115
111
-113
62
175
-85
-58
181
11
-120
137
118
-101
80
179
-83
-51
172
13
-107
120
82
-138
16
132
-107
-99
114
-54
-187
43
20
-203
-45
53
-197
-154
63
-106
-229
11
-4
-236
-60
87
-156
-87
219
91
-23
204
141
-89
120
285
28
35
281
81
-82
166
133
-137
-30
67
-188
-161
54
-142
-263
-19
-59
-290
-111
37
-234
-236
0
-204
-204
606
1202
1159
1004
437
-272
-345
-193
-421
-590
-285
-138
-242
-30
106
-142
-135
113
-25
-146
111
67
-182
-4
139
-89
-44
183
16
-101
139
138
-77
88
237
13
36
268
126
25
307
330
123
345
559
342
395
694
609
520
787
847
665
829
1011
796
791
1024
822
591
752
664
320
356
417
90
18
217
4
-213
-8
-22
-257
-141
-4
-226
-262
-26
-171
-336
-82
-84
-329
-146
5
-258
-242
8
-145
-277
-33
-25
-275
-132
39
-199
-210
20
-125
-258
-33
-51
-290
-139
7
-247
-249
5
-164
-332
-71
-80
-338
-185
-26
-252
-267
-21
-144
-308
-90
-91
-317
-152
5
-252
-268
21
-104
-299
-58
-29
-271
-119
32
-225
-238
27
-100
-278
-58
-37
-264
-140
25
-204
-238
10
-117
-287
-54
-21
-279
-146
33
-218
-245
38
-46
-165
103
140
-115
-21
151
-52
-47
231
80
-131
87
125
-121
-19
130
-135
-215
20
-101
-308
-106
-59
-296
-183
-9
-231
-253
19
-104
-304
-135
-123
30
836
1405
1116
503
157
-117
-427
-330
-307
-535
-305
-9
-175
-209
31
-98
-283
3
90
-170
-71
130
-61
-109
149
38
-137
127
165
-98
33
224
9
-18
248
152
-22
212
280
58
197
426
252
232
524
488
353
629
739
534
693
936
764
737
1012
916
716
902
897
629
681
749
441
299
458
269
11
182
197
-84
-29
148
-82
-178
72
-27
-249
-51
7
-255
-171
25
-181
-246
2
-88
-288
-69
6
-244
-153
64
-123
-195
72
-21
-239
-5
63
-204
-107
82
-125
-204
37
-26
-241
-54
34
-224
-164
45
-173
-263
-1
-97
-312
-83
-2
-282
-195
17
-213
-294
-41
-118
-315
-117
-47
-270
-187
-10
-198
-283
-41
-115
-308
-93
-32
-305
-223
-14
-233
-303
-44
-127
-323
-118
-21
-282
-221
19
-202
-316
-46
-102
-319
-128
-7
-254
-210
8
-208
-292
-8
-68
-251
0
144
-81
-9
201
-37
-144
162
131
-103
90
195
-101
-59
179
-30
-193
-17
-101
-324
-145
-56
-336
-288
-45
-243
-366
-87
-121
-358
-172
-78
-403
-163
725
1101
1092
977
240
-326
-185
-224
-549
-454
-168
-246
-247
17
-47
-282
-93
55
-190
-134
112
-78
-194
63
23
-189
5
135
-125
-101
155
-4
-116
130
86
-124
79
216
-13
70
335
164
84
388
380
182
427
637
457
561
859
716
621
931
933
711
887
974
678
657
795
527
314
447
319
10
105
153
-160
-164
64
-133
-305
-57
-89
-337
-160
-44
-314
-283
-42
-215
-344
-93
-116
-362
-192
-49
-298
-276
-23
-177
-332
-92
-85
-303
-131
7
-250
-240
19
-144
-305
-53
-80
-325
-138
-9
-264
-232
-5
-180
-328
-77
-75
-330
-183
-23
-270
-289
-32
-172
-329
-68
-60
-317
-176
-24
-244
-235
-2
-132
-260
-18
-28
-265
-100
45
-211
-226
27
-123
-288
-20
-11
-288
-143
18
-231
-229
3
-133
-252
-6
13
-213
-72
67
-173
-168
71
-93
-247
12
77
-90
70
228
-26
-88
161
88
-39
179
199
-68
13
164
-67
-109
78
-105
-291
-79
-54
-315
-202
-2
-240
-260
52
-73
-282
-47
-21
-289
-197
171
591
1147
1511
977
77
-55
-108
-499
-428
-255
-419
-286
45
-78
-239
-15
19
-203
-58
110
-104
-127
79
-26
-139
76
96
-135
-1
186
-50
-70
196
71
-96
153
187
-50
88
295
118
107
391
323
198
473
552
364
559
827
650
649
977
880
700
939
982
741
813
886
543
423
577
336
61
191
146
-153
-84
53
-197
-267
-33
-123
-328
-135
-71
-336
-244
-58
-280
-322
-51
-152
-355
-147
-87
-333
-241
-33
-253
-305
-36
-133
-308
-111
-50
-279
-205
-26
-228
-289
-41
-129
-341
-118
-45
-315
-209
-3
-225
-317
-72
-155
-361
-141
-69
-328
-236
-45
-272
-357
-87
-154
-367
-151
-95
-353
-236
-31
-225
-320
-101
-157
-359
-155
-79
-331
-228
-20
-232
-306
-46
-128
-341
-149
-73
-319
-211
5
-220
-302
-50
-114
-318
-137
-61
-292
-211
9
-120
-148
110
59
-149
2
108
-60
24
215
25
-72
148
54
-149
21
24
-292
-229
-14
-241
-347
-88
-169
-388
-166
-77
-354
-283
-50
-245
-377
-131
194
682
1271
1249
417
-142
-160
-461
-636
-398
-420
-520
-193
-9
-266
-203
45
-146
-236
33
-15
-248
-63
69
-164
-127
93
-74
-189
70
49
-183
0
146
-87
-30
206
2
-78
222
184
-6
216
375
182
268
539
427
379
666
670
490
710
893
693
747
972
778
631
825
726
396
432
445
119
70
211
-25
-203
-6
-70
-337
-169
-55
-335
-304
-81
-284
-403
-131
-196
-440
-223
-108
-365
-318
-90
-261
-384
-114
-137
-368
-179
-46
-301
-297
-44
-201
-352
-94
-127
-365
-201
-82
-332
-314
-57
-233
-409
-170
-177
-397
-222
-106
-382
-378
-131
-278
-419
-155
-187
-453
-265
-128
-406
-379
-123
-281
-418
-185
-188
-412
-254
-100
-346
-349
-97
-246
-370
-108
-128
-363
-190
-48
-304
-286
-10
-155
-342
-86
-56
-294
-90
121
-105
-124
127
-26
-200
94
129
-166
-27
112
-162
-124
114
-88
-323
-125
-119
-396
-269
-112
-347
-383
-145
-277
-446
-200
-188
-437
-307
-171
-440
-164
778
1121
941
672
5
-531
-464
-383
-643
-668
-335
-326
-423
-148
-107
-365
-227
-55
-282
-301
-46
-165
-346
-107
-50
-297
-163
25
-220
-255
19
-73
-218
27
66
-160
-26
163
-51
-87
214
132
-19
268
342
134
307
545
382
403
706
635
484
752
839
585
681
855
590
458
621
411
114
249
216
-115
-78
57
-195
-278
-62
-188
-378
-170
-130
-373
-280
-107
-312
-352
-108
-223
-412
-192
-120
-386
-310
-72
-280
-369
-112
-198
-382
-168
-119
-371
-271
-90
-302
-351
-103
-223
-422
-191
-145
-400
-303
-114
-321
-381
-125
-227
-423
-202
-150
-404
-287
-85
-330
-405
-119
-198
-408
-204
-130
-406
-332
-89
-294
-383
-121
-193
-415
-213
-107
-366
-292
-87
-299
-366
-123
-209
-393
-176
-81
-333
-293
-83
-275
-369
-109
-170
-395
-213
-94
-349
-290
-50
-254
-325
-28
-95
-277
5
132
-112
-53
139
-54
-114
199
149
-114
77
175
-119
-43
171
-98
-238
-27
-104
-291
-122
-48
-295
-253
-38
-233
-344
-86
-129
-356
-206
-155
-296
315
1193
1210
824
457
-16
-355
-317
-282
-527
-440
-76
-162
-295
-40
-63
-302
-123
21
-216
-186
46
-137
-246
27
-15
-230
-22
79
-192
-123
146
-43
-156
150
123
-110
92
226
4
64
327
215
116
384
420
243
471
671
457
519
820
703
621
928
932
699
866
961
648
576
726
485
219
363
275
-52
60
165
-134
-133
105
-77
-225
9
6
-222
-68
93
-140
-145
81
-76
-220
22
15
-232
-85
49
-175
-167
60
-70
-207
44
45
-202
-55
95
-149
-145
104
-76
-255
-2
-8
-250
-88
47
-189
-195
26
-115
-275
-57
-40
-277
-154
6
-224
-265
-29
-128
-291
-83
-64
-301
-165
-14
-242
-247
-9
-152
-325
-69
-49
-322
-169
-1
-245
-253
-1
-129
-305
-70
-41
-312
-167
14
-244
-248
12
-132
-295
-61
-43
-289
-157
25
-196
-240
46
25
-113
119
175
-96
8
223
44
4
230
118
-84
134
186
-85
-12
117
-161
-215
65
-62
-279
-54
3
-242
-149
14
-208
-253
10
-109
-374
-185
216
675
1211
1349
626
-59
-5
-187
-529
-338
-249
-399
-159
98
-122
-194
73
-26
-222
15
59
-186
-56
139
-76
-131
126
45
-139
67
123
-118
-5
200
4
-42
220
159
-20
195
301
102
220
444
283
271
567
525
382
682
818
594
739
1001
803
742
1032
933
703
866
859
530
508
596
303
146
305
159
-93
61
109
-172
-111
87
-137
-229
41
-32
-268
-77
36
-199
-156
53
-155
-273
6
-33
-259
-78
30
-195
-147
46
-138
-218
33
-23
-219
-37
61
-173
-113
112
-96
-193
69
-12
-235
-19
95
-146
-93
114
-59
-195
32
-1
-253
-68
66
-223
-204
36
-153
-267
8
-42
-290
-102
6
-259
-215
-4
-190
-280
-18
-75
-308
-114
11
-248
-210
20
-178
-281
10
-47
-297
-90
19
-252
-178
64
-118
-236
11
-5
-227
-67
45
-216
-172
95
-66
-127
193
161
-65
99
215
9
94
326
125
7
242
191
-28
126
193
-100
-117
83
-88
-229
19
-26
-308
-122
53
-212
-216
27
-123
-253
-45
-100
-8
866
1498
1283
803
321
-169
-388
-209
-253
-485
-242
11
-143
-94
176
3
-142
152
120
-144
18
181
-32
-30
216
88
-73
156
178
-61
90
264
34
19
263
153
-15
221
291
69
211
403
215
236
512
419
324
633
709
540
771
989
791
826
1090
963
834
1056
1017
701
723
799
480
341
515
318
36
204
217
-53
30
170
-79
-129
125
-24
-216
49
56
-219
-85
84
-123
-164
56
-41
-189
43
58
-206
-71
127
-111
-170
86
-45
-255
-27
40
-192
-73
109
-120
-187
59
-33
-226
-20
21
-235
-125
80
-165
-239
41
-65
-259
-30
5
-258
-151
35
-176
-225
26
-78
-274
-51
22
-228
-146
43
-176
-237
24
-98
-290
-47
9
-253
-169
48
-154
-247
19
-67
-289
-69
14
-240
-171
37
-155
-244
3
-69
-276
-79
9
-225
-152
31
-170
-220
62
0
-168
93
202
-68
-38
148
-32
-74
208
119
-101
98
165
-102
-58
111
-144
-269
-12
-79
-329
-162
-40
-286
-257
-31
-221
-312
-44
-120
-355
-202
122
516
1097
1383
731
-97
-173
-314
-621
-443
-360
-516
-300
7
-123
-211
49
9
-234
-40
85
-153
-109
95
-62
-144
112
73
-128
82
186
-79
-22
214
51
-45
217
207
-15
187
341
87
160
427
275
213
503
510
352
570
728
549
648
926
787
692
963
932
659
803
896
562
491
617
326
107
299
185
-119
46
131
-179
-163
40
-164
-280
-29
-78
-311
-141
-25
-270
-252
-12
-163
-301
-62
-68
-280
-146
-17
-204
-178
42
-123
-270
-5
-19
-271
-94
47
-221
-219
19
-128
-281
-59
-59
-296
-139
-11
-251
-237
-25
-164
-306
-84
-89
-337
-175
-9
-250
-259
-17
-160
-317
-84
-72
-310
-166
-19
-269
-264
0
-151
-328
-88
-54
-302
-183
-25
-249
-255
-42
-194
-330
-88
-95
-329
-146
26
-231
-243
23
-132
-311
-60
-30
-255
-105
72
-87
-45
204
63
-126
86
142
-28
100
216
-33
-64
156
5
-142
74
27
-280
-164
19
-259
-312
-43
-184
-369
-126
-80
-341
-226
-36
-286
-389
-117
207
713
1295
1209
337
-129
-82
-409
-565
-344
-418
-477
-152
-78
-323
-186
-5
-222
-240
-2
-87
-261
-64
25
-204
-128
67
-125
-185
63
-29
-213
10
67
-162
-48
167
-23
-77
200
129
-41
213
321
105
262
512
328
340
656
616
474
719
851
638
740
966
722
618
845
650
352
473
453
114
90
213
-57
-184
29
-81
-309
-139
-74
-333
-253
-57
-274
-357
-92
-157
-393
-192
-110
-380
-294
-63
-273
-370
-116
-204
-406
-187
-102
-331
-254
-59
-224
-312
-78
-137
-352
-133
-46
-326
-249
-27
-248
-340
-58
-136
-353
-119
-37
-295
-212
-26
-211
-298
-82
-135
-321
-144
-68
-331
-280
-39
-233
-350
-107
-171
-368
-166
-80
-327
-262
-51
-245
-344
-71
-127
-378
-195
-75
-329
-287
-44
-225
-356
-101
-147
-370
-172
-84
-326
-258
-55
-232
-338
-97
-138
-349
-126
34
-204
-117
177
12
-124
117
82
-136
76
205
-62
-36
199
17
-135
98
13
-279
-128
-6
-280
-265
-12
-207
-345
-74
-97
-336
-154
-27
-304
-256
-80
-188
236
1121
1349
899
405
69
-267
-383
-239
-421
-500
-105
-14
-224
-54
90
-179
-160
90
-74
-200
47
24
-194
-25
113
-113
-89
173
29
-122
146
157
-88
83
240
9
36
284
166
65
344
392
179
356
576
377
411
725
640
543
852
919
684
866
1083
843
826
1034
801
570
723
608
272
324
372
46
-18
199
15
-198
31
24
-262
-125
40
-217
-254
9
-119
-312
-68
-26
-275
-165
3
-241
-292
-6
-148
-357
-92
-45
-299
-178
-5
-246
-300
-49
-152
-325
-123
-106
-342
-217
-34
-249
-298
-47
-158
-347
-119
-87
-361
-229
-44
-300
-318
-53
-169
-353
-136
-71
-338
-250
-61
-299
-358
-103
-206
-386
-171
-120
-349
-249
-74
-303
-375
-105
-192
-388
-190
-135
-357
-267
-74
-291
-346
-100
-205
-377
-167
-91
-342
-249
-35
-266
-332
-67
-179
-389
-178
-115
-359
-269
-64
-245
-285
24
17
-150
51
118
-140
-34
222
21
-83
159
59
-173
48
108
-199
-163
-35
-274
-347
-95
-176
-405
-208
-118
-385
-303
-65
-275
-373
-115
-236
-444
184
959
1084
1089
735
-105
-368
-197
-406
-648
-396
-160
-313
-228
10
-183
-293
-35
-86
-296
-96
5
-242
-171
48
-130
-197
49
-26
-213
-11
61
-173
-91
129
-46
-126
156
127
-79
128
266
48
120
399
291
227
531
541
362
621
789
584
699
949
782
705
960
867
572
712
742
372
314
436
161
-16
182
91
-188
-53
34
-248
-217
3
-182
-310
-69
-88
-323
-178
-55
-284
-229
12
-190
-306
-19
-71
-311
-97
35
-223
-176
72
-113
-245
1
-23
-245
-91
20
-229
-209
21
-126
-258
-15
-19
-269
-111
37
-202
-184
35
-125
-265
-33
-28
-265
-132
11
-221
-227
24
-108
-246
0
-35
-276
-88
44
-223
-220
28
-110
-261
-24
-39
-285
-138
5
-204
-207
-12
-157
-289
-42
-40
-297
-139
5
-263
-240
24
-147
-312
-87
-72
-322
-190
-14
-251
-224
51
-60
-165
92
103
-150
-28
138
-36
-5
229
90
-72
144
160
-90
-5
93
-177
-203
16
-168
-333
-83
-80
-317
-174
4
-226
-290
-41
-157
-376
-161
228
698
1290
1422
631
-88
-87
-289
-562
-382
-365
-481
-180
54
-188
-210
70
-59
-258
-14
28
-222
-90
89
-131
-171
80
-18
-186
49
75
-155
-12
151
-58
-68
186
97
-51
162
217
11
155
376
174
137
473
465
328
605
715
527
693
947
746
702
994
875
658
827
795
489
514
588
262
94
260
96
-152
39
55
-226
-135
27
-200
-266
-37
-154
-368
-134
-70
-362
-265
-57
-262
-318
-66
-162
-359
-114
-50
-325
-228
-15
-198
-256
13
-69
-307
-108
-18
-277
-183
23
-214
-293
-36
-126
-326
-80
-16
-313
-236
-49
-254
-295
-15
-106
-347
-151
-50
-308
-233
-12
-242
-301
-22
-145
-335
-103
-45
-309
-229
8
-195
-318
-61
-99
-315
-103
15
-258
-210
22
-164
-269
3
-49
-284
-97
11
-212
-156
86
-15
-70
210
176
-65
96
183
-21
92
282
59
-52
200
163
-78
82
139
-188
-143
92
-123
-260
-26
-84
-316
-115
-9
-292
-243
-17
-176
-305
-109
165
615
1246
1327
522
-85
-108
-410
-603
-353
-421
-580
-227
-1
-245
-206
55
-113
-255
8
1
-225
-48
79
-179
-139
101
-87
-183
112
80
-153
37
162
-81
-31
209
60
-42
220
225
13
190
362
160
227
516
409
344
646
694
502
694
886
676
718
962
775
595
785
696
369
423
442
108
50
191
-48
-232
-12
-56
-340
-189
-59
-330
-318
-84
-263
-411
-169
-188
-430
-262
-99
-325
-328
-88
-230
-381
-120
-129
-375
-209
-66
-307
-304
-62
-235
-395
-140
-148
-407
-253
-99
-356
-349
-111
-261
-393
-161
-167
-402
-270
-122
-348
-361
-123
-271
-418
-182
-181
-435
-307
-128
-371
-405
-149
-280
-439
-198
-174
-423
-263
-85
-349
-339
-75
-236
-392
-154
-158
-412
-284
-118
-339
-363
-108
-229
-419
-182
-120
-375
-216
45
-170
-185
65
-95
-243
21
72
-156
-49
101
-142
-193
55
-83
-318
-151
-147
-392
-259
-110
-385
-416
-137
-261
-454
-231
-179
-422
-313
-165
-455
-258
686
1123
1006
811
164
-417
-378
-288
-564
-642
-274
-216
-321
-48
7
-286
-198
25
-175
-242
31
-47
-257
-41
32
-214
-103
87
-112
-155
83
0
-169
66
147
-91
28
231
41
37
327
255
79
333
460
270
401
649
505
477
796
766
597
864
971
718
795
971
711
555
705
533
219
320
323
-22
-7
157
-116
-233
18
-81
-302
-120
-49
-294
-252
-52
-226
-330
-86
-127
-344
-160
-60
-309
-233
-6
-230
-345
-77
-130
-343
-124
-27
-315
-258
-29
-210
-306
-55
-98
-341
-168
-45
-321
-274
-11
-217
-350
-96
-152
-372
-171
-70
-350
-280
-40
-240
-329
-80
-158
-375
-189
-79
-315
-267
-51
-236
-333
-71
-117
-344
-179
-59
-293
-259
-14
-192
-321
-46
-80
-316
-140
-40
-285
-249
-39
-198
-307
-68
-100
-305
-113
25
-153
-63
142
-50
-154
79
78
-82
87
188
-72
-62
163
-9
-141
61
-41
-309
-141
-27
-290
-284
-83
-239
-344
-106
-136
-360
-205
-78
-329
-374
63
565
966
1301
900
-22
-178
-87
-445
-515
-287
-340
-356
-20
24
-241
-87
67
-190
-176
73
-67
-213
26
23
-224
-67
101
-129
-118
140
-11
-161
93
119
-110
42
215
-2
12
275
173
35
312
392
177
374
616
412
440
772
689
577
874
908
697
869
1028
757
679
868
639
364
517
440
92
149
258
-26
-94
124
-30
-221
34
75
-190
-60
101
-157
-183
106
1
-185
52
101
-158
-41
148
-90
-134
115
14
-156
72
122
-160
-56
155
-86
-150
118
0
-198
36
78
-192
-66
129
-115
-142
95
-45
-194
29
57
-200
-99
102
-114
-179
69
-59
-271
-37
14
-264
-162
34
-185
-251
-6
-85
-290
-90
-7
-251
-138
63
-184
-235
30
-68
-267
-58
13
-243
-148
63
-153
-245
18
-77
-299
-52
46
-154
6
222
13
-69
169
107
-57
164
238
-20
48
250
36
-64
155
13
-251
-67
15
-265
-214
0
-221
-317
-53
-105
-313
-131
-41
-297
-254
-89
-26
574
1335
1282
604
156
-20
-372
-416
-243
-454
-423
-18
-41
-256
-76
7
-227
-145
74
-118
-196
50
-25
-226
-20
64
-195
-106
149
-28
-129
136
100
-110
78
200
-28
30
295
138
53
371
350
125
371
564
380
506
771
629
590
908
921
738
945
1047
790
816
976
703
496
656
496
140
231
290
-25
-55
133
-62
-200
27
-39
-283
-109
3
-251
-219
-14
-176
-271
-40
-68
-298
-147
-9
-252
-235
7
-161
-277
-20
-48
-269
-129
0
-229
-225
24
-149
-296
-51
-84
-326
-151
-14
-274
-244
0
-161
-307
-79
-88
-301
-142
-28
-268
-250
-23
-190
-326
-55
-91
-357
-170
-33
-267
-226
1
-144
-276
-34
-45
-287
-93
62
-175
-148
62
-106
-238
7
-26
-259
-80
41
-189
-172
60
-82
-240
0
4
-232
-65
68
-168
-128
153
70
-58
173
192
-51
101
296
82
68
312
167
-20
201
225
-45
12
106
-143
-146
103
-62
-266
-23
11
-264
-125
63
-170
-179
57
-110
-335
94
813
1146
1351
1139
193
-243
-112
-359
-564
-322
-207
-335
-135
104
-85
-120
102
-13
-165
54
98
-117
-4
138
-71
-88
172
61
-115
136
179
-83
45
258
19
-24
285
196
32
271
316
125
287
498
328
327
629
582
453
736
844
634
775
1018
851
810
1044
925
697
841
805
444
454
526
177
80
291
92
-156
52
104
-188
-111
110
-147
-246
16
-90
-289
-53
23
-269
-189
29
-200
-266
26
-69
-257
-5
56
-209
-116
99
-110
-172
91
7
-183
11
77
-185
-108
117
-113
-189
78
-36
-251
-61
38
-179
-117
69
-164
-223
73
-39
-268
-19
77
-194
-118
85
-133
-215
56
-7
-189
34
108
-160
-79
131
-82
-167
91
17
-189
23
113
-152
-104
109
-72
-159
63
2
-173
19
115
-120
-27
246
90
14
251
151
-46
203
299
6
84
299
41
-69
213
132
-166
-29
80
-162
-112
73
-137
-224
4
-53
-271
-94
38
-226
-172
24
-205
16
938
1346
1077
695
153
-339
-390
-246
-427
-534
-192
-83
-219
-17
109
-136
-97
168
-10
-162
119
103
-145
20
172
-72
-60
191
30
-87
168
148
-79
100
227
-22
56
303
122
33
305
290
109
318
468
269
368
655
512
441
751
784
591
793
977
701
691
933
694
468
630
510
184
262
307
-35
-89
98
-113
-290
-63
-99
-365
-203
-62
-336
-325
-55
-222
-385
-142
-158
-392
-218
-49
-260
-240
9
-151
-296
-45
-62
-297
-131
15
-229
-242
14
-127
-311
-76
-72
-325
-177
-29
-273
-277
-42
-181
-341
-101
-77
-344
-202
-31
-302
-306
-41
-191
-351
-101
-86
-365
-227
-38
-284
-294
-50
-204
-363
-131
-116
-368
-229
-55
-310
-327
-67
-227
-392
-144
-141
-401
-254
-82
-332
-344
-102
-253
-415
-164
-122
-373
-240
-3
-165
-179
75
-54
-244
-20
50
-148
-38
109
-115
-160
72
-28
-244
-76
-73
-373
-247
-71
-331
-362
-96
-211
-395
-170
-128
-381
-263
-72
-344
-474
-73
386
824
1262
979
53
-249
-141
-465
-594
-355
-399
-471
-160
-67
-313
-203
-17
-239
-276
-10
-133
-335
-65
9
-250
-118
94
-151
-198
118
14
-202
30
105
-135
-29
178
-9
-52
219
141
-33
228
317
110
259
499
362
357
658
624
483
749
855
629
739
969
740
615
828
636
324
460
426
65
73
213
-51
-176
60
-72
-326
-105
-59
-326
-236
-52
-262
-346
-86
-178
-375
-115
-25
-278
-178
44
-155
-234
25
-47
-253
-70
9
-244
-167
60
-159
-260
-1
-68
-294
-103
12
-259
-223
23
-173
-293
-37
-115
-339
-120
-35
-314
-230
-13
-230
-317
-61
-114
-333
-162
-54
-299
-227
-21
-245
-336
-80
-144
-365
-161
-72
-333
-262
-30
-206
-315
-63
-126
-372
-167
-40
-315
-264
-19
-224
-297
-3
-66
-296
-111
4
-234
-165
142
27
-110
163
178
-74
114
310
40
33
245
38
-87
190
147
-156
-44
43
-215
-175
31
-170
-293
-38
-70
-312
-137
-17
-295
-257
0
-241
-361
341
993
1109
1151
679
-123
-215
-72
-377
-540
-209
-128
-308
-93
52
-198
-183
59
-74
-223
-10
-9
-227
-53
86
-166
-115
127
-60
-171
84
70
-151
3
149
-83
-28
243
79
-29
235
239
41
235
419
232
312
583
476
431
723
752
570
775
945
730
773
999
808
606
749
631
293
353
392
41
-32
167
-23
-212
13
-4
-293
-159
-12
-292
-298
-31
-186
-331
-104
-138
-358
-200
-42
-276
-275
-7
-157
-315
-85
-81
-297
-159
-3
-237
-269
-27
-173
-341
-72
-49
-325
-174
3
-257
-299
-57
-167
-333
-117
-92
-347
-204
-22
-265
-246
19
-145
-312
-55
-37
-303
-152
23
-250
-287
-9
-137
-324
-83
-69
-331
-195
-39
-269
-286
-55
-177
-355
-137
-87
-327
-199
-14
-257
-296
-28
-112
-285
-99
-43
-263
-166
22
-190
-234
19
-83
-232
18
104
-73
48
209
-18
-73
213
160
0
209
212
-62
58
246
-4
-88
119
-37
-258
-18
37
-267
-145
32
-215
-228
5
-114
-280
-69
-35
-313
-273
96
524
1060
1439
973
78
-54
-48
-457
-411
-222
-387
-282
52
-32
-174
60
83
-160
-37
166
-35
-92
162
67
-112
128
186
-80
30
249
-1
-47
265
142
-46
209
286
38
154
396
207
154
444
379
215
511
628
409
569
843
686
659
975
930
757
983
1028
766
817
920
640
466
571
404
144
249
216
-77
-16
125
-119
-199
53
-36
-267
-74
-17
-285
-183
11
-207
-278
-56
-134
-323
-120
-50
-303
-215
-16
-200
-265
-36
-125
-317
-98
-21
-277
-193
23
-183
-274
-11
-100
-337
-121
-22
-267
-193
13
-178
-262
3
-81
-312
-91
-6
-275
-210
16
-176
-278
-14
-71
-278
-109
-23
-241
-187
2
-204
-281
-34
-117
-328
-122
-29
-309
-233
-3
-216
-287
-7
-69
-280
-96
-16
-240
-174
9
-170
-254
-11
-78
-303
-76
40
-245
-179
76
-128
-199
139
107
-116
53
125
-127
-38
230
17
-121
163
78
-188
19
114
-185
-190
11
-152
-261
-42
-108
-349
-164
-41
-300
-222
22
-204
-322
-46
-140
-282
463
1224
1204
964
480
-179
-438
-292
-362
-639
-402
-122
-274
-191
65
-102
-236
11
-23
-252
-46
68
-209
-142
125
-57
-191
60
30
-182
-14
82
-147
-94
141
-2
-118
116
96
-108
67
212
-9
25
301
166
82
390
427
252
467
655
445
547
860
678
530
782
727
426
534
607
257
171
342
81
-150
67
29
-256
-141
-7
-247
-264
-62
-236
-375
-107
-100
-349
-216
-70
-322
-303
-34
-202
-343
-95
-95
-322
-163
-12
-277
-282
-27
-185
-317
-44
-54
-307
-187
-35
-263
-292
-42
-208
-382
-103
-97
-364
-216
-77
-323
-307
-66
-220
-353
-93
-76
-313
-191
-45
-275
-289
-32
-163
-320
-63
-58
-330
-192
-27
-249
-239
10
-134
-288
-50
-61
-312
-166
3
-213
-221
23
-116
-294
-59
-18
-260
-138
1
-239
-230
38
-70
-163
166
209
-28
135
288
53
81
343
185
16
213
184
-49
94
213
-88
-151
68
-74
-233
-14
-33
-293
-143
26
-233
-257
26
-124
-328
-82
-94
-171
609
1344
1175
748
305
-196
-441
-290
-306
-592
-368
-32
-183
-179
93
-31
-209
43
67
-191
-56
120
-99
-97
160
21
-145
97
126
-126
23
206
-37
-51
210
103
-57
166
239
15
152
395
171
160
484
384
248
544
642
469
646
870
695
689
959
868
682
878
891
560
571
689
368
190
361
198
-53
101
89
-213
-155
17
-184
-252
-29
-109
-311
-110
-34
-312
-219
4
-220
-271
-1
-121
-317
-65
-8
-297
-168
52
-187
-226
48
-59
-250
-26
30
-230
-130
63
-157
-223
34
-59
-243
-1
81
-179
-92
102
-120
-179
68
-44
-250
-31
37
-211
-128
53
-152
-225
25
-74
-283
-44
1
-267
-158
12
-213
-253
0
-101
-305
-113
-35
-286
-193
27
-205
-278
-19
-114
-301
-93
-38
-278
-187
4
-190
-244
34
22
-130
87
167
-104
-35
196
35
-40
201
144
-56
125
201
-65
-39
120
-121
-244
-8
-79
-326
-133
-15
-281
-194
29
-198
-268
-27
-117
-363
-166
298
701
1193
1345
604
-61
14
-148
-497
-339
-213
-355
-175
79
-127
-218
43
-14
-234
-32
77
-195
-134
90
-113
-195
68
-5
-233
-14
101
-173
-84
180
-29
-115
166
125
-56
154
270
36
128
414
253
169
486
488
322
581
732
522
639
898
721
643
914
847
608
767
779
426
402
539
267
66
211
96
-145
12
84
-197
-168
37
-174
-301
-48
-82
-317
-149
-23
-278
-243
-5
-176
-290
-39
-83
-305
-134
-37
-269
-224
-15
-200
-318
-54
-88
-332
-145
-25
-315
-255
3
-226
-345
-69
-120
-343
-155
-54
-307
-244
-29
-236
-349
-93
-144
-361
-170
-67
-330
-299
-61
-229
-340
-96
-141
-368
-199
-86
-319
-276
-60
-219
-328
-87
-121
-338
-160
-68
-321
-246
-19
-206
-296
-35
-100
-338
-144
-22
-278
-257
-22
-184
-327
-58
-55
-268
-15
170
-82
-71
139
-38
-147
151
143
-110
61
161
-135
-80
161
-80
-271
-51
-76
-327
-201
-93
-340
-316
-76
-245
-386
-124
-122
-373
-247
-164
-347
144
1035
1192
859
469
-32
-394
-342
-287
-565
-491
-106
-168
-270
-9
-22
-250
-90
50
-188
-172
95
-15
-166
40
104
-93
38
213
-40
-34
226
61
-62
188
203
-15
147
322
80
101
381
254
137
423
464
254
449
678
502
530
823
725
605
877
908
662
794
907
584
517
683
428
169
312
227
-88
7
109
-178
-219
18
-142
-342
-95
-83
-373
-241
-57
-304
-328
-50
-177
-351
-105
-92
-343
-200
-46
-274
-265
-2
-157
-307
-44
-81
-336
-171
-12
-265
-258
26
-150
-320
-49
-36
-301
-174
15
-251
-294
13
-131
-348
-96
-52
-303
-193
-8
-205
-238
-3
-138
-294
-59
-53
-303
-151
16
-251
-275
-3
-134
-328
-77
-36
-300
-167
-9
-250
-264
-19
-144
-318
-79
-53
-317
-162
24
-207
-229
24
-102
-293
-54
-11
-268
-136
57
-157
-181
106
48
-106
152
216
-82
11
235
45
-8
210
84
-97
142
155
-140
-16
130
-149
-167
103
-62
-269
-34
5
-244
-138
1
-222
-229
15
-91
-305
16
602
1012
1380
1291
371
-209
-74
-277
-524
-313
-246
-357
-122
64
-181
-189
81
-32
-175
61
73
-163
-33
134
-83
-121
119
25
-150
77
151
-101
-1
205
9
-41
239
181
1
237
302
64
183
418
277
260
540
504
389
670
784
582
737
986
790
749
1044
922
644
801
799
425
426
573
254
100
323
160
-97
95
96
-185
-95
89
-137
-213
47
-58
-263
-33
28
-260
-168
46
-184
-220
65
-53
-243
-11
55
-208
-124
110
-71
-146
79
-30
-233
-21
38
-233
-128
89
-157
-251
3
-72
-259
-44
29
-223
-134
53
-190
-274
-2
-93
-303
-98
-36
-297
-211
9
-195
-290
-41
-110
-311
-102
-47
-305
-198
-15
-222
-281
-38
-98
-293
-102
-2
-234
-169
43
-162
-227
22
-85
-268
-57
21
-197
-87
157
-9
-92
146
63
-147
62
193
-51
-38
190
-13
-148
132
47
-225
-77
-35
-297
-233
-26
-252
-346
-82
-176
-364
-169
-99
-305
-248
-59
-297
-340
416
1007
1056
1037
495
-292
-398
-292
-526
-630
-370
-296
-386
-145
-22
-274
-211
-2
-194
-255
8
-79
-292
-67
35
-231
-153
90
-105
-190
54
-10
-195
11
121
-126
-62
196
29
-48
228
188
-3
218
381
190
283
536
397
363
690
692
490
720
871
638
712
928
692
504
675
523
205
315
325
-1
-19
157
-90
-247
-4
-95
-342
-152
-39
-305
-288
-49
-227
-348
-64
-122
-374
-148
-41
-307
-247
-27
-183
-299
-49
-78
-322
-120
13
-230
-172
45
-163
-280
-17
-61
-294
-123
3
-232
-207
22
-150
-288
-38
-71
-319
-153
-38
-277
-216
-10
-224
-317
-60
-116
-334
-160
-46
-295
-234
17
-186
-324
-56
-101
-345
-146
-23
-284
-247
13
-182
-332
-41
-82
-323
-121
7
-233
-225
-10
-164
-286
-24
-43
-253
-19
155
-79
-64
150
-20
-132
169
184
-74
70
197
-62
-36
180
-30
-201
-1
-32
-254
-125
-5
-215
-180
61
-102
-233
27
16
-237
-97
-34
-196
417
1300
1312
872
462
7
-314
-242
-200
-484
-400
-10
-72
-192
62
47
-189
-16
119
-139
-132
138
-14
-182
79
86
-168
-17
131
-92
-69
156
14
-95
162
148
-75
119
280
41
84
370
259
121
387
457
272
477
662
484
554
829
720
603
875
890
654
779
891
587
487
655
393
123
298
208
-118
-13
82
-206
-223
-9
-202
-351
-93
-113
-370
-230
-76
-295
-306
-58
-191
-387
-146
-98
-336
-197
-39
-268
-268
-27
-164
-309
-76
-87
-333
-162
5
-240
-266
-28
-195
-370
-101
-90
-355
-232
-83
-311
-328
-92
-234
-397
-156
-150
-398
-264
-88
-310
-333
-86
-243
-396
-134
-127
-369
-224
-74
-310
-307
-55
-194
-358
-101
-67
-320
-165
-1
-245
-254
-2
-140
-320
-74
-53
-317
-190
-38
-267
-292
-60
-183
-356
-113
-54
-290
-160
52
-120
-106
174
22
-178
82
181
-18
68
223
9
-71
169
60
-162
26
4
-296
-151
33
-233
-267
-13
-139
-282
-50
-15
-261
-160
28
-260
-375
131
682
1028
1322
961
35
-155
-48
-432
-530
-250
-258
-322
-51
-8
-277
-161
21
-224
-262
1
-116
-294
-50
9
-257
-139
63
-159
-190
77
-9
-204
24
117
-142
-35
186
-2
-57
208
144
-15
251
328
111
301
565
379
378
701
637
516
807
898
678
804
989
743
654
825
618
326
469
439
71
105
231
-47
-143
47
-72
-273
-86
-47
-313
-213
-38
-254
-276
-36
-172
-358
-126
-72
-312
-204
-26
-239
-263
-21
-143
-319
-85
-19
-271
-170
11
-218
-295
-40
-121
-338
-139
-82
-335
-216
-26
-266
-310
-39
-140
-317
-94
-28
-281
-205
1
-208
-276
-12
-98
-304
-86
18
-223
-160
45
-176
-268
22
-73
-310
-93
-12
-263
-171
39
-192
-276
-3
-91
-302
-72
1
-261
-156
49
-158
-235
27
-51
-261
-57
14
-221
-143
34
-185
-246
21
-74
-281
-72
4
-217
-118
60
-89
-82
193
133
-81
117
218
-23
86
318
100
-6
224
140
-57
96
79
-219
-163
24
-204
-309
-63
-155
-363
-158
-82
-338
-264
-39
-225
-381
-154
240
744
1285
1260
381
-155
-55
-367
-592
-342
-342
-429
-139
-1
-261
-194
29
-189
-286
-14
-65
-288
-70
34
-255
-150
110
-94
-195
74
51
-156
54
174
-78
2
250
74
-9
251
215
45
255
392
208
312
576
420
359
692
670
477
768
919
660
748
992
785
637
841
732
413
523
533
165
152
295
37
-107
113
27
-213
-32
34
-214
-158
36
-153
-269
-5
-45
-269
-56
28
-250
-166
49
-166
-260
23
-23
-278
-110
36
-200
-182
77
-79
-226
24
-15
-283
-77
76
-213
-171
59
-134
-232
39
-30
-305
-117
18
-235
-229
-8
-171
-300
-53
-102
-329
-152
-51
-283
-248
-35
-210
-323
-62
-103
-329
-153
-41
-295
-273
-18
-176
-338
-95
-103
-338
-156
-29
-296
-256
-5
-196
-335
-69
-96
-320
-149
-11
-244
-218
48
-74
-156
130
119
-162
-15
164
-47
-12
226
61
-121
95
120
-118
-16
74
-223
-243
0
-160
-310
-55
-58
-312
-150
0
-227
-225
-1
-161
-362
7
547
939
1317
1159
226
-252
-124
-390
-593
-346
-303
-429
-156
77
-149
-137
132
-20
-168
89
73
-172
16
160
-94
-57
175
27
-67
184
161
-77
101
256
34
55
293
178
70
330
357
136
301
497
316
346
631
562
466
759
805
595
757
946
774
764
984
832
651
825
742
404
438
511
189
71
228
24
-166
36
-5
-253
-112
2
-253
-256
-30
-179
-330
-86
-76
-307
-159
-14
-232
-237
20
-106
-256
29
45
-219
-48
146
-89
-116
145
7
-198
47
86
-181
-63
104
-150
-169
73
-85
-239
0
-12
-298
-158
6
-272
-307
-44
-176
-361
-119
-92
-356
-213
-66
-315
-304
-61
-224
-406
-157
-111
-374
-236
-66
-323
-346
-95
-217
-410
-184
-136
-396
-257
-70
-314
-330
-76
-166
-271
-12
56
-210
-107
83
-154
-142
156
31
-160
49
72
-181
-81
54
-226
-291
-64
-203
-394
-185
-137
-381
-272
-104
-339
-359
-101
-236
-426
-255
-66
311
1014
1319
706
-32
-169
-368
-629
-455
-436
-607
-345
-64
-232
-256
-6
-105
-312
-112
-44
-293
-186
10
-207
-243
11
-90
-274
-37
32
-240
-109
106
-126
-163
90
6
-139
91
168
-47
80
329
157
143
461
429
287
568
689
475
649
899
704
651
910
827
608
771
760
396
393
516
178
6
203
25
-238
-62
-30
-301
-236
-46
-257
-339
-107
-202
-379
-163
-114
-373
-271
-64
-280
-345
-75
-152
-368
-147
-50
-321
-226
-13
-236
-290
-48
-148
-344
-145
-77
-326
-226
-25
-260
-346
-81
-151
-366
-158
-90
-342
-215
-43
-269
-324
-76
-130
-330
-125
-51
-335
-245
-6
-210
-319
-63
-121
-335
-125
-45
-303
-195
28
-218
-323
-36
-107
-319
-119
-33
-275
-219
15
-188
-283
5
-72
-290
-55
91
-112
-11
180
-65
-149
121
83
-96
63
145
-90
-61
151
-50
-190
8
-110
-332
-149
-93
-358
-302
-93
-276
-356
-114
-193
-393
-213
-134
-422
-343
341
827
1062
1168
481
-286
-205
-194
-579
-524
-223
-312
-322
-32
-94
-313
-116
-19
-270
-207
15
-154
-243
17
-29
-255
-45
69
-192
-110
124
-71
-166
78
64
-120
64
187
-41
34
284
124
44
340
338
161
419
599
394
481
773
663
609
932
913
684
890
999
694
683
842
549
331
496
359
47
160
195
-109
-79
119
-90
-233
12
-5
-271
-143
-3
-237
-227
10
-137
-258
-4
-31
-251
-88
37
-191
-201
14
-130
-241
33
19
-225
-80
42
-159
-135
64
-98
-259
-30
-49
-310
-134
-12
-284
-239
1
-185
-285
-38
-91
-315
-160
-9
-267
-263
-1
-189
-320
-52
-95
-326
-120
-5
-248
-211
19
-135
-287
-50
-53
-277
-137
5
-231
-251
-3
-146
-299
-42
-46
-280
-121
-7
-263
-260
-13
-141
-281
-19
-22
-226
29
197
-58
-42
172
-3
-101
199
195
-67
54
192
-67
-71
158
-69
-267
-36
-42
-295
-159
-14
-280
-278
-18
-186
-350
-79
-41
-297
-207
-92
-65
595
1365
1255
662
262
-18
-333
-340
-246
-451
-360
34
-46
-219
24
58
-178
-65
70
-175
-180
112
-9
-210
39
84
-165
-31
120
-94
-89
148
34
-116
126
178
-54
99
309
106
128
405
291
199
483
512
330
535
740
556
580
879
814
667
905
975
718
797
941
640
533
677
421
163
319
278
-45
-5
131
-122
-206
4
-105
-285
-88
-63
-336
-218
11
-227
-302
-40
-175
-394
-128
-62
-368
-233
-5
-268
-321
-22
-145
-344
-106
-83
-337
-201
-14
-249
-309
-54
-163
-359
-129
-74
-373
-273
-38
-289
-356
-79
-205
-392
-154
-86
-336
-272
-89
-300
-352
-93
-197
-374
-112
-49
-324
-203
-5
-242
-306
-40
-144
-349
-98
-46
-324
-209
2
-191
-283
-31
-105
-342
-102
-29
-303
-212
-16
-198
-212
94
6
-185
50
92
-180
-43
201
-12
-91
149
29
-178
63
112
-204
-174
1
-201
-285
-52
-127
-327
-148
-77
-327
-246
-7
-206
-310
-72
-176
-27
916
1440
1121
625
156
-294
-461
-291
-392
-604
-289
-50
-221
-115
103
-116
-209
64
-16
-234
4
92
-197
-102
144
-70
-156
121
54
-165
67
181
-113
-52
187
5
-46
261
234
9
206
337
130
267
520
366
330
643
665
499
724
872
676
783
1018
824
735
962
823
516
609
607
264
216
346
98
-63
127
26
-209
-45
-3
-281
-200
30
-188
-298
-34
-100
-286
-77
-6
-262
-196
31
-170
-236
58
0
-200
17
144
-99
-57
163
-38
-141
124
48
-199
-21
95
-159
-99
124
-103
-208
44
-10
-228
-50
43
-232
-169
48
-158
-248
14
-24
-266
-93
34
-237
-183
62
-115
-226
32
-6
-256
-85
28
-241
-192
49
-140
-263
-13
-43
-272
-107
24
-240
-214
45
-151
-288
-10
-29
-214
26
200
-38
-34
195
22
-54
234
171
-55
113
214
-33
-13
199
-18
-213
16
-14
-281
-110
5
-258
-198
38
-159
-290
-52
-88
-317
-208
-124
-23
692
1367
1162
468
41
-203
-506
-434
-346
-587
-437
-76
-161
-245
-3
-45
-282
-107
30
-217
-180
102
-42
-189
57
60
-156
2
140
-107
-103
154
-3
-135
146
138
-93
99
282
59
70
333
221
142
442
474
300
524
732
543
608
910
784
679
985
986
688
812
932
576
482
659
387
133
310
228
-96
18
122
-191
-222
22
-117
-284
-50
-43
-320
-181
-8
-249
-266
-9
-142
-315
-77
-50
-283
-149
13
-199
-194
36
-122
-277
-44
-53
-281
-128
3
-250
-264
-13
-151
-325
-83
-66
-323
-205
-39
-259
-294
-47
-197
-367
-106
-103
-353
-201
-20
-251
-297
-43
-162
-345
-119
-89
-314
-194
-33
-263
-313
-53
-160
-321
-91
-74
-324
-192
-11
-243
-285
-56
-161
-323
-101
-57
-316
-211
-27
-216
-254
0
-34
-166
94
148
-117
16
248
80
32
251
151
-52
127
183
-72
-42
83
-170
-254
-6
-150
-353
-95
-59
-314
-212
-71
-272
-276
-45
-176
-426
-49
632
964
1226
1104
199
-250
-57
-295
-569
-345
-223
-348
-149
76
-148
-208
60
-48
-241
26
113
-140
-32
181
-61
-138
153
34
-169
90
143
-92
19
187
7
-22
234
175
-5
215
306
77
225
452
255
274
583
537
405
637
758
587
713
950
780
732
984
881
640
759
738
385
363
473
173
5
184
70
-172
-25
20
-241
-187
4
-200
-291
-41
-143
-371
-150
-57
-311
-252
-61
-254
-316
-46
-140
-361
-126
-32
-282
-232
-36
-221
-305
-33
-135
-333
-99
-48
-307
-236
-8
-203
-300
-52
-135
-341
-153
-53
-308
-257
-49
-246
-326
-94
-163
-374
-168
-71
-352
-292
-49
-239
-347
-79
-139
-343
-148
-43
-299
-276
-51
-233
-335
-93
-173
-446
-302
-193
-495
-491
-257
-449
-571
-317
-375
-612
-399
-281
-571
-517
-265
-463
-577
-287
-312
-480
-197
-46
-309
-280
-72
-264
-350
-51
-83
-336
-160
-55
-323
-273
-68
-303
-463
-249
-296
-515
-357
-260
-507
-448
-211
-412
-527
-234
-269
-533
-366
-300
-417
253
1101
1094
698
288
-147
-456
-426
-357
-596
-495
-108
-202
-327
-67
-87
-295
-97
39
-214
-198
30
-134
-240
18
-11
-243
-60
79
-167
-119
151
3
-140
117
126
-99
88
243
23
93
343
196
113
376
397
226
427
644
465
511
834
717
586
890
888
654
809
862
550
493
630
354
133
317
196
-118
11
91
-197
-187
23
-149
-284
-90
-118
-324
-184
-31
-275
-291
-47
-215
-340
-66
-73
-326
-187
-33
-272
-239
27
-157
-292
-8
-24
-265
-110
8
-229
-237
-22
-162
-291
-38
-39
-262
-131
-7
-235
-246
8
-130
-325
-97
-73
-312
-165
-3
-237
-275
-51
-180
-321
-65
-44
-269
-99
83
-171
-239
17
-84
-271
-29
9
-232
-103
51
-170
-205
23
-95
-248
-26
-12
-243
-118
58
-171
-210
50
-71
-239
3
33
-226
-77
108
-152
-178
87
-20
-174
108
226
-15
95
302
78
35
313
225
45
271
291
-7
112
288
-3
-94
73
-86
-209
12
-14
-300
-156
67
-173
-201
68
-78
-259
-48
-64
-291
234
1122
1298
1155
807
38
-355
-192
-225
-544
-419
-82
-203
-188
96
-51
-236
36
78
-189
-42
145
-89
-123
137
34
-144
88
136
-119
-12
185
-19
-58
218
129
-27
230
277
22
156
423
251
192
487
452
313
560
661
486
662
903
703
701
1009
909
726
957
962
623
672
794
442
271
436
258
-6
133
155
-120
-70
96
-138
-209
21
-99
-272
-53
0
-257
-151
58
-187
-243
47
-67
-263
-22
42
-218
-126
64
-157
-239
24
-37
-226
-50
0
-235
-146
58
-146
-206
41
-73
-283
-54
41
-221
-137
89
-129
-229
31
-32
-243
-55
30
-232
-174
53
-172
-279
1
-69
-287
-81
-8
-276
-184
38
-177
-268
16
-53
-282
-75
12
-242
-175
37
-158
-260
-3
-56
-284
-90
24
-252
-204
52
-127
-235
16
-74
-298
-88
-18
-271
-181
37
-145
-190
125
86
-126
73
147
-140
-19
267
36
-61
196
112
-101
86
165
-133
-124
45
-147
-237
-19
-83
-314
-122
0
-284
-239
28
-171
-265
15
-126
-162
704
1374
1152
737
285
-256
-470
-303
-384
-638
-358
-79
-244
-139
102
-106
-205
77
50
-189
-17
129
-123
-99
174
22
-139
118
137
-106
76
235
-23
2
258
97
-13
265
247
51
260
401
169
226
516
398
311
618
657
478
695
881
689
742
1004
860
723
944
867
560
650
663
296
232
366
134
-53
118
65
-173
-14
91
-203
-202
38
-151
-310
-49
-74
-346
-181
-23
-295
-293
-57
-224
-341
-83
-98
-344
-179
-28
-275
-265
-5
-155
-318
-69
-63
-315
-162
-18
-286
-262
-4
-198
-351
-72
-90
-377
-239
-73
-307
-319
-85
-255
-387
-110
-137
-386
-180
-32
-325
-325
-68
-210
-381
-139
-113
-389
-250
-87
-326
-328
-94
-232
-390
-136
-98
-351
-196
-28
-283
-280
-1
-152
-329
-67
-62
-329
-162
14
-268
-269
16
-125
-244
78
125
-146
15
166
-94
-42
234
64
-125
121
130
-130
12
131
-182
-268
-45
-167
-360
-166
-144
-387
-259
-79
-309
-337
-79
-191
-366
-188
-198
-79
760
1340
1046
464
83
-216
-464
-357
-370
-599
-345
-27
-211
-250
13
-109
-284
-16
14
-250
-104
72
-167
-200
58
-44
-215
33
74
-187
-55
152
-52
-96
169
78
-109
120
200
2
148
367
174
139
439
409
283
557
682
477
640
895
674
695
1036
882
656
900
883
538
570
643
320
180
320
108
-113
71
49
-228
-152
12
-205
-277
-41
-137
-323
-104
-50
-279
-149
45
-191
-267
6
-91
-287
-48
24
-235
-150
50
-168
-212
69
-38
-232
-3
42
-228
-126
74
-164
-251
5
-78
-281
-82
-26
-279
-168
47
-182
-259
-4
-89
-275
-61
24
-230
-169
43
-179
-255
4
-99
-289
-75
-16
-289
-200
14
-209
-270
-7
-109
-301
-84
-8
-260
-196
41
-129
-215
36
-50
-237
-8
56
-197
-97
94
-141
-225
52
-25
-259
-55
27
-211
-67
201
33
-68
156
77
-121
132
236
-41
17
219
2
-91
175
72
-228
-86
14
-241
-228
-32
-225
-349
-87
-143
-358
-146
-71
-317
-249
-105
-354
-126
841
1249
1035
761
200
-310
-337
-239
-479
-578
-200
-137
-280
-42
23
-241
-166
47
-135
-214
65
24
-204
-13
99
-156
-94
134
-61
-145
112
40
-163
69
211
-57
-19
238
78
-8
281
278
92
316
477
277
381
691
584
524
833
835
645
882
1025
766
795
991
760
578
748
593
251
352
375
23
22
206
-42
-202
34
-14
-263
-81
51
-217
-202
36
-153
-289
-7
-20
-246
-68
45
-224
-177
63
-132
-254
23
10
-241
-54
81
-176
-138
87
-93
-210
53
20
-232
-58
95
-177
-183
58
-117
-233
31
-15
-256
-76
50
-235
-204
65
-124
-238
48
17
-241
-58
85
-199
-167
83
-95
-216
49
10
-242
-57
82
-177
-166
94
-66
-211
51
30
-218
-48
91
-197
-202
85
-62
-225
45
34
-236
-95
45
-173
-155
82
-64
-210
30
35
-205
-41
141
-72
-24
294
194
62
296
259
-6
182
397
159
155
413
219
29
291
283
-27
47
154
-95
-102
114
-33
-178
49
45
-188
-29
106
-149
-162
79
-121
-173
674
1351
1312
1157
650
-51
-179
-44
-263
-446
-118
45
-140
24
203
-46
-56
204
59
-111
97
128
-69
61
224
-9
-22
258
121
-37
233
246
-11
141
334
97
78
354
258
121
383
446
229
387
596
420
462
772
691
563
854
939
727
876
1074
877
835
1069
935
681
823
772
401
399
518
211
71
280
104
-126
106
91
-213
-89
79
-154
-203
65
-55
-283
-65
-12
-267
-143
52
-201
-213
92
-47
-250
-3
47
-226
-123
106
-107
-200
68
-16
-222
-5
56
-184
-90
64
-154
-204
57
-42
-274
-40
31
-237
-118
71
-163
-220
44
-76
-275
-16
44
-236
-143
51
-166
-240
15
-63
-252
-38
-1
-261
-165
46
-134
-221
25
-52
-253
-23
47
-235
-157
49
-167
-217
42
-74
-258
-64
-39
-285
-188
38
-188
-294
9
-89
-331
-84
-7
-274
-176
41
-170
-231
75
45
-122
101
159
-138
-20
262
56
-56
199
132
-106
82
174
-115
-107
74
-162
-266
6
-105
-331
-114
-36
-284
-214
0
-182
-278
-16
-132
-360
292
1094
1189
1067
663
-115
-407
-230
-344
-593
-401
-176
-306
-185
88
-86
-213
42
18
-194
-11
93
-152
-89
137
-40
-123
146
64
-162
60
170
-86
-39
233
70
-50
237
208
-16
192
344
117
200
468
306
253
566
582
411
634
824
637
713
977
836
745
979
899
618
702
733
402
320
452
185
-9
186
64
-219
-46
33
-252
-202
22
-171
-307
-58
-90
-319
-121
-14
-280
-242
-6
-173
-296
-26
-40
-282
-107
30
-232
-190
53
-129
-228
36
-12
-234
-66
49
-204
-200
32
-154
-298
-35
-69
-311
-136
-21
-279
-253
-25
-201
-323
-66
-92
-319
-177
-60
-285
-256
-37
-226
-362
-97
-98
-335
-169
-30
-290
-275
-40
-218
-345
-86
-107
-360
-192
-54
-317
-291
-44
-201
-338
-83
-103
-356
-179
-49
-310
-283
-23
-168
-289
31
71
-185
-26
121
-149
-135
179
39
-142
93
87
-157
-18
119
-148
-212
-20
-180
-339
-69
-80
-377
-220
-36
-277
-309
-64
-223
-396
-117
-166
-461
93
935
1044
961
668
-96
-417
-247
-357
-641
-487
-198
-305
-288
-28
-146
-302
-53
-26
-282
-153
41
-175
-188
71
-57
-204
37
46
-210
-46
151
-112
-113
182
52
-115
139
194
-37
127
309
98
144
424
329
222
513
615
425
596
838
646
657
962
848
672
916
921
597
657
738
385
253
397
180
-53
103
72
-207
-115
48
-223
-294
-30
-143
-324
-97
-53
-286
-162
-21
-247
-262
-32
-154
-316
-96
-57
-286
-173
15
-220
-284
-9
-117
-309
-80
-30
-281
-189
8
-210
-265
4
-119
-334
-94
-26
-299
-171
31
-220
-272
-8
-122
-302
-78
-40
-287
-193
-19
-241
-308
-65
-151
-349
-130
-46
-316
-226
-19
-234
-302
-29
-101
-325
-115
-49
-319
-206
-7
-218
-274
-48
-131
-317
-109
-22
-271
-178
20
-211
-275
-11
-116
-312
-70
20
-214
-115
95
-108
-188
93
35
-138
142
229
-38
47
232
44
10
248
160
-15
167
215
-51
20
214
-72
-216
41
-36
-278
-120
-31
-278
-240
-37
-191
-257
-13
-70
-304
-149
-49
73
838
1450
1180
561
213
-36
-344
-292
-235
-457
-288
41
-116
-220
51
-3
-215
5
102
-140
-74
147
-30
-128
141
83
-152
65
172
-77
15
234
37
-52
213
172
-19
217
347
117
193
432
275
212
528
541
360
606
772
553
662
958
800
700
979
941
713
879
924
576
528
659
372
155
327
209
-106
26
100
-181
-134
78
-107
-229
-20
-58
-283
-127
-10
-274
-241
-26
-217
-303
-49
-103
-318
-141
-37
-288
-239
1
-166
-294
-62
-67
-298
-162
-29
-272
-238
9
-173
-306
-44
-90
-327
-131
-29
-310
-280
-34
-208
-336
-82
-125
-353
-186
-90
-312
-281
-69
-220
-349
-86
-101
-360
-194
-54
-309
-274
0
-166
-334
-80
-97
-351
-179
-27
-299
-288
-26
-201
-357
-112
-108
-335
-167
-33
-290
-286
-40
-194
-348
-87
-92
-329
-176
-41
-272
-271
-38
-197
-335
-45
-47
-312
-139
21
-166
-71
173
3
-146
86
83
-114
84
205
-41
-56
144
10
-125
79
-3
-314
-184
-8
-270
-318
-48
-179
-380
-142
-104
-352
-186
-8
-290
-346
-122
-41
438
1238
1363
735
193
12
-313
-445
-247
-395
-467
-97
8
-220
-101
63
-170
-178
52
-107
-239
29
55
-196
-60
122
-89
-80
154
12
-140
86
111
-116
29
199
-22
-22
245
155
26
287
357
144
317
535
353
393
688
636
541
812
892
690
840
1043
833
786
987
788
509
644
591
238
261
351
39
-29
208
52
-179
13
43
-229
-112
72
-164
-199
50
-69
-251
-22
25
-242
-140
45
-175
-218
44
-83
-292
-41
13
-253
-160
16
-199
-230
38
-101
-310
-88
-41
-298
-185
15
-217
-287
-33
-119
-314
-102
-41
-299
-182
8
-219
-267
-14
-131
-326
-80
-25
-279
-179
-2
-220
-279
-6
-82
-295
-89
1
-248
-169
40
-202
-309
-47
-126
-321
-107
-49
-288
-172
28
-194
-245
33
-44
-223
38
135
-150
-74
135
-96
-178
68
-28
-202
33
151
-47
57
264
56
-15
253
212
27
231
312
40
108
299
103
29
218
77
-179
22
132
-153
-87
145
-79
-192
75
2
-226
0
95
-189
-158
281
748
1217
1567
1123
204
-9
1
-367
-356
-113
-234
-220
109
100
-81
108
188
-70
-7
219
27
-96
180
172
-81
88
205
-58
-3
236
72
-13
236
174
-22
192
313
86
154
394
220
147
473
443
219
458
618
427
556
842
711
650
947
947
733
916
1035
784
776
898
625
420
574
450
118
194
240
-54
-42
131
-96
-226
10
-52
-286
-130
-19
-254
-237
-15
-183
-311
-49
-63
-297
-111
28
-228
-196
58
-101
-229
13
-25
-260
-92
43
-214
-219
28
-149
-304
-29
-63
-311
-115
-12
-294
-251
-19
-216
-334
-77
-142
-375
-182
-68
-327
-292
-36
-206
-340
-78
-92
-341
-191
-35
-272
-248
-9
-208
-348
-76
-107
-367
-189
-23
-296
-285
-4
-176
-358
-105
-78
-353
-204
-15
-274
-280
-41
-194
-336
-100
-88
-321
-153
59
-114
-105
119
-32
-202
50
107
-118
20
165
-86
-91
140
-25
-227
-47
-65
-324
-187
-52
-318
-322
-83
-253
-410
-139
-140
-395
-245
-89
-391
-443
231
798
983
1158
648
-237
-278
-170
-537
-602
-327
-328
-361
-76
-42
-276
-115
50
-223
-223
49
-104
-252
14
43
-229
-93
127
-99
-133
128
14
-143
100
143
-93
34
236
16
3
295
166
42
351
390
171
380
618
422
444
752
693
574
842
942
705
795
996
760
633
792
597
299
419
358
15
78
196
-79
-144
66
-88
-262
-48
-27
-269
-170
18
-200
-270
-11
-110
-317
-95
-28
-269
-157
43
-154
-249
-14
-85
-306
-75
9
-267
-160
29
-202
-237
12
-99
-302
-90
-8
-269
-170
31
-192
-263
-15
-112
-318
-71
4
-265
-141
49
-195
-255
-6
-96
-283
-66
-8
-266
-162
34
-173
-249
19
-40
-271
-62
49
-222
-171
41
-167
-238
17
-66
-258
-47
14
-241
-134
70
-132
-212
28
-17
-241
-61
58
-174
-102
101
-82
-140
174
158
-53
139
209
-47
42
290
131
24
248
181
-43
143
235
-71
-75
111
-130
-223
40
-63
-274
-68
3
-267
-195
38
-156
-260
-6
-119
-355
245
1055
1191
1143
827
57
-230
-67
-235
-494
-284
-40
-195
-111
149
-50
-175
102
54
-191
16
157
-102
-73
166
-11
-123
133
99
-121
80
223
-37
16
250
68
-17
250
232
28
230
412
191
248
530
384
317
628
618
437
683
873
674
739
1010
855
744
1002
932
630
719
750
387
309
462
189
-17
177
85
-182
-10
98
-201
-187
44
-166
-301
-38
-61
-290
-130
-9
-232
-194
19
-160
-305
-52
-79
-315
-130
-11
-278
-252
-10
-174
-300
-47
-67
-315
-144
1
-267
-231
21
-181
-337
-78
-66
-321
-176
-17
-284
-268
-17
-199
-336
-89
-114
-353
-198
-49
-292
-292
-32
-194
-365
-102
-83
-341
-190
-1
-250
-262
-10
-177
-335
-60
-45
-313
-170
-17
-256
-235
12
-163
-324
-71
-70
-320
-162
-19
-263
-249
-10
-148
-297
-65
-61
-313
-161
-8
-253
-247
5
-144
-285
1
14
-230
-17
206
-14
-11
220
51
-87
219
249
-38
104
247
-28
-25
218
10
-233
-38
-39
-284
-153
-14
-251
-273
-18
-126
-331
-98
-40
-320
-189
-60
-287
191
1139
1296
928
537
57
-320
-333
-237
-464
-492
-119
-110
-259
-22
38
-215
-108
86
-121
-165
77
-33
-191
45
71
-170
-47
143
-54
-72
211
76
-112
161
200
-42
88
282
85
58
357
283
109
384
519
321
437
684
551
557
878
812
647
935
1033
773
856
1005
723
583
725
542
242
346
324
-34
24
185
-103
-196
37
-84
-269
-67
-50
-296
-206
-33
-222
-260
-13
-116
-284
-67
-34
-294
-233
-45
-197
-228
6
-99
-295
-63
5
-266
-169
50
-150
-224
44
-46
-279
-75
-2
-257
-173
38
-179
-287
-35
-107
-302
-82
-13
-284
-200
2
-220
-287
-13
-87
-284
-69
4
-251
-176
30
-156
-229
25
-60
-264
-54
9
-274
-180
59
-178
-264
14
-85
-317
-97
10
-258
-185
48
-147
-254
-10
-75
-285
-81
-2
-243
-159
51
-171
-255
37
12
-126
120
201
-77
-26
193
36
-22
252
192
-61
90
177
-52
-11
125
-122
-235
3
-60
-287
-120
-32
-266
-209
-16
-229
-312
-36
-125
-357
-186
118
522
1138
1457
845
6
-87
-218
-531
-378
-308
-481
-274
19
-148
-220
63
29
-197
-10
89
-145
-76
136
-36
-150
109
89
-149
32
179
-58
-19
223
68
-37
226
198
-30
177
331
99
171
444
298
234
540
538
350
588
771
566
653
952
830
712
978
963
691
814
885
548
480
601
315
107
292
202
-105
11
103
-191
-178
67
-130
-291
-52
-69
-292
-133
-16
-240
-209
16
-149
-286
-23
-22
-259
-88
79
-181
-189
77
-66
-224
1
-2
-241
-106
37
-222
-242
6
-138
-303
-73
-75
-322
-178
-31
-271
-244
8
-189
-360
-95
-86
-341
-190
-37
-283
-268
-26
-204
-362
-97
-83
-347
-189
-27
-303
-300
-36
-187
-360
-121
-113
-383
-224
-43
-306
-310
-49
-203
-360
-116
-126
-349
-189
-65
-290
-273
1
-107
-226
63
79
-187
-60
112
-99
-86
161
7
-157
61
69
-183
-56
89
-214
-298
-48
-170
-371
-133
-129
-409
-245
-65
-321
-344
-65
-197
-389
-207
-168
41
873
1348
962
361
12
-267
-489
-359
-397
-618
-346
-63
-252
-259
-16
-157
-308
-54
-49
-294
-114
71
-188
-201
73
-63
-238
1
61
-184
-82
132
-77
-122
168
89
-90
154
230
11
169
400
211
196
499
431
313
612
685
485
656
893
720
705
983
877
675
851
830
491
515
612
263
111
291
118
-156
1
42
-231
-139
56
-191
-268
-19
-132
-304
-64
-34
-278
-146
37
-192
-265
-4
-80
-272
-66
-9
-239
-121
54
-171
-225
24
-88
-289
-61
-32
-294
-179
30
-187
-288
-22
-109
-327
-95
-25
-288
-214
-13
-190
-279
-39
-123
-358
-130
-48
-328
-241
-32
-246
-322
-52
-153
-374
-133
-73
-350
-246
-58
-275
-341
-97
-165
-369
-176
-78
-345
-289
-68
-270
-355
-92
-173
-386
-170
-91
-331
-268
-75
-236
-342
-115
-147
-343
-155
-86
-339
-266
-43
-211
-290
12
14
-171
49
119
-170
-111
151
17
-113
123
72
-177
16
121
-172
-162
24
-197
-292
-52
-139
-347
-158
-74
-314
-243
-25
-228
-336
-70
-119
-407
-82
647
989
1204
1106
212
-287
-89
-269
-567
-398
-214
-302
-185
16
-149
-228
27
1
-233
-38
97
-144
-94
146
-13
-144
106
92
-152
20
163
-102
-53
207
33
-86
181
156
-62
173
318
72
164
440
284
233
551
538
364
632
816
609
715
993
820
722
1005
931
665
799
816
456
374
514
234
1
192
109
-173
-36
58
-207
-182
20
-180
-295
-40
-78
-324
-139
9
-280
-264
-4
-190
-304
-32
-80
-322
-140
18
-224
-221
19
-130
-250
-24
-56
-301
-144
17
-248
-249
5
-161
-311
-58
-61
-321
-169
-12
-266
-266
-19
-170
-321
-101
-122
-354
-195
-30
-258
-255
-23
-168
-296
-63
-70
-317
-191
-15
-245
-257
-17
-191
-344
-71
-67
-342
-190
-1
-258
-289
-20
-166
-333
-80
-65
-311
-181
-19
-240
-259
-13
-125
-302
-91
-45
-263
-153
-19
-241
-244
15
-133
-306
-45
-21
-270
-118
79
-124
-81
229
99
-98
139
152
-97
91
256
16
11
218
45
-112
120
88
