-4
-36
0
0
0
0
0
0
0
0
0
0
0
0
0
0
0
0
0
0
0
0
0
0
0
0
0
0
0
0
0
0
0
0
0
0
0
0
0
0
0
0
0
0
0
0
0
0
0
0
0
0
0
0
0
0
0
0
0
0
0
0
0
0
0
0
0
0
0
0
0
0
0
0
0
0
0
0
0
0
0
0
0
0
0
0
0
0
0
0
0
0
0
0
0
0
0
0
0
0
0
0
0
0
0
0
0
0
0
0
0
0
0
0
0
0
0
0
0
0
0
0
0
0
0
0
0
0
0
0
0
0
0
0
0
0
0
0
0
0
0
0
0
0
0
0
0
0
0
0
0
0
0
0
0
0
0
0
0
0
0
0
0
0
0
0
0
0
0
0
0
0
0
0
0
0
0
0
0
0
0
0
0
0
0
0
0
0
0
0
0
0
0
0
0
0
0
0
0
0
0
0
-405
-194
26
-237
-172
4
-237
-238
2
-58
-242
-77
-34
-221
-106
-26
-199
-184
-32
-186
-359
-88
-10
-319
-239
-24
-201
-314
10
-1
-247
19
139
-82
-21
138
56
29
175
105
-42
141
182
-59
30
184
-39
-155
-39
-138
-310
-74
29
-340
-184
72
-333
-357
-50
-174
-376
-185
420
1095
1587
1736
1027
299
207
-34
-308
-294
-264
-375
-139
90
-246
-219
67
-133
-308
-111
-4
-148
-105
51
-45
-170
-29
-25
-174
-2
101
-86
-13
134
-161
-186
164
43
-123
153
195
2
180
391
158
127
497
380
182
585
746
415
531
804
629
670
902
763
600
799
817
448
467
579
258
196
343
108
-115
54
20
-268
-213
-28
-116
-322
-165
-151
-419
-222
-136
-369
-204
-43
-235
-228
-53
-171
-253
-60
-68
-227
-158
-56
-187
-196
-43
-168
-314
-68
-7
-315
-226
1
-289
-345
-64
-212
-387
-235
-193
-400
-331
-151
-348
-379
-149
-231
-313
-134
-203
-448
-264
2
-226
-350
-119
-177
-344
-178
-94
-268
-239
-185
-399
-343
-134
-261
-410
-246
-194
-393
-292
-184
-301
-267
-198
-302
-357
-114
-152
-444
-251
-52
-279
-298
-51
-178
-353
-77
-82
-425
-235
-47
-322
-308
-90
-215
-294
9
64
-179
-22
36
-220
-148
182
133
-185
2
69
-226
-100
52
-107
-276
-202
-278
-440
-157
-177
-468
-315
-151
-370
-413
-178
-365
-526
-299
-138
377
1209
1570
1220
470
78
-160
-433
-305
-405
-618
-324
-79
-288
-366
-158
-245
-398
-170
24
-298
-374
-115
-296
-346
-14
-100
-332
-84
-6
-258
-105
89
-127
-85
98
-76
-136
154
142
-61
143
298
158
173
401
326
158
466
620
377
485
701
539
587
848
716
619
876
741
428
579
582
245
272
404
58
-136
83
65
-205
-198
-103
-221
-232
-91
-190
-361
-64
-38
-485
-300
-53
-343
-277
-17
-231
-378
-125
-80
-308
-183
30
-175
-238
-46
-201
-343
-89
-77
-312
-138
-40
-272
-256
-150
-287
-430
-152
-85
-468
-352
-112
-346
-351
-105
-246
-348
-134
-183
-325
-147
-89
-273
-229
-100
-279
-395
-130
-112
-385
-267
-140
-369
-396
-186
-311
-447
-205
-183
-447
-321
-77
-352
-398
-78
-232
-412
-147
-137
-377
-232
-102
-318
-292
-49
-113
-291
-192
-168
-353
-206
-21
-271
-333
-73
-208
-358
-95
-105
-324
-158
-77
-280
-156
-29
-204
-178
120
167
-78
67
216
-56
-50
200
113
-34
138
135
-75
35
143
-61
-55
16
-260
-288
-27
-117
-366
-211
-68
-293
-293
-53
-198
-251
-45
-313
-353
642
1535
1502
1253
836
159
-159
-90
-265
-547
-305
-73
-238
-149
82
-118
-278
-91
-92
-259
-80
33
-306
-252
79
-112
-208
118
51
-222
-16
96
-157
-124
127
38
-72
166
202
-33
116
302
98
164
451
346
318
512
486
426
582
782
688
602
791
721
663
983
940
651
782
790
432
404
569
389
116
145
123
-112
-23
79
-148
-180
-9
-169
-275
30
-72
-371
-143
6
-223
-210
-4
-138
-201
125
69
-264
-79
92
-141
-69
161
-40
-176
66
27
-231
-53
65
-166
-149
52
-110
-237
116
-8
-417
-200
-96
-343
-226
9
-186
-282
-26
-61
-236
-63
13
-230
-163
89
-98
-66
162
-150
-310
-85
-8
-206
-183
51
-188
-372
52
42
-425
-217
-26
-287
-197
8
-214
-342
-38
-67
-389
-167
-1
-307
-269
-33
-225
-318
-26
-107
-370
-195
-85
-311
-278
-40
-186
-289
-84
-206
-353
-152
-103
-312
-241
120
-47
-194
157
75
-220
31
200
-137
-17
302
-4
-135
105
48
-35
47
12
-196
-198
42
-175
-299
1
-159
-362
-101
-45
-304
-207
-36
-254
-387
-111
477
1105
1680
1659
782
265
202
-235
-451
-246
-296
-379
-75
19
-240
-174
-1
-145
-153
-36
-118
-105
-63
-140
-250
-174
55
-84
-180
92
23
-187
18
120
-120
-90
150
96
66
254
72
-151
167
300
91
179
399
286
244
538
509
308
622
731
465
663
867
623
527
775
690
399
491
564
269
187
298
9
-98
108
-8
-276
-88
11
-356
-278
-25
-256
-310
-61
-207
-424
-91
63
-348
-335
-48
-203
-297
-54
-60
-272
-99
36
-201
-190
28
-78
-259
-107
-84
-229
-98
-105
-272
-204
-136
-276
-314
-139
-224
-421
-149
-27
-394
-318
-83
-256
-246
-113
-157
-278
-231
-133
-295
-220
-34
-203
-299
-140
-161
-332
-161
-77
-359
-306
-91
-266
-324
-68
-96
-419
-298
-137
-446
-344
-87
-289
-347
-138
-192
-346
-184
-97
-292
-252
-30
-177
-278
3
-181
-423
-85
-85
-377
-211
-2
-274
-387
-89
-140
-330
-69
79
-29
93
101
-190
-180
118
104
-59
91
124
-140
-50
172
-60
-162
54
-100
-276
-77
-98
-342
-224
-48
-247
-282
-68
-158
-315
-154
-97
-369
79
1119
1377
1349
1179
318
-211
-85
-188
-461
-391
-204
-294
-300
-37
-121
-296
-37
-33
-323
-177
16
-185
-192
26
-100
-206
66
89
-168
-94
147
62
-116
45
44
-77
162
175
-36
129
290
107
122
386
315
171
505
649
335
451
753
613
554
823
810
646
864
956
733
726
791
530
413
574
387
170
253
159
-75
30
142
-150
-236
33
-35
-247
-106
-98
-267
-99
-8
-295
-315
-47
-163
-352
-39
25
-324
-207
18
-167
-183
51
-61
-247
-62
-42
-273
-188
-47
-275
-274
20
-154
-347
-108
-61
-310
-190
22
-279
-268
72
-157
-348
-65
-10
-280
-143
77
-217
-247
-4
-105
-242
-73
22
-208
-191
-23
-242
-267
-25
-157
-290
-99
-61
-270
-213
-27
-215
-294
83
24
-309
-78
-5
-236
-65
99
-183
-219
53
-69
-244
-26
40
-208
-141
101
-124
-256
131
33
-348
-100
9
-260
-71
135
-160
-188
138
101
-84
112
261
75
117
265
28
69
415
198
53
355
233
-79
103
262
25
-74
77
-89
-300
-7
77
-204
-73
105
-142
-166
130
5
-239
-48
-18
280
1246
1791
1627
967
442
171
-154
-128
-196
-389
-164
106
-8
-130
60
-10
-206
48
134
-153
-5
213
-124
-168
133
6
-77
141
119
-78
66
253
-2
-30
260
119
41
385
318
0
186
434
216
213
540
441
314
607
705
535
688
896
706
759
1086
924
803
1048
957
686
823
844
433
347
536
378
90
175
180
-91
35
190
-59
-129
-32
-132
-203
29
81
-269
-204
32
-219
-273
-7
-140
-231
36
-30
-262
-106
55
-163
-193
58
-77
-245
-7
-3
-264
-117
39
-208
-157
62
-133
-323
-123
-126
-380
-166
-74
-376
-295
-10
-121
-299
-86
-49
-277
-90
26
-230
-99
105
-153
-319
-75
-96
-338
-156
-39
-242
-223
-20
-170
-324
-69
-72
-329
-112
61
-244
-238
42
-148
-256
-28
-94
-221
-90
-17
-198
-178
38
-102
-222
12
-51
-275
-43
22
-260
-126
81
-188
-361
-86
-1
-310
-237
-18
-248
-244
19
-86
-218
7
58
-131
96
336
82
34
205
52
40
268
152
-25
165
221
-122
-119
175
-32
-187
109
20
-294
-111
70
-188
-252
19
12
-182
-154
-95
-244
-234
-106
179
958
1660
1562
874
417
139
-228
-221
-151
-440
-347
64
-32
-166
30
-27
-128
10
-4
-179
-132
112
-39
-177
114
101
-143
44
326
61
-105
120
85
42
162
60
-105
118
256
47
149
408
293
198
434
481
357
494
761
735
569
771
746
665
989
946
770
917
934
705
692
814
571
305
505
521
58
118
355
-62
-199
105
33
-214
-62
-46
-309
-116
34
-276
-201
73
-235
-352
-26
-67
-284
-128
9
-188
-148
30
-167
-247
22
-26
-248
-43
65
-218
-233
-27
-82
-258
-96
55
-212
-207
-77
-324
-309
-31
-116
-323
-216
-172
-250
-137
-136
-321
-241
-25
-137
-217
-61
-105
-294
-124
33
-266
-305
-53
-204
-330
-80
-138
-329
-87
-119
-440
-280
-11
-231
-416
-175
-168
-360
-170
-104
-355
-248
-13
-208
-269
-64
-114
-297
-237
-54
-251
-326
-82
-240
-347
-68
-81
-324
-236
42
-178
-342
-26
-154
-256
121
97
-157
35
151
-121
-63
266
50
-85
275
88
-193
97
142
-166
-106
28
-219
-259
-39
-158
-351
-107
-37
-348
-292
-56
-194
-284
-25
-101
-35
951
1659
1464
1100
743
44
-353
-142
-288
-504
-254
-79
-176
-138
32
-88
-243
-51
-34
-251
-107
50
-160
-211
-27
-118
-189
39
-40
-207
25
76
-88
-38
86
-35
-77
161
145
84
187
189
70
190
416
325
284
428
420
331
577
717
511
638
857
724
694
864
768
575
676
664
435
352
319
99
-24
213
101
-276
-118
44
-299
-361
-109
-219
-316
-184
-264
-423
-222
-124
-371
-295
-63
-213
-249
-98
-247
-197
27
-180
-377
-205
-39
-196
-242
-40
-132
-352
-167
-52
-305
-247
-17
-220
-343
-102
-246
-394
-136
-156
-379
-287
-86
-262
-340
-71
-101
-289
-159
-91
-315
-196
-9
-292
-268
-13
-208
-397
-172
-91
-386
-266
27
-287
-407
-110
-205
-370
-149
-67
-349
-356
-53
-169
-378
-156
-154
-233
-86
-159
-333
-189
-25
-277
-305
58
-78
-396
-164
-42
-305
-187
14
-224
-270
-106
-192
-288
-150
-104
-302
-235
-14
-214
-331
-43
-23
-221
-127
1
-79
32
184
-43
-98
87
-41
-90
221
232
-96
-20
180
-50
-108
80
-50
-270
-115
-46
-244
-131
-59
-312
-335
-84
-140
-285
-106
-101
-334
-313
116
731
1305
1669
1192
245
62
42
-357
-289
-214
-499
-386
-31
-77
-294
-81
-5
-260
-162
-33
-236
-258
102
23
-325
-45
58
-252
-103
108
-85
-159
112
101
-172
53
197
-103
57
288
55
134
399
252
104
369
473
321
542
682
485
544
804
786
699
843
928
738
755
907
621
493
681
465
230
394
310
-39
-31
133
-59
-170
27
-94
-330
-168
-3
-187
-212
-23
-243
-354
-80
-165
-352
-135
-38
-234
-126
75
-221
-302
-3
-28
-137
-57
-60
-256
-132
80
-166
-251
40
-6
-294
-117
37
-238
-246
-37
-237
-283
-27
-169
-321
-104
-111
-351
-123
35
-308
-288
6
-130
-305
-82
-34
-273
-140
36
-272
-264
101
-177
-378
-27
-110
-361
-175
-50
-273
-275
26
-132
-282
-58
-132
-215
-81
-90
-266
-226
23
-107
-296
-66
-81
-320
-118
108
-181
-300
16
-114
-342
-68
-37
-256
-76
-7
-247
-171
-7
-164
-225
-48
-68
-159
-84
-29
-103
-82
128
118
-27
139
232
-48
-2
300
113
40
350
102
-148
173
139
-139
-54
77
-114
-225
-27
-135
-334
-99
-45
-304
-222
5
-183
-253
8
-252
-400
518
1345
1446
1439
886
21
-113
-26
-317
-516
-226
-83
-280
-124
87
-97
-230
-47
-109
-304
-22
57
-287
-129
146
-149
-217
63
-30
-166
45
93
-119
46
160
-169
-121
199
80
-70
215
283
15
176
433
221
262
598
439
300
714
788
513
738
939
706
717
1010
879
614
821
781
408
515
569
188
122
302
68
-166
51
41
-269
-81
109
-247
-319
-39
-140
-412
-130
-27
-430
-326
-108
-288
-275
-58
-191
-277
16
-17
-302
-212
-8
-125
-198
-36
-170
-264
-45
-54
-208
-178
-99
-216
-168
-34
-209
-318
-122
-90
-290
-162
-51
-305
-228
19
-167
-288
-72
0
-244
-224
-28
-263
-272
37
-129
-316
-76
-60
-298
-128
108
-209
-398
-119
-155
-322
-114
-88
-308
-153
-10
-254
-231
2
-160
-287
-46
-48
-210
-75
-39
-256
-188
32
-154
-298
-78
-1
-194
-147
45
-230
-257
115
-124
-355
-15
-9
-309
-127
92
-176
-211
75
-68
-272
-25
70
-210
-90
155
-30
38
305
133
-38
210
259
55
182
288
90
57
262
215
-48
81
98
-129
-2
14
-221
-150
92
-69
-238
23
4
-244
15
132
-264
-283
123
432
1003
1767
1690
796
325
269
-108
-259
-129
-276
-310
58
145
-155
-73
123
-74
-130
135
44
-177
52
122
-95
77
254
-90
-95
211
55
5
187
85
-29
126
222
136
137
247
183
131
352
395
242
352
475
346
493
736
566
557
856
867
709
895
1042
830
865
1067
854
697
869
605
345
552
358
-3
52
206
22
-157
73
80
-216
-89
148
-203
-262
71
-230
-398
-67
-78
-302
-142
25
-252
-252
33
-157
-300
-22
-65
-220
10
30
-138
-152
-102
-189
-259
-27
-45
-294
-122
37
-265
-248
78
-171
-338
37
-37
-383
-147
36
-292
-269
-13
-180
-230
2
-101
-306
-109
4
-236
-209
6
-89
-187
-87
-166
-325
-160
-75
-340
-276
16
-155
-317
-130
-174
-372
-177
-52
-269
-211
-60
-255
-321
-62
-80
-310
-148
68
-248
-364
-69
-108
-294
-154
-115
-297
-60
13
-361
-226
83
-225
-349
-23
-91
-276
-76
-10
-251
-148
59
-167
-176
131
56
-151
170
329
-109
-42
303
85
-6
264
190
-104
113
334
-64
-91
99
-119
-104
-9
-151
-285
-136
-28
-254
-210
-11
-181
-262
-60
-115
-305
132
1031
1452
1567
1393
450
-94
71
-46
-329
-328
-186
-231
-102
92
-127
-212
47
46
-189
9
236
-119
-167
148
-32
-91
344
151
-235
103
187
-109
5
246
116
-14
160
163
-7
212
327
92
181
417
294
269
524
577
487
621
748
568
748
990
742
705
1005
1016
729
820
940
585
524
631
332
234
338
187
-67
13
119
-224
-249
18
-171
-283
-75
-156
-324
-163
-93
-253
-187
-90
-204
-174
-44
-179
-346
-141
-47
-267
-158
18
-149
-208
-34
-41
-224
-160
11
-195
-255
-8
-196
-337
-64
-69
-301
-175
-65
-262
-202
-49
-212
-341
-146
-107
-324
-156
84
-247
-325
-38
-221
-312
-30
-93
-361
-118
-14
-339
-223
-12
-259
-358
-15
-47
-370
-171
-76
-251
-82
-34
-249
-214
-71
-169
-300
-65
27
-263
-195
41
-138
-187
42
-162
-324
4
84
-237
-200
26
-133
-182
17
-67
-270
-100
15
-227
-165
73
-139
-179
126
-38
-275
-91
-35
-208
-95
29
-183
-205
51
-15
-258
-18
109
-109
115
293
27
-36
168
78
-6
247
220
-7
97
263
37
-88
153
67
-190
-42
107
-160
-214
23
-173
-257
22
-88
-312
-106
8
-191
-208
-89
35
654
1536
1751
1208
650
331
-140
-284
-118
-347
-466
-77
-2
-319
-172
-45
-292
-189
53
-182
-305
1
-67
-271
-15
1
-242
-49
49
-179
-32
92
-180
-285
-6
107
-153
-87
126
-8
-39
191
218
56
178
368
207
267
538
356
349
765
691
424
716
925
643
662
891
715
579
687
545
266
377
333
-41
48
144
-119
-136
-46
-205
-359
-205
-136
-360
-281
-101
-276
-315
-177
-293
-370
-179
-149
-341
-259
-43
-266
-341
-48
-138
-325
-138
30
-219
-301
-32
-111
-287
-181
-219
-334
-141
-108
-363
-277
-55
-254
-358
-88
-111
-388
-202
55
-213
-306
-128
-297
-307
-43
-178
-351
-139
-89
-347
-257
-49
-290
-380
-39
-122
-443
-233
-98
-367
-250
-41
-321
-387
-157
-216
-385
-180
-130
-354
-247
-103
-259
-339
-114
-123
-341
-190
-62
-298
-268
-26
-189
-316
-54
-136
-419
-202
-98
-346
-216
-37
-286
-300
-27
-162
-355
-86
44
-129
-30
112
-28
-119
-12
43
-101
48
210
-84
-70
103
-132
-190
50
-134
-339
-54
-130
-469
-320
-106
-336
-394
-52
-188
-461
-229
-156
-497
-364
480
1074
1350
1536
852
-64
-29
-103
-554
-505
-292
-358
-326
-31
-102
-314
-134
-108
-309
-167
5
-229
-298
-67
-136
-282
-60
-26
-222
-109
19
-156
-214
41
4
-150
113
175
-143
-42
200
7
-3
334
233
53
395
430
192
391
629
533
513
755
721
598
810
839
594
672
829
581
433
581
404
90
255
242
-66
-9
41
-169
-192
-89
-213
-303
-126
-133
-403
-278
-77
-312
-317
-104
-203
-284
-141
-170
-314
-161
-47
-273
-233
38
-154
-339
-80
-38
-334
-189
155
-187
-403
-79
-140
-279
-122
-131
-295
-214
-90
-246
-242
-88
-211
-281
-96
-146
-369
-184
12
-280
-340
-31
-80
-307
-134
-58
-332
-234
-19
-227
-306
-2
-108
-390
-137
-40
-256
-182
-101
-324
-313
-41
-199
-353
-93
-103
-275
-175
-57
-184
-279
-87
-137
-262
-50
-86
-332
-181
-3
-194
-225
-25
-157
-332
-77
13
-220
-187
-83
-249
-274
12
-74
-311
-46
12
-160
58
219
-1
-52
176
173
28
141
201
-27
82
257
4
-24
239
72
-171
-31
-53
-274
-202
42
-167
-347
-73
-98
-271
-95
-68
-272
-156
-86
5
835
1616
1589
1023
497
330
-83
-347
-214
-452
-390
60
-33
-252
-41
15
-276
-151
46
-153
-152
26
-49
-247
-69
55
-188
-65
157
-92
-82
265
32
-170
142
180
-46
124
328
31
24
338
275
134
354
483
235
394
698
444
472
834
723
718
994
858
670
817
941
748
658
834
623
319
485
403
67
201
215
-128
-34
131
-134
-264
-51
-27
-277
-170
15
-213
-215
3
-110
-248
-119
-82
-255
-144
56
-179
-207
80
-93
-240
-20
-48
-226
-105
96
-60
-215
-33
-113
-249
-21
7
-243
-193
-21
-159
-220
-40
-56
-228
-82
-76
-344
-164
26
-227
-250
18
-68
-238
-71
-24
-202
-114
-4
-231
-242
-52
-118
-264
-137
-115
-349
-144
17
-297
-303
-35
-170
-332
19
4
-403
-247
-61
-229
-182
-7
-158
-326
-96
-55
-298
-155
1
-230
-252
35
-74
-341
-69
-10
-377
-158
92
-223
-230
38
-51
-116
165
236
-60
-31
214
64
41
281
121
-39
195
181
-34
112
196
-88
-204
93
-76
-424
-107
-55
-325
-152
-3
-254
-243
-9
-176
-305
-146
51
599
1443
1816
1275
453
188
26
-270
-294
-312
-359
-189
-26
-195
-206
44
-101
-273
-8
73
-206
-120
79
-145
-168
78
-33
-182
81
121
-166
16
250
7
-21
231
51
-93
235
238
48
263
367
153
233
469
371
349
599
619
477
684
954
747
647
1038
961
660
934
941
596
697
783
363
225
429
216
-1
165
157
-104
-89
38
-154
-162
67
-121
-300
-93
11
-179
-227
-29
-171
-272
-39
-130
-307
-88
-63
-285
-96
62
-196
-216
22
-52
-175
-35
-31
-262
-85
140
-207
-287
-11
-106
-290
-81
-52
-305
-165
-41
-267
-241
-3
-125
-274
-65
-64
-302
-148
-7
-278
-260
8
-140
-296
-61
-25
-252
-161
-61
-280
-183
10
-235
-346
-86
33
-150
-180
-98
-232
-210
4
-96
-298
-110
-51
-287
-78
56
-282
-259
-5
-131
-272
-41
6
-261
-169
0
-216
-221
33
-127
-325
16
11
-361
-137
33
-263
-196
61
-113
-252
-22
56
-98
96
268
83
133
206
36
23
266
241
-35
97
238
14
-9
150
1
-248
-29
75
-266
-181
-40
-175
-139
-83
-228
-298
-16
-51
-358
-212
-26
227
1006
1708
1641
814
242
115
-248
-283
-168
-405
-356
-38
-114
-253
-51
-54
-258
-125
9
-215
-207
37
-110
-251
14
82
-149
-90
72
-41
-63
102
-30
-192
91
135
-32
154
209
-39
-16
285
258
105
333
411
294
521
611
445
573
814
736
604
877
942
671
828
969
664
576
790
557
236
394
322
0
118
175
-143
-102
61
-180
-301
17
23
-374
-271
-31
-254
-312
-55
-137
-346
-175
-124
-351
-184
-18
-286
-253
-10
-111
-197
-77
-151
-285
-51
1
-319
-318
-79
-172
-346
-134
-129
-360
-189
-97
-355
-258
-35
-234
-344
-161
-150
-299
-220
-121
-234
-207
-85
-222
-317
-98
-126
-325
-126
57
-263
-300
91
-218
-444
-75
-122
-334
-152
-32
-261
-256
-24
-159
-273
-28
-51
-285
-68
119
-238
-250
71
-87
-231
17
34
-208
-88
8
-209
-81
83
-140
-201
-7
5
-176
-84
40
-141
-65
117
-116
-232
113
108
-125
164
314
33
73
305
112
20
331
393
118
137
252
76
198
263
-74
-153
75
-3
-283
-55
70
-244
-172
18
-174
-253
-7
-21
-256
-104
61
120
964
1801
1599
978
482
114
-148
-127
-185
-454
-348
-11
-106
-239
5
38
-193
-129
52
-157
-231
101
-21
-282
9
-18
-304
-35
111
-166
-109
90
-65
-101
80
-23
-175
117
293
-5
-68
134
71
11
264
276
113
364
544
324
422
779
600
469
865
912
595
672
840
586
519
660
418
174
358
287
-133
1
85
-245
-233
-23
-92
-312
-201
-204
-433
-190
-97
-421
-338
-64
-251
-437
-172
-197
-348
-82
-130
-445
-309
-25
-215
-393
-94
-47
-346
-222
-28
-269
-282
34
-183
-406
-54
-113
-414
-208
-52
-346
-333
-53
-274
-424
-98
-30
-355
-281
-111
-342
-244
-10
-283
-345
-51
-164
-415
-165
-11
-409
-342
-17
-290
-430
-198
-227
-410
-229
-127
-385
-343
-164
-343
-384
-102
-168
-445
-300
-85
-288
-353
-149
-290
-384
-82
-92
-352
-232
-138
-360
-279
37
-46
-227
-31
-1
-201
-79
36
-126
-74
139
-22
-176
99
125
-221
-71
14
-352
-280
-67
-313
-450
-163
-178
-444
-266
-134
-382
-327
-124
-301
-444
-190
372
977
1550
1575
577
4
41
-311
-441
-325
-408
-436
-209
-109
-317
-288
-87
-174
-278
-100
-169
-376
-204
-16
-142
-265
-82
-132
-266
-27
-17
-225
-14
113
-239
-218
83
-25
-105
118
105
-72
142
358
167
154
423
299
272
613
524
386
650
761
593
699
918
722
610
832
734
438
497
531
180
189
370
-16
-207
13
7
-236
-211
-140
-340
-298
-151
-303
-421
-179
-143
-430
-301
-129
-345
-317
-75
-259
-355
-72
-179
-372
-156
-52
-262
-175
22
-285
-408
-119
-172
-373
-207
-121
-304
-285
-73
-160
-415
-188
-195
-418
-57
-117
-519
-356
-93
-247
-393
-182
-195
-384
-145
-72
-425
-344
-29
-170
-327
-119
-195
-393
-189
-9
-254
-368
-88
-222
-400
-117
-122
-346
-195
-34
-234
-332
-126
-223
-359
-93
-114
-398
-103
98
-341
-321
-30
-193
-265
-9
-72
-354
-145
15
-248
-188
23
-152
-261
-37
-43
-265
-111
28
-171
-63
256
3
-141
182
109
-112
109
284
34
59
272
79
6
257
134
-116
112
107
-206
-141
9
-192
-268
-20
-82
-252
-145
-112
-276
-235
-19
-217
-292
608
1395
1429
1461
928
46
-43
2
-360
-509
-205
-67
-189
-24
-14
-337
-198
70
-132
-224
37
2
-208
-34
55
-175
-85
118
-77
-68
189
3
-131
172
164
-84
64
244
44
-16
292
290
104
336
461
279
399
568
450
479
711
714
601
839
977
697
800
1021
831
753
912
781
450
545
579
222
187
373
105
-70
186
36
-220
-23
-6
-203
-140
-33
-199
-271
-4
-10
-238
-98
8
-220
-145
71
-15
-50
-16
-158
-248
-9
68
-184
-102
107
-121
-192
94
-17
-233
-10
56
-233
-101
173
-193
-260
115
-52
-302
-44
87
-217
-177
129
-123
-304
36
-4
-273
-90
71
-196
-189
68
-112
-241
-11
-14
-223
-111
-8
-256
-187
85
-135
-277
-52
-105
-292
-97
13
-255
-159
83
-164
-260
9
-75
-276
-26
68
-243
-235
7
-141
-242
-1
-69
-282
19
100
-312
-203
92
-167
-237
66
24
-80
128
197
-33
52
277
45
-26
298
242
18
220
260
-30
18
338
108
-263
15
19
-277
-65
23
-306
-188
103
-204
-311
22
-91
-280
-82
-117
-20
918
1714
1593
1091
613
194
-130
-126
-184
-473
-307
77
-28
-212
101
66
-302
-86
29
-231
-114
124
-74
-176
103
65
-129
52
91
-62
34
128
-29
-31
242
115
-118
127
275
80
131
374
186
241
598
310
147
527
646
455
590
851
687
634
940
932
779
931
910
683
749
789
466
291
480
353
42
178
170
-138
-60
153
-98
-236
10
-42
-206
-57
-73
-276
-147
-1
-221
-267
14
-52
-257
-52
24
-267
-189
53
-108
-156
31
-115
-225
-16
-39
-267
-175
80
-148
-294
0
-91
-355
-103
44
-284
-271
-9
-191
-296
-58
-164
-279
-45
-135
-320
-106
-28
-270
-285
-62
-74
-296
-219
-61
-257
-242
-34
-168
-306
-97
-69
-301
-154
-60
-252
-158
-66
-260
-296
-68
-137
-303
-75
-15
-275
-170
26
-203
-267
86
-25
-421
-130
12
-299
-147
-1
-218
-214
-22
-126
-264
-48
-16
-241
-69
164
-123
-130
226
111
-25
176
132
-61
171
334
104
79
221
79
17
243
125
-145
-85
4
-147
-202
12
-36
-243
-78
34
-103
-93
-80
-220
-230
-56
111
719
1712
1911
1156
516
298
-24
-209
-127
-328
-388
81
82
-262
-46
72
-148
-143
32
-47
-195
11
90
-106
-31
85
-24
-7
119
33
-73
101
141
15
116
203
46
67
296
209
62
284
482
212
196
525
387
325
655
661
601
867
791
566
810
1010
813
793
1016
824
659
839
669
297
356
472
158
61
241
88
-147
13
58
-237
-139
17
-202
-239
53
-17
-366
-206
-31
-303
-270
3
-213
-289
56
-121
-366
-66
0
-183
-151
-53
-179
-278
24
-10
-352
-87
33
-349
-282
-28
-243
-254
15
-203
-319
-93
-174
-361
-217
-44
-218
-295
-27
-91
-353
-172
-63
-216
-237
-127
-217
-326
-46
6
-349
-212
-37
-336
-287
-38
-264
-318
17
-200
-442
-138
-27
-292
-210
-68
-354
-330
-32
-154
-355
-142
-21
-253
-269
-57
-219
-312
-66
-146
-334
-55
75
-242
-128
169
-33
-80
229
89
-207
62
190
-63
3
168
-54
-85
153
-19
-199
-47
-98
-294
-163
-32
-307
-373
-7
-99
-405
-179
-104
-365
-255
-104
-34
719
1593
1579
992
457
107
-228
-297
-257
-515
-478
-80
-68
-294
-114
-32
-273
-139
5
-279
-314
81
-29
-360
-92
-15
-252
-78
92
-118
-148
57
-1
-169
31
188
-45
-57
150
23
-42
226
231
93
327
418
201
372
641
445
420
795
755
565
778
852
669
770
913
642
521
713
532
242
399
343
-43
14
142
-79
-124
-3
-152
-307
-92
-93
-410
-240
-25
-296
-324
-139
-252
-345
-77
-31
-371
-260
-31
-276
-319
-50
-142
-248
-39
-103
-343
-216
-26
-236
-309
-126
-216
-274
-140
-93
-292
-332
-135
-282
-298
-91
-173
-291
-223
-202
-368
-201
7
-332
-340
-26
-172
-297
-125
-163
-338
-201
-75
-265
-253
1
-160
-418
-83
23
-367
-255
-37
-302
-331
-49
-146
-351
-104
-12
-320
-234
12
-220
-263
63
-153
-399
-86
-34
-304
-170
24
-205
-237
-11
-110
-197
-14
-94
-256
-69
14
-276
-215
145
18
-102
187
205
-70
11
249
174
66
213
155
-44
143
200
-62
4
137
-123
-96
92
-154
-309
-74
0
-274
-223
5
-204
-272
-2
-122
-381
137
991
1412
1620
1392
493
-66
36
-164
-460
-265
-130
-245
-95
97
-132
-182
92
-30
-210
28
44
-207
-86
114
-26
-118
105
80
-204
20
182
-165
-74
192
-17
-42
165
48
-32
274
262
-23
190
399
234
277
525
470
383
585
717
633
650
830
714
675
986
889
669
852
824
519
546
601
275
187
389
157
-148
88
166
-253
-173
86
-189
-264
-38
-107
-317
-150
-66
-336
-211
19
-153
-187
-21
-135
-262
-28
1
-247
-149
56
-157
-157
223
-83
-340
58
-19
-329
-130
45
-210
-231
22
-110
-287
-24
36
-309
-151
122
-198
-275
14
-107
-300
-32
72
-205
-126
0
-308
-275
-9
-157
-295
-68
8
-288
-172
39
-308
-318
0
-126
-255
-58
-62
-308
-193
21
-253
-318
33
-22
-257
-91
-27
-283
-148
91
-159
-211
69
-41
-267
-108
-62
-220
-89
43
-177
-248
5
-93
-267
-7
36
-235
-86
146
-51
21
283
103
-71
119
156
-32
132
319
59
10
261
113
-72
123
75
-221
-96
61
-196
-200
58
-69
-230
-87
-116
-265
-130
-58
-326
-414
-84
416
1039
1728
1658
644
232
321
-185
-443
-270
-300
-291
-114
-68
-254
-181
-6
-144
-209
-14
-63
-264
-35
18
-229
-80
114
-90
-162
75
5
-179
17
161
-113
-55
268
-28
-130
215
129
-13
279
366
80
260
493
267
418
685
486
497
809
808
625
821
993
713
774
986
725
533
729
626
288
384
379
21
1
197
-41
-215
29
41
-190
-161
-35
-263
-306
-16
-129
-208
3
-129
-332
-149
-4
-227
-276
-10
-11
-192
-90
-54
-247
-122
23
-88
-115
-26
-131
-276
-20
38
-240
-95
56
-204
-128
109
-118
-214
-3
-18
-245
-137
34
-203
-192
48
-96
-223
-12
34
-156
-133
87
-86
-298
38
-8
-295
-95
-66
-291
-165
4
-228
-255
2
-154
-333
-84
-24
-228
-180
-80
-263
-264
-31
-190
-293
-24
-79
-297
-107
35
-218
-296
-52
-75
-330
-169
-59
-293
-163
29
-215
-257
-13
-120
-256
-79
-29
-152
-3
132
-13
11
181
43
-133
125
231
-22
102
276
18
-64
129
12
-223
16
114
-320
-304
-90
-343
-304
-65
-254
-347
-164
-211
-380
-236
-170
-375
83
1078
1458
1444
1158
305
-166
-48
-160
-559
-455
-117
-277
-281
-16
-132
-409
-242
-40
-267
-243
56
-118
-316
-53
-14
-246
-81
104
-206
-205
117
-64
-252
35
70
-175
41
216
-34
-7
288
220
44
339
433
169
362
556
384
500
766
658
595
870
905
707
858
1018
744
679
874
648
417
533
390
75
192
261
-21
-24
95
-107
-192
27
5
-249
-143
15
-224
-234
-68
-239
-242
-55
-151
-306
-182
8
-163
-269
-76
-186
-308
-19
-30
-300
-107
16
-262
-223
22
-118
-289
-122
-49
-265
-136
-40
-300
-217
-90
-269
-316
-88
-67
-345
-305
-72
-207
-322
-109
-207
-360
-66
-113
-357
-184
-10
-219
-338
-53
-131
-360
-93
-116
-412
-228
-86
-301
-304
-52
-109
-367
-161
-72
-326
-133
32
-254
-333
-114
-203
-340
-70
-85
-424
-261
-21
-232
-267
-34
-102
-326
-135
-30
-355
-264
-72
-267
-181
112
-8
-133
83
58
-147
56
187
-105
-66
167
-10
-96
116
49
-206
-131
-74
-324
-327
-70
-96
-341
-240
-156
-384
-244
-84
-256
-285
-219
-235
126
1121
1715
1392
809
325
-103
-267
-134
-362
-614
-274
-128
-313
-131
59
-247
-325
49
-79
-337
-96
-40
-210
-120
-6
-205
-210
54
-86
-238
40
34
-216
-33
93
-124
11
341
79
-172
122
170
-6
186
385
239
264
527
451
362
704
756
441
653
920
705
796
928
628
522
703
585
288
406
413
72
63
176
-85
-244
4
-57
-288
-103
-101
-420
-319
-64
-266
-371
-98
-174
-417
-219
-90
-331
-273
-45
-211
-303
-59
-104
-347
-124
-29
-296
-191
-86
-264
-236
-74
-171
-332
-129
-45
-337
-279
-6
-199
-351
-126
-119
-246
-91
-92
-415
-282
-31
-271
-364
-82
-104
-345
-106
25
-296
-240
1
-138
-235
-99
-74
-200
-147
-90
-307
-250
-29
-239
-323
-7
-54
-333
-153
24
-225
-245
-25
-88
-211
-118
-109
-282
-159
-9
-245
-202
15
-229
-314
20
13
-194
21
151
-47
-37
114
-31
-78
241
157
-102
122
184
-66
13
157
-60
-219
-42
-73
-322
-148
17
-258
-234
22
-177
-293
-45
-100
-313
-200
172
619
1205
1714
1276
391
221
68
-333
-198
-156
-379
-166
78
-98
-171
83
-25
-225
56
107
-191
-46
126
-112
-150
95
95
-103
52
186
-22
-8
170
78
49
194
123
-23
159
376
130
168
479
273
197
512
568
457
639
718
504
667
952
821
771
1008
993
748
884
1032
701
584
738
533
320
450
313
-33
80
208
-69
-103
145
-30
-190
68
-20
-248
-16
3
-243
-189
17
-104
-293
10
11
-296
-76
58
-233
-121
206
-106
-333
5
20
-230
-38
125
-157
-184
49
-85
-195
3
-33
-181
-68
-37
-180
-127
27
-143
-254
30
-36
-290
-49
44
-217
-168
25
-132
-222
68
-3
-291
-88
94
-76
-132
13
-151
-227
130
14
-298
-59
39
-172
-37
79
-190
-259
-2
-32
-231
-52
64
-163
-177
2
-98
-163
40
-36
-255
-62
70
-158
-151
8
-162
-228
74
-14
-259
47
177
-62
116
300
44
-49
157
173
10
218
303
-1
60
207
53
-71
48
45
-200
-127
-1
-207
-193
7
-173
-279
-26
-97
-321
-133
-32
-263
-277
407
1308
1508
1530
1107
188
77
114
-308
-412
-200
-258
-242
45
-34
-229
23
86
-330
-259
57
-156
-232
33
-11
-212
-31
103
-136
-84
157
-31
-144
181
164
-102
84
230
-4
80
311
66
45
356
284
171
436
510
338
458
625
533
538
814
820
693
927
913
579
690
888
617
515
688
427
99
235
289
-42
-71
152
-81
-243
-7
-112
-335
-124
28
-232
-286
-57
-293
-385
-19
-133
-385
-103
3
-309
-254
-22
-153
-271
-83
-106
-256
-27
-65
-320
-142
-62
-289
-321
-96
-132
-347
-165
-53
-324
-256
-42
-244
-283
-99
-197
-311
-123
-64
-350
-316
-37
-236
-302
-8
-196
-401
-125
-70
-320
-160
-6
-328
-334
-37
-155
-363
-73
6
-327
-260
-51
-200
-286
-83
-140
-325
-117
-66
-342
-231
-39
-235
-284
-38
-114
-324
-83
-22
-264
-168
8
-132
-239
-80
-110
-246
-117
5
-157
-229
-42
-130
-227
56
59
-140
127
248
-75
-43
213
74
-37
315
253
-172
64
213
-101
-20
234
-80
-319
-12
-82
-345
-131
32
-266
-324
-56
-215
-341
-91
-112
-336
-307
60
704
1425
1742
1179
355
147
23
-291
-329
-285
-382
-280
37
-102
-302
-51
-76
-272
-38
60
-269
-176
65
-121
-166
55
21
-205
39
222
-159
-116
173
-28
-89
186
171
-7
149
261
66
177
425
204
153
489
533
381
548
663
442
632
912
684
679
995
938
780
950
936
693
707
760
461
224
400
287
23
217
233
-93
-47
137
-69
-141
66
-30
-229
-14
54
-279
-196
75
-104
-232
13
-66
-294
-58
-21
-207
-63
62
-102
-137
83
-30
-289
-5
122
-226
-183
86
-56
-241
-26
-55
-288
-76
-15
-238
-144
9
-208
-311
-28
-93
-298
-78
11
-201
-189
-26
-186
-271
13
-86
-393
-111
49
-320
-230
20
-264
-337
-59
-122
-340
-146
61
-236
-345
-54
-184
-320
-84
-174
-340
-160
-114
-321
-251
-44
-255
-330
-62
-213
-360
-88
-108
-371
-230
-24
-271
-332
-77
-176
-346
-168
-76
-292
-121
264
31
-181
-17
-85
-172
110
182
-79
31
140
-151
-154
107
-53
-346
-168
-67
-292
-220
-42
-252
-397
-178
-216
-402
-150
-58
-360
-296
-109
-4
677
1562
1649
1043
601
192
-331
-307
-183
-524
-441
45
-138
-397
-117
-52
-265
-182
45
-144
-305
-39
-62
-242
-76
-2
-213
-165
34
-122
-189
45
-23
-170
99
85
-170
45
171
-113
-60
357
231
-58
210
320
111
274
559
405
349
657
703
557
718
790
561
668
869
631
497
648
501
184
224
210
-61
-32
134
-79
-280
-107
-171
-362
-190
-113
-337
-330
-130
-296
-450
-166
-216
-429
-138
-172
-491
-306
-106
-338
-350
-28
-126
-376
-178
-134
-316
-210
-116
-288
-348
-80
-174
-428
-168
-117
-393
-286
-96
-324
-338
-41
-173
-411
-222
-150
-382
-158
10
-408
-412
-99
-214
-393
-180
-122
-380
-271
-83
-313
-335
-86
-219
-313
-117
-154
-414
-285
-12
-303
-366
-115
-276
-402
-163
-121
-362
-239
-60
-300
-328
1
-118
-428
-232
-173
-386
-215
-62
-290
-346
-141
-211
-294
-121
-140
-298
-99
112
-50
-74
95
-23
-177
111
171
-127
-26
205
-57
-142
185
-17
-335
-96
-5
-323
-260
-62
-305
-269
-5
-243
-415
-137
-91
-364
-255
-121
-201
556
1525
1515
1044
568
148
-227
-292
-190
-481
-485
-99
-130
-263
-83
-77
-285
-187
38
-194
-267
92
-123
-349
-26
25
-205
-100
91
-100
-123
109
7
-165
57
262
15
-38
200
65
74
357
239
85
420
559
233
386
677
463
498
883
751
533
888
948
647
782
982
721
619
811
590
358
501
374
58
185
246
-135
-155
96
-52
-221
-17
56
-222
-185
-10
-250
-283
-9
-117
-246
17
-40
-333
-167
72
-195
-314
0
-99
-297
-34
-18
-295
-138
60
-181
-240
46
5
-275
-150
-80
-260
-96
-4
-252
-250
-9
-137
-321
-100
-76
-270
-161
-92
-231
-210
-63
-198
-318
-41
-45
-293
-149
-28
-220
-245
-65
-161
-287
-106
-109
-326
-194
-20
-230
-285
-41
-157
-352
-106
-51
-282
-203
-14
-201
-228
21
-180
-352
-77
-51
-182
-65
-70
-310
-270
-7
-155
-304
-20
11
-182
-27
128
-34
-43
150
4
-141
123
235
21
75
215
-46
-83
206
31
-177
147
-11
-459
-205
-36
-308
-267
-44
-170
-321
-143
-113
-365
-263
-103
-407
-187
808
1272
1434
1464
627
-102
-81
-101
-450
-511
-197
-241
-263
58
-76
-403
-97
126
-302
-334
-11
-170
-318
-61
6
-226
-124
68
-160
-192
133
15
-226
104
186
-202
-24
234
-54
4
304
139
39
348
367
123
326
553
423
483
671
588
642
829
750
647
815
953
752
721
835
625
470
551
459
138
133
248
-70
-117
121
-45
-225
-92
-69
-293
-220
-11
-219
-300
-76
-166
-282
-107
-186
-387
-194
-53
-271
-245
5
-151
-316
-39
-16
-267
-102
5
-235
-202
-15
-146
-298
-49
-21
-320
-176
-29
-258
-233
24
-110
-338
-78
48
-270
-211
45
-195
-240
11
-151
-260
-25
-56
-296
-148
-1
-235
-190
89
-105
-327
-86
-61
-274
-115
50
-231
-311
-20
-134
-292
-35
-37
-263
-94
63
-257
-296
37
-93
-244
32
-38
-326
-170
2
-121
-190
-42
-100
-249
-24
-18
-296
-195
39
-155
-277
-5
-53
-237
-73
-57
-232
-108
-10
-223
-192
139
12
-198
132
187
-73
77
187
-62
-5
304
150
-59
249
249
-166
95
329
-163
-228
58
-144
-268
32
-54
-304
-103
-58
-256
-176
-4
-124
-230
-64
-150
14
1122
1735
1466
1139
622
112
-87
-18
-195
-475
-238
126
11
-213
-15
-57
-220
-1
11
-172
-14
105
-118
-90
188
42
-170
88
142
-118
57
376
34
-125
345
157
-147
242
296
78
263
418
213
235
537
427
296
648
739
476
663
899
683
763
1105
928
804
1058
949
754
947
918
554
566
693
401
229
341
271
83
143
180
-42
-7
174
14
-121
74
34
-153
43
192
-54
-142
94
60
-71
109
61
-67
196
169
-154
-52
208
15
-129
175
199
-105
22
187
-109
-82
232
-14
-192
142
77
-187
29
110
-124
-15
129
-171
-189
140
-25
-212
21
80
-120
-97
71
-83
-187
75
4
-251
-2
81
-246
-160
99
-110
-248
43
-27
-308
-63
85
-207
-162
69
-53
-75
-1
-157
-292
-94
7
-226
-157
84
-140
-268
64
-10
-293
-112
68
-123
-205
1
-120
-314
8
27
-322
-44
130
-138
29
266
120
-9
145
147
-62
135
274
-9
-8
184
16
-39
208
6
-321
-92
68
-296
-296
6
-264
-331
-29
-186
-376
-122
-42
-345
-323
-64
330
1134
1713
1516
718
192
128
-248
-474
-312
-445
-437
-75
-111
-342
-118
4
-288
-241
-33
-227
-274
54
-55
-304
-45
-24
-285
-180
6
-200
-216
66
-81
-285
-60
83
-133
-144
90
-24
-147
137
105
-85
203
344
140
243
512
370
306
653
634
430
627
763
602
592
768
537
297
500
386
67
188
184
-221
-202
38
-198
-315
-99
-248
-495
-189
-93
-510
-439
-184
-384
-446
-193
-242
-412
-264
-228
-428
-348
-122
-322
-391
-56
-199
-419
-222
-218
-451
-357
-92
-349
-437
-110
-258
-477
-263
-190
-338
-290
-235
-385
-458
-251
-285
-479
-289
-218
-462
-358
-115
-388
-496
-126
-204
-473
-222
-157
-419
-310
-129
-258
-367
-222
-237
-444
-260
-151
-406
-307
-105
-243
-282
-158
-247
-309
-128
-158
-387
-263
-21
-235
-322
-41
-169
-366
-64
-61
-344
-181
-65
-285
-302
-70
-98
-251
-73
25
-157
37
257
-17
-130
150
145
-85
155
275
-45
-21
160
-36
-136
60
-35
-281
-85
18
-297
-161
101
-290
-406
-70
-160
-326
-110
-44
-341
-328
302
921
1358
1635
1017
158
76
31
-377
-438
-229
-327
-252
9
-146
-332
-50
56
-265
-182
29
-209
-238
36
-65
-200
22
48
-195
-109
102
-72
-136
147
100
-167
41
170
-69
54
247
137
126
341
272
98
421
510
298
461
663
573
570
799
768
623
842
1007
773
685
840
623
450
624
441
185
315
251
-69
1
182
-101
-226
-9
-120
-317
-47
-19
-383
-202
32
-237
-300
-58
-180
-317
14
5
-329
-170
9
-217
-247
63
40
-284
-142
13
-249
-193
39
-147
-261
-18
-101
-308
-57
-16
-364
-214
116
-234
-357
20
-129
-334
-95
-95
-283
-150
-31
-239
-255
40
-95
-278
-46
-117
-304
-72
28
-259
-244
4
-147
-277
-49
-57
-283
-152
46
-197
-279
8
-96
-317
-106
61
-164
-218
-26
-197
-228
32
-108
-275
-78
-36
-241
-112
28
-185
-94
72
-153
-201
138
213
-48
96
264
-65
-73
296
176
-37
224
191
-113
80
256
-15
-145
7
-100
-265
-36
8
-270
-199
-37
-240
-220
18
-192
-314
-76
-146
-97
766
1616
1556
1110
625
75
-180
-85
-194
-526
-350
-16
-155
-201
64
-39
-250
-16
-28
-315
-125
69
-144
-168
13
-76
-152
31
-17
-174
9
69
-167
-85
135
-22
-120
129
181
-23
121
323
177
117
333
295
221
521
527
333
574
777
567
592
931
838
625
949
901
499
685
854
406
199
442
285
28
137
88
-203
-67
109
-249
-275
68
-147
-414
-150
-131
-378
-181
-41
-346
-327
-69
-222
-298
-83
-102
-282
-170
42
-220
-331
-31
-164
-249
26
-133
-392
-183
5
-231
-317
-55
-151
-346
-76
-28
-349
-207
-14
-291
-287
48
-175
-417
-56
-48
-388
-188
9
-299
-262
80
-158
-420
-94
-35
-324
-163
26
-204
-205
-14
-203
-338
-53
-64
-370
-156
45
-298
-295
32
-171
-263
26
-155
-380
-130
-6
-248
-243
22
-64
-301
-65
20
-292
-90
79
-262
-228
73
-112
-268
70
136
-81
113
285
3
-18
229
120
29
251
211
-3
180
246
-51
-93
111
50
-144
4
32
-211
-145
-88
-296
-241
16
-155
-290
5
-79
-379
-195
281
848
1483
1824
1168
412
381
-48
-475
-276
-203
-360
-177
143
-72
-251
25
23
-222
-28
178
-80
-132
87
-47
-119
145
79
-159
63
210
-72
2
309
81
-94
177
276
80
149
318
123
235
463
241
203
500
566
408
595
800
591
652
983
853
741
1033
1005
756
947
1113
761
618
791
574
333
472
359
82
248
330
-45
-94
205
28
-197
67
82
-173
-32
43
-200
-110
105
-101
-192
86
100
-101
-83
-19
-180
-144
159
-35
-249
48
70
-184
-91
84
-132
-187
107
-67
-308
-15
70
-227
-147
0
-221
-169
-12
-174
-256
-8
-5
-275
-65
-6
-326
-231
7
-181
-333
-45
-55
-309
-118
-12
-261
-230
15
-115
-328
-122
-21
-238
-209
-38
-195
-257
-19
-120
-291
-33
-60
-327
-112
34
-231
-236
-57
-224
-320
-57
-50
-319
-207
-38
-268
-272
-17
-138
-265
88
146
-197
13
213
-146
-150
192
65
-103
125
74
-171
-10
135
-172
-175
149
-212
-465
-54
-87
-421
-268
-76
-292
-324
-79
-276
-436
-146
-172
-8
977
1615
1476
956
329
-69
-231
-108
-286
-563
-268
-179
-306
-68
-24
-302
-301
-33
-81
-329
-161
-16
-264
-213
26
-163
-181
82
-79
-290
-64
64
-174
-118
246
80
-183
46
37
-131
85
183
-7
168
409
199
180
451
466
325
539
758
491
559
855
650
585
881
825
503
600
672
313
298
452
109
-82
121
25
-204
-103
-77
-312
-248
-47
-263
-380
-131
-189
-365
-165
-89
-344
-325
-97
-230
-291
-58
-188
-382
-108
-40
-272
-168
-43
-237
-307
-82
-100
-320
-159
-26
-219
-214
-89
-295
-363
-65
-116
-363
-163
-53
-316
-216
3
-235
-348
-59
-115
-337
-108
-104
-387
-273
53
-140
-424
-167
-135
-320
-179
-104
-330
-267
-43
-237
-307
-75
-115
-261
-162
-115
-364
-268
9
-279
-382
-52
-107
-410
-232
-59
-330
-273
-25
-185
-187
112
27
-150
55
154
-3
-17
132
41
-56
174
129
-107
123
183
-174
-98
63
-194
-295
-52
-121
-363
-170
-72
-284
-190
-36
-251
-298
-100
-254
-223
655
1447
1514
1195
687
138
-179
-103
-279
-563
-259
-23
-258
-156
150
-156
-280
42
-46
-229
7
70
-178
-99
115
-77
-193
70
57
-116
24
122
-16
-23
90
-17
-50
231
208
-27
177
322
121
253
502
306
292
660
689
491
589
769
597
661
949
759
726
1010
896
626
764
784
441
415
524
310
86
167
108
-121
20
108
-216
-152
150
-216
-348
3
-125
-320
-81
37
-220
-181
28
-181
-233
13
-26
-222
-59
21
-264
-64
137
-233
-268
98
-14
-308
-59
33
-241
-102
119
-165
-243
70
-38
-249
-48
-1
-243
-175
26
-140
-264
-38
-92
-311
-103
-27
-275
-161
49
-130
-210
-87
-159
-274
-141
-51
-215
-214
-68
-226
-292
-33
-89
-303
-77
-9
-320
-139
64
-272
-235
68
-72
-244
-131
-83
-262
-185
28
-161
-227
9
-115
-233
-5
-43
-261
-112
116
-121
-134
241
88
-122
128
166
-71
57
275
71
-2
241
147
-117
88
203
-145
-120
116
-123
-272
-27
-121
-350
-98
-25
-292
-179
-6
-216
-212
6
-154
197
1301
1737
1357
845
430
-21
-251
-138
-318
-425
-84
20
-202
-134
72
-83
-171
41
-41
-218
1
69
-125
-105
12
-116
-117
95
-21
-168
55
150
-48
-21
106
-50
-24
238
133
22
314
300
-24
168
461
392
367
562
571
412
645
779
605
757
967
801
774
957
792
612
769
722
393
413
531
177
40
349
96
-219
56
62
-213
-111
47
-184
-181
57
-121
-263
-49
5
-219
-138
74
-148
-227
14
-88
-277
-42
62
-197
-149
55
-140
-185
103
18
-256
-135
-36
-250
-137
21
-233
-262
28
-61
-332
-127
-10
-258
-167
-9
-209
-135
39
-162
-306
-102
-62
-316
-140
52
-232
-256
-3
-154
-312
-64
-46
-254
-148
38
-215
-327
-27
-86
-293
-150
-101
-303
-108
27
-312
-268
-14
-177
-296
-57
-71
-271
-65
11
-246
-207
-23
-146
-291
-109
-31
-175
-37
173
8
-63
134
27
-78
172
213
-50
44
222
-55
-26
210
-62
-140
100
-108
-338
-109
-26
-307
-232
12
-201
-326
-49
-26
-389
-292
-91
-176
558
1509
1663
1451
745
112
-149
-264
-192
-450
-452
-59
-119
-277
-16
-14
-274
-40
76
-251
-219
51
-106
-181
92
37
-168
-71
63
-54
-60
146
30
-133
132
195
17
175
232
0
74
393
292
109
388
468
302
454
664
518
504
814
739
616
875
940
800
858
941
727
672
904
638
298
496
433
110
209
283
3
-62
128
26
-194
17
69
-237
-104
71
-180
-185
100
-59
-274
-1
48
-249
-108
93
-182
-106
190
-19
-186
14
1
-238
-77
107
-125
-116
164
9
-181
4
33
-129
-64
86
-130
-162
75
-127
-257
11
-1
-214
-67
44
-179
-164
69
-66
-219
-4
-24
-237
-59
130
-144
-238
-13
-172
-174
42
-145
-313
-151
-15
-248
-223
163
-76
-356
-97
-120
-229
-72
-74
-302
-266
7
-163
-343
-38
29
-285
-184
20
-265
-255
29
-175
-258
37
-18
-180
60
200
-51
-49
155
42
-4
243
190
-15
136
196
-24
-106
21
-145
-297
10
-18
-362
-237
-91
-292
-204
-33
-255
-357
-52
-70
-388
-276
179
764
1397
1691
1135
264
65
-33
-437
-433
-303
-445
-287
17
-154
-307
-70
-114
-333
-114
11
-248
-240
45
-48
-309
-35
18
-294
-54
51
-287
-179
143
-62
-262
102
183
-129
11
114
-59
94
233
96
143
343
318
178
404
629
460
508
701
574
533
817
815
584
724
804
494
474
625
322
90
240
170
-45
22
37
-150
-116
14
-184
-308
-95
-186
-410
-202
-79
-351
-298
-30
-232
-280
-37
-76
-238
-214
-116
-262
-253
-25
-167
-319
-114
-164
-397
-174
-31
-352
-344
-60
-220
-411
-187
-196
-401
-241
-152
-343
-293
-145
-310
-357
-145
-164
-391
-259
-51
-364
-356
-83
-302
-352
-84
-169
-361
-187
-86
-257
-275
-135
-225
-352
-156
-149
-376
-167
46
-289
-352
-74
-227
-302
-66
-102
-284
-153
-67
-334
-224
19
-256
-338
-16
12
-164
82
209
-131
-87
143
-32
-76
204
191
-115
17
227
-85
-104
154
-83
-328
-104
-121
-348
-96
-30
-310
-263
-127
-281
-357
-132
-172
-434
-314
199
768
1318
1675
1055
99
92
11
-499
-410
-270
-466
-312
-39
-219
-329
-56
-88
-316
-122
-32
-285
-176
172
-43
-376
-103
-41
-261
-70
71
-166
-114
131
-19
-134
50
62
-104
69
295
42
-5
389
291
98
359
377
305
525
585
427
543
821
657
576
924
819
560
798
851
556
576
659
316
179
377
207
-103
57
106
-163
-94
5
-210
-259
-5
-103
-276
22
-27
-372
-226
-14
-177
-209
-1
-139
-213
54
-76
-336
-175
5
-173
-241
12
-65
-278
-86
-1
-201
-194
-10
-7
-183
-147
-176
-327
-137
-93
-337
-249
-37
-222
-318
-44
-132
-407
-167
25
-223
-215
20
-206
-295
-50
-168
-241
-65
-116
-318
-199
-20
-212
-294
-28
-21
-215
-131
-106
-295
-172
23
-244
-286
12
-116
-299
-57
-17
-339
-149
151
-252
-356
14
-84
-245
-42
-46
-294
-184
51
-149
-234
44
27
-104
106
205
-41
40
291
33
-36
326
228
-48
110
175
-44
30
257
-34
-283
14
-44
-282
-66
-15
-274
-151
44
-246
-286
52
-88
-353
-190
68
582
1417
1906
1329
404
232
81
-256
-263
-278
-401
-188
67
-150
-182
109
-37
-254
52
144
-211
-151
71
-134
-162
113
12
-182
43
147
-86
37
214
18
-26
138
65
-55
198
278
40
145
392
232
150
467
488
313
541
645
469
638
913
828
683
871
927
708
817
895
610
600
738
457
277
432
245
12
206
105
-215
-61
92
-182
-249
-19
-140
-326
-103
-29
-265
-237
-64
-229
-181
85
-197
-372
-68
-15
-229
-107
32
-200
-209
56
-97
-306
7
24
-250
-104
-27
-282
-271
-20
-73
-302
-169
-62
-314
-171
69
-255
-337
-42
-169
-294
-45
-63
-313
-193
-8
-265
-313
23
-108
-364
-78
-27
-329
-99
71
-258
-324
-110
-186
-340
-84
-3
-319
-249
-35
-199
-232
-38
-104
-271
-74
2
-305
-210
89
-140
-275
-38
-62
-202
-79
-67
-290
-187
52
-50
-136
90
121
-32
168
186
-99
71
317
92
59
364
178
-93
235
257
-167
-50
116
-201
-225
-12
-138
-256
-66
-70
-323
-147
59
-259
-270
132
-203
-361
735
1491
1518
1425
782
62
-53
0
-302
-516
-158
-37
-281
-110
74
-165
-200
55
-55
-139
58
-61
-286
-101
104
-124
-163
109
45
-136
25
102
-88
13
209
21
-59
297
291
-113
69
284
52
210
502
296
256
557
457
393
717
728
529
726
962
781
776
1081
879
556
848
853
374
412
555
211
108
304
117
-87
94
52
-194
-33
57
-222
-204
67
-32
-251
-19
48
-347
-184
95
-245
-216
105
-102
-269
20
49
-268
-127
84
-189
-163
102
-36
-162
-14
-18
-266
-115
137
-193
-203
106
-121
-274
45
43
-307
-103
173
-142
-171
159
-70
-259
32
-50
-278
4
138
-210
-161
104
-86
-168
60
-14
-196
9
112
-202
-193
167
1
-193
90
11
-277
-99
91
-141
-128
111
-74
-158
85
66
-127
-1
123
-165
-188
172
56
-234
51
105
-223
-66
141
-39
15
285
181
3
129
187
7
157
345
97
133
368
115
-102
176
204
-80
57
101
-210
-138
47
-135
-279
-45
1
-309
-132
50
-254
-139
-28
-123
550
1427
1678
1324
730
316
-87
-241
-111
-397
-429
-87
-123
-141
-65
-76
-320
-363
-33
-117
-254
12
27
-241
-134
-14
-208
-70
74
-144
-111
74
-47
-227
-22
116
-166
-122
168
14
-131
175
328
72
103
261
148
300
473
318
344
594
627
484
632
800
565
599
886
645
392
573
545
297
293
242
-76
-73
181
-107
-278
55
-107
-405
-186
-86
-296
-282
-134
-297
-287
24
-231
-445
-123
-141
-416
-301
5
-200
-418
-106
-106
-313
-134
-106
-352
-278
-90
-131
-159
-182
-244
-345
-223
-57
-331
-351
-38
-239
-397
-80
-86
-377
-284
-130
-332
-296
-85
-210
-315
-125
-187
-492
-255
-58
-314
-241
-52
-283
-440
-184
-171
-429
-275
-105
-353
-358
-49
-198
-400
-36
-75
-456
-246
-112
-365
-258
-58
-331
-386
-74
-190
-434
-267
-153
-351
-266
-12
-165
-243
79
215
-196
-260
19
-120
-49
188
-43
-135
69
-57
-164
-37
-70
-311
-303
-70
-233
-429
-219
-146
-358
-288
-171
-379
-314
-83
-330
-510
93
871
1235
1519
1173
175
-45
41
-359
-557
-310
-314
-405
-75
-75
-295
-240
-137
-242
-324
-87
-94
-303
-99
15
-239
-165
13
-191
-317
-56
81
-175
-133
76
-109
-153
75
-20
-153
132
166
-103
95
309
119
165
491
383
195
500
548
406
708
829
525
616
906
696
552
762
662
353
483
605
136
-39
170
-5
-98
38
-84
-302
-121
11
-289
-330
-49
-151
-384
-131
-145
-389
-161
-68
-305
-239
34
-127
-348
-173
-85
-189
-127
-71
-233
-183
45
-132
-272
-40
-108
-294
-84
-7
-271
-211
55
-143
-296
-65
-46
-243
-122
3
-297
-234
18
-231
-292
1
-104
-222
-6
-84
-325
-205
3
-205
-286
-6
-95
-157
39
-146
-401
-217
-32
-153
-223
-86
-118
-322
-139
-13
-280
-221
16
-176
-264
0
-102
-344
-29
118
-330
-269
88
-220
-344
3
-94
-272
-50
69
-39
58
221
65
-38
117
93
24
219
208
-81
42
253
-37
-123
99
-70
-301
-62
14
-222
-106
-46
-258
-225
-47
-120
-306
-88
-2
-406
-208
610
1173
1530
1583
776
38
82
-30
-356
-367
-207
-239
-213
34
-31
-202
-20
19
-228
-67
146
-176
-269
94
-19
-285
45
143
-141
-75
126
-46
-126
152
62
-72
177
161
-53
69
280
100
73
368
277
150
436
529
309
429
752
688
525
684
745
659
854
934
692
723
851
617
458
550
353
127
321
215
-153
-31
150
-104
-187
39
-47
-272
-168
-55
-244
-207
16
-146
-267
-63
-114
-320
-73
13
-302
-166
72
-163
-218
31
-111
-319
-46
69
-215
-2
160
-281
-308
-57
-141
-257
-114
-107
-307
-154
7
-241
-304
-64
-60
-280
-176
-69
-298
-206
-3
-149
-165
-57
-231
-363
-110
-45
-306
-173
-18
-221
-235
-71
-211
-348
-137
-150
-359
-212
14
-231
-333
-63
-169
-275
-82
-44
-173
-203
-80
-209
-260
-2
-98
-292
-49
11
-284
-170
20
-205
-241
-11
-116
-263
8
24
-310
-135
37
-248
-212
98
47
-55
184
201
-62
38
232
70
46
297
185
-66
154
150
-108
121
226
-162
-279
-11
-109
-338
-111
-55
-276
-173
-50
-246
-286
-55
-174
-375
77
858
1403
1688
1331
365
-11
108
-232
-556
-308
-172
-328
-90
120
-207
-264
-7
-93
-210
-43
25
-144
-127
-19
-190
-177
87
-31
-138
99
42
-175
17
178
-30
-35
233
129
-30
232
282
56
197
374
189
199
545
557
286
493
694
523
693
886
742
776
951
811
645
854
834
528
598
639
329
259
347
109
-70
151
116
-197
-79
80
-189
-230
47
-96
-267
-12
-47
-280
-105
53
-132
-196
-16
-104
-260
-37
-45
-265
-46
90
-87
-45
13
-144
-237
-31
46
-262
-129
174
-158
-266
34
-97
-226
24
-51
-300
-116
36
-193
-216
26
-97
-257
-62
34
-180
-208
-48
-186
-206
22
-108
-287
-63
-44
-277
-125
-8
-200
-85
49
-158
-261
-77
-29
-254
-139
58
-198
-194
95
-105
-258
6
-10
-193
-55
1
-237
-177
58
-100
-224
-5
4
-232
-69
94
-153
-138
182
81
-79
243
205
-103
39
257
116
90
293
76
-65
231
186
-26
177
209
-214
-167
186
-102
-334
-25
-61
-347
-132
5
-250
-158
5
-219
-357
95
820
1267
1677
1576
586
134
197
-168
-355
-208
-237
-281
-2
86
-144
-115
91
-58
-217
77
122
-31
130
94
-207
-110
170
-24
-156
132
139
-76
89
218
-19
92
337
104
-26
238
273
100
285
474
292
297
583
503
387
720
734
498
744
972
756
723
952
886
777
879
711
399
557
595
272
239
302
77
-21
180
7
-298
-100
31
-254
-242
-17
-112
-184
-103
-226
-400
-177
23
-178
-227
-20
-209
-341
-59
-107
-322
-162
-43
-288
-263
-22
-207
-344
-76
-117
-360
-104
53
-280
-354
-137
-239
-357
-161
-107
-263
-233
-151
-323
-328
-121
-207
-307
-127
-183
-433
-206
-63
-335
-251
-127
-357
-372
-126
-183
-395
-176
-51
-456
-394
-51
-305
-434
-132
-189
-475
-283
-72
-324
-296
-51
-287
-438
-84
-42
-427
-284
-11
-266
-333
-109
-229
-363
-127
-145
-355
-189
-61
-222
-272
-162
-252
-332
-108
-141
-306
-140
-56
-141
-54
78
-70
-190
39
114
-56
11
90
-138
-102
142
-39
-215
-28
-60
-312
-186
-143
-392
-272
-114
-318
-379
-139
-191
-433
-193
-26
-400
-292
627
1235
1392
1388
712
-88
-136
-136
-457
-489
-307
-320
-265
-42
-159
-336
-150
-96
-312
-192
72
-197
-330
-43
-70
-263
-135
-13
-222
-173
105
-89
-230
57
-14
-123
150
86
-225
-103
174
88
49
252
207
35
264
437
229
346
643
475
392
704
692
495
761
850
502
568
776
488
289
483
382
59
109
198
-75
-165
28
-206
-386
-116
-180
-376
-124
-55
-410
-323
-74
-330
-382
-109
-141
-329
-234
-98
-268
-235
-22
-240
-354
-64
-102
-316
-141
-42
-228
-245
-157
-277
-325
-65
-98
-341
-118
-107
-359
-196
-77
-303
-376
-100
-173
-384
-151
-65
-314
-257
-11
-196
-336
-104
-184
-382
-153
-46
-295
-236
-28
-205
-380
-123
-135
-404
-139
-125
-426
-249
-56
-270
-357
-105
-145
-313
-138
-51
-267
-247
-83
-183
-198
-73
-160
-312
-144
-11
-221
-228
-90
-241
-249
-13
-67
-156
115
157
-119
-86
100
6
-39
201
104
-100
70
39
-127
14
121
-134
-272
-38
-68
-315
-106
-7
-356
-236
-17
-285
-329
-77
-116
-326
-31
758
1288
1578
1376
462
25
110
-167
-522
-353
-150
-308
-180
47
-97
-157
-15
-84
-255
-62
45
-183
-96
164
-20
-191
62
29
-181
45
122
-119
30
203
-15
-76
171
122
-53
268
304
-50
142
462
324
285
546
496
372
611
711
559
652
929
812
631
874
852
613
800
834
515
535
630
332
164
332
262
-38
11
54
-181
-36
91
-209
-261
16
-57
-314
-117
-19
-239
-160
-55
-216
-182
100
20
-238
41
142
-225
-162
42
-151
-187
55
-12
-195
2
46
-250
-139
70
-144
-217
46
-7
-236
-49
-7
-271
-128
60
-180
-254
78
30
-321
-121
22
-256
-143
91
-140
-246
-65
-116
-259
-46
61
-233
-198
30
-87
-197
-42
-90
-295
-99
45
-227
-200
32
-196
-281
5
-84
-284
-81
-15
-252
-109
73
-238
-292
10
-110
-297
-18
66
-82
121
215
-51
-61
153
76
-21
222
214
-87
56
246
-21
-87
149
-29
-248
26
-8
-368
-217
-37
-288
-290
25
-128
-382
-119
-49
-332
-290
60
522
1261
1809
1327
397
187
114
-302
-340
-244
-403
-308
36
-41
-276
-51
-18
-296
-130
72
-167
-185
8
-100
-164
-9
-25
-187
-68
93
-142
-160
135
-5
-113
145
83
-147
15
195
-5
59
433
265
47
394
508
290
408
617
510
481
752
729
571
862
936
622
770
915
568
501
656
428
196
322
263
-31
28
189
-16
-174
-63
-148
-311
-101
-40
-319
-205
13
-209
-271
-28
-82
-263
-161
-49
-234
-197
-8
-264
-296
51
-64
-305
-27
13
-338
-200
16
-237
-271
49
-125
-391
-116
-49
-259
-189
-73
-267
-301
-54
-175
-340
-50
-17
-264
-166
-29
-180
-257
-38
-108
-292
-77
-41
-305
-249
-8
-153
-223
-6
-134
-289
-63
43
-198
-222
-48
-216
-245
15
-119
-340
-102
-13
-278
-164
3
-223
-246
6
-34
-292
-131
-35
-283
-120
89
-184
-279
-12
-61
-229
-14
23
-220
-23
219
40
-51
118
25
-134
216
330
-39
63
232
-27
11
205
-19
-181
67
-24
-371
-177
-6
-306
-277
-4
-209
-374
-77
-73
-374
-208
-71
16
793
1663
1736
949
335
124
-295
-348
-215
-446
-362
-21
-91
-195
15
-23
-283
-161
34
-100
-171
2
-28
-265
-73
77
-199
-118
73
-120
-116
116
-11
-171
64
125
-67
56
181
-29
15
325
241
57
332
510
274
337
577
416
462
796
696
636
873
811
600
745
902
654
602
760
496
250
404
335
12
106
247
-128
-191
187
-57
-384
-92
-50
-325
-124
31
-293
-287
-70
-206
-312
-81
-32
-255
-180
1
-159
-230
-37
-141
-271
-47
-24
-234
-91
17
-259
-236
37
-99
-302
-86
-17
-251
-188
24
-193
-324
-56
-175
-342
-69
-67
-330
-210
-96
-310
-247
43
-174
-333
24
-124
-416
-40
56
-382
-327
-11
-182
-323
-67
-68
-314
-168
-19
-239
-274
-31
-149
-310
-79
-89
-295
-134
4
-270
-276
14
-143
-315
-26
-63
-337
-164
-1
-189
-236
-23
-173
-347
-37
19
-268
-111
237
-42
-148
234
55
-164
180
245
-32
63
242
84
7
159
32
-129
17
-24
-225
-130
16
-247
-389
-115
-155
-269
-60
-110
-356
-178
-46
-382
51
1185
1546
1446
1164
401
-200
-196
-145
-509
-518
-165
-229
-262
-45
-110
-271
-87
64
-243
-254
35
-216
-320
-23
-55
-251
-81
28
-192
-144
64
-91
-208
72
46
-147
101
131
-118
5
221
78
-5
343
358
45
315
526
259
336
630
624
628
777
707
532
765
936
553
520
743
471
291
455
303
52
133
134
-78
-151
-43
-184
-320
-92
-115
-358
-212
-78
-315
-314
-82
-294
-417
22
-84
-434
-158
-103
-354
-277
-112
-251
-327
-123
-116
-307
-213
-84
-310
-280
5
-242
-431
-136
-201
-426
-209
-116
-372
-339
-91
-234
-401
-143
-127
-415
-186
-29
-434
-363
-76
-287
-374
-120
-201
-416
-144
-51
-392
-355
-90
-253
-385
-81
-139
-407
-193
-106
-343
-297
-98
-267
-370
-109
-151
-353
-163
-73
-299
-300
-47
-124
-374
-165
-98
-387
-235
-44
-283
-207
95
-54
-138
82
9
-252
-20
227
-8
26
153
-121
-218
51
36
-232
-124
20
-274
-339
-84
-243
-385
-105
-181
-442
-229
-110
-356
-335
-173
-262
202
1245
1554
1196
777
261
-174
-257
-193
-408
-508
-231
-151
-287
-108
2
-258
-267
-39
-143
-268
42
75
-290
-57
141
-315
-258
96
-58
-90
140
34
-185
33
160
-134
-29
266
112
69
263
184
55
362
498
214
369
658
500
464
774
795
627
825
910
728
827
957
734
595
781
642
312
424
460
140
88
272
74
-141
104
52
-248
-67
80
-134
-129
-19
-258
-279
31
-72
-317
-115
18
-206
-148
127
-48
-153
150
117
-87
65
162
-37
37
185
-124
-225
56
-16
-208
-14
82
-148
-108
73
-102
-232
-62
-91
-273
-89
-43
-390
-15
1018
1376
1337
1132
383
-57
15
-79
-417
-352
69
-79
-235
75
20
-250
-102
24
-211
-161
122
-68
-240
2
-25
-223
-55
172
-76
-148
148
12
-25
142
31
-76
71
186
2
91
345
180
107
391
401
246
431
597
474
548
812
681
623
920
812
617
808
792
438
413
553
339
123
125
33
-157
-30
51
-235
-194
1
-241
-351
-116
-147
-326
-178
-128
-332
-215
-57
-282
-359
-66
-127
-393
-173
-71
-326
-252
-71
-246
-268
-76
-199
-380
-170
-44
-343
-309
-65
-263
-342
-96
-198
-413
-171
-80
-310
-218
-73
-284
-327
-63
-155
-318
-108
-136
-313
-232
-109
-248
-354
-98
-141
-359
-153
-80
-303
-199
-30
-249
-291
-29
-75
-329
-194
-56
-285
-250
-34
-191
-287
-40
-87
-312
-145
-15
-265
-263
-61
-167
-217
-52
-93
-289
-101
-27
-329
-203
20
-215
-286
6
-74
-353
-148
-43
-283
-195
54
-118
-319
-122
-122
-316
-131
47
-176
-235
-47
-212
-321
-41
-122
-378
-83
65
-293
-222
17
-216
-269
15
-71
-290
-88
-3
-244
-205
42
-142
-297
60
13
-296
-113
-66
-295
-163
42
-177
-258
27
-41
-229
42
134
-33
27
166
119
7
164
137
-33
143
127
-123
-52
109
-56
-124
79
-61
-293
-36
62
-246
-179
26
-121
-127
26
-164
-319
324
1183
1470
1579
1244
353
-21
83
-158
-452
-257
-54
-204
-94
147
-149
-265
52
-22
-214
5
116
-147
-124
93
-94
-145
153
56
-158
129
235
-106
-75
153
-43
-79
219
128
-59
145
246
59
187
485
271
163
490
490
374
583
633
494
709
890
657
679
977
875
662
836
859
551
568
677
408
246
391
237
18
190
98
-180
-9
150
-104
-133
107
-35
-214
3
21
-199
-85
123
-92
-275
29
52
-194
19
84
-150
-32
72
-138
-129
108
-43
-274
-15
120
-192
-158
102
-131
-254
53
-25
-228
16
-4
-309
-146
30
-184
-161
27
-126
-291
-93
9
-222
-193
13
-194
-274
3
-77
-266
-81
-18
-269
-158
106
-153
-286
16
-92
-276
-14
-11
-261
-150
74
-116
-205
79
-12
-200
-19
0
-185
-124
54
-128
-229
43
-57
-231
-10
-18
-223
-82
112
-80
-88
324
203
-133
87
204
46
102
257
97
-28
195
184
-38
91
148
-107
-73
26
-194
-247
15
-80
-301
-78
-40
-251
-142
5
-227
-284
-80
153
856
1623
1732
1060
401
225
-101
-310
-225
-365
-442
-120
-6
-245
-146
45
-133
-240
-7
-52
-309
-55
91
-184
-179
-22
-166
-182
67
-26
-104
139
14
-243
-26
200
-23
-76
223
137
5
249
262
113
289
452
355
340
535
524
419
686
779
608
723
882
743
688
885
738
481
658
604
246
251
415
166
-124
81
25
-232
-4
10
-299
-174
-8
-274
-305
-28
-163
-358
-101
-44
-308
-239
-67
-236
-250
13
-120
-334
-107
-86
-203
-72
-101
-311
-268
32
-130
-405
-139
-80
-345
-199
-9
-237
-271
-85
-191
-327
-122
-114
-305
-112
-78
-341
-291
-3
-114
-379
-156
-74
-320
-193
-5
-251
-285
-47
-203
-336
-40
-29
-371
-279
-59
-282
-291
-3
-142
-340
-99
-59
-338
-186
6
-289
-322
-68
-131
-241
-152
-116
-229
-84
129
-106
-147
129
-7
-192
51
149
-104
-26
135
-25
-58
28
-110
-289
-97
-75
-344
-235
-114
-337
-375
-125
-188
-417
-224
-141
-422
-350
-218
-180
567
1420
1495
993
432
74
-276
-306
-237
-559
-509
-120
-216
-357
-104
-73
-304
-171
-21
-284
-313
-60
-165
-319
-42
-8
-302
-148
84
-130
-186
72
-53
-230
47
185
-79
-48
180
2
-22
286
255
49
273
447
236
355
638
439
377
758
726
510
833
902
585
720
891
647
532
681
474
220
392
316
-20
23
148
-154
-181
138
-149
-374
-75
-109
-366
-237
-51
-254
-309
-52
-158
-336
-78
-25
-270
-142
51
-138
-245
-37
-99
-278
-12
2
-290
-132
32
-176
-205
16
-73
-291
-121
-31
-284
-233
22
-202
-323
-16
-156
-380
-120
-61
-285
-222
-77
-276
-273
10
-167
-352
-82
-54
-381
-274
-38
-290
-319
-51
-190
-375
-141
-65
-280
-189
-34
-271
-321
-66
-171
-332
-74
-23
-312
-199
-50
-287
-319
-82
-166
-351
-84
-25
-338
-175
12
-247
-278
-51
-69
-231
-36
152
-51
-29
149
-48
-129
155
127
-69
150
230
-100
-21
243
-50
-178
118
-84
-356
-71
-46
-322
-190
-49
-270
-283
-50
-154
-309
-80
-157
-392
377
1383
1516
1407
977
162
-164
-54
-172
-458
-325
-111
-175
-149
-18
-113
-205
-7
-33
-205
-64
-16
-224
-190
40
-34
-185
-7
36
-176
-55
105
-107
-128
134
61
-94
155
205
-101
35
232
-17
81
462
391
236
452
524
345
583
777
562
598
875
874
730
890
870
601
662
751
487
357
514
297
23
193
155
-97
20
88
-146
-159
-14
-177
-346
-61
5
-324
-167
67
-209
-279
-4
-100
-299
-67
-15
-283
-158
75
-112
-218
-16
-92
-283
-67
-22
-270
-139
66
-133
-202
-8
-133
-304
-62
-1
-287
-103
82
-300
-312
-8
-118
-333
-137
-38
-292
-198
-28
-262
-230
8
-190
-313
-81
-50
-253
-194
-53
-216
-236
17
-78
-312
-120
-73
-291
-149
-9
-250
-184
60
-128
-308
-160
-98
-302
-214
-30
-251
-241
0
-145
-257
-65
-101
-296
-119
103
-170
-291
75
94
-94
108
145
-141
0
260
36
-5
297
123
-104
163
157
-124
-59
55
-164
-194
6
-144
-323
-63
-19
-321
-196
-42
-283
-252
-15
-272
-453
311
1216
1414
1494
1148
234
-29
39
-312
-536
-267
-134
-306
-115
69
-240
-278
8
-133
-298
-8
17
-263
-123
93
-98
-156
61
-48
-235
11
93
-196
-50
146
-73
-45
161
49
-50
214
264
77
229
392
213
284
509
330
334
645
664
483
660
906
676
655
983
852
611
765
732
399
488
613
205
87
305
79
-156
54
59
-227
-128
64
-188
-236
27
-146
-295
-40
-24
-221
-168
-33
-235
-241
54
-137
-322
-10
-21
-324
-159
29
-188
-207
44
-126
-281
20
-42
-332
-161
31
-201
-218
36
-172
-342
-41
-29
-317
-213
-43
-158
-200
-114
-219
-333
-114
-66
-261
-152
-21
-222
-251
-41
-146
-297
-73
-44
-323
-163
70
-232
-295
22
-116
-298
-32
-59
-304
-111
30
-234
-235
24
-110
-262
-55
-27
-254
-181
-26
-234
-206
61
-117
-308
-56
-24
-247
-89
36
-160
-174
63
-32
-150
134
134
-102
63
253
-21
-58
281
205
8
180
170
-53
90
211
-74
-140
101
-41
-249
-28
-40
-342
-201
-16
-217
-224
-21
-154
-319
-72
-113
-219
665
1569
1570
1268
825
187
-188
-79
-169
-514
-302
11
-160
-115
84
-118
-278
-19
165
-158
-197
72
-146
-163
194
21
-196
84
127
-135
-17
214
-13
-59
217
121
26
195
156
92
262
309
157
236
457
350
259
573
651
440
621
809
620
687
972
852
702
913
953
673
695
803
494
380
496
225
10
207
160
-144
-18
131
-166
-207
38
-143
-328
-52
10
-297
-202
-25
-269
-278
-38
-106
-288
-121
-21
-280
-182
37
-226
-263
5
-109
-226
-29
-71
-285
-82
67
-280
-289
23
-140
-305
-30
-62
-312
-97
5
-262
-256
25
-91
-386
-181
-55
-303
-239
-36
-247
-313
-35
-133
-350
-137
-73
-269
-188
-50
-200
-298
-76
-154
-386
-134
-48
-353
-270
-44
-258
-298
-66
-182
-318
-146
-73
-240
-216
-96
-318
-317
-27
-156
-320
-77
-65
-370
-272
-58
-261
-263
54
-11
-157
126
165
-202
-125
133
4
-20
200
58
-136
78
119
-117
-93
52
-212
-336
-47
-153
-356
-151
-85
-245
-216
-165
-335
-291
-67
-236
-395
218
1043
1384
1600
1267
311
-53
53
-227
-485
-228
-158
-379
-164
70
-203
-251
43
-105
-334
-62
40
-221
-35
103
-230
-186
87
-34
-85
88
6
-168
-48
156
4
-81
148
81
-64
152
185
1
201
450
240
188
537
481
362
639
635
472
679
870
679
638
884
789
612
766
678
377
418
487
206
76
233
86
-175
24
101
-264
-211
28
-232
-322
-56
-180
-352
-77
-15
-319
-231
2
-230
-287
7
-121
-329
17
21
-349
-159
26
-209
-223
8
-104
-291
-67
-17
-273
-172
24
-183
-231
11
-149
-322
-43
28
-225
-199
-100
-314
-305
-21
-150
-366
-141
-81
-316
-204
-22
-276
-299
4
-136
-292
-112
-107
-277
-239
-92
-265
-353
-92
-169
-375
-105
-48
-352
-225
-38
-268
-304
-31
-86
-235
-92
-117
-335
-200
50
-153
-229
107
14
-157
141
152
-139
-12
217
54
3
219
166
-58
113
205
-150
-95
101
-154
-188
-9
-118
-255
-101
-55
-283
-153
28
-227
-258
-11
-172
-319
486
1352
1506
1521
969
103
-31
65
-252
-470
-193
-57
-197
-42
75
-146
-157
45
-42
-161
10
11
-201
-28
147
-146
-146
180
24
-164
113
136
-136
17
230
13
-22
268
211
-1
226
303
61
240
447
253
270
575
541
435
688
752
582
782
1000
752
699
968
856
681
799
719
428
437
548
239
66
283
132
-134
73
87
-210
-74
73
-224
-206
93
-113
-337
-60
10
-222
-147
-27
-244
-255
20
-35
-239
-78
2
-228
-140
53
-184
-201
127
-90
-294
0
-15
-275
-139
68
-158
-222
42
-85
-281
-56
15
-207
-153
37
-173
-259
-2
-61
-224
-77
-22
-253
-128
110
-154
-240
28
-78
-241
-12
10
-213
-83
39
-193
-197
24
-95
-207
54
20
-267
-175
39
-127
-259
-17
-68
-237
-41
-11
-224
-99
50
-157
-179
41
-11
-204
-44
38
-233
-166
84
-66
-130
178
135
-81
170
211
-100
35
303
133
22
276
241
-95
83
251
-101
-71
135
-162
-219
82
-87
-313
-69
-49
-314
-216
-23
-196
-311
-50
-145
-339
448
1307
1488
1521
1002
140
-85
11
-209
-475
-287
-129
-279
-112
96
-169
-232
78
2
-250
-49
19
-236
-131
85
-82
-182
59
6
-145
112
133
-148
-13
208
-6
2
329
130
-92
261
339
77
234
446
263
304
594
501
395
692
819
586
765
1082
763
682
1039
938
706
830
778
492
534
578
285
167
340
173
-63
72
21
-154
0
128
-167
-249
37
-61
-280
-49
34
-232
-115
81
-148
-122
104
-45
-186
15
62
-118
-36
58
-155
-194
97
-9
-266
-52
29
-210
-109
65
-186
-233
20
-75
-259
-77
34
-193
-184
7
-147
-255
-14
-37
-289
-60
92
-222
-164
47
-176
-239
40
-39
-272
-25
33
-292
-127
75
-181
-206
38
-62
-228
-10
37
-215
-142
38
-157
-242
4
-63
-284
-1
126
-267
-221
64
-152
-250
38
-65
-271
-39
15
-165
-131
10
-94
-151
148
114
-60
192
152
-135
53
290
79
35
261
103
-89
133
157
-148
-66
77
-168
-219
-20
-131
-233
-22
-75
-290
-184
-30
-199
-228
-49
-174
210
1319
1818
1515
967
481
83
-202
-88
-233
-520
-133
59
-219
-97
129
-81
-182
61
17
-179
14
112
-162
-71
167
-33
-45
109
-58
-183
55
149
-90
-7
238
64
-49
225
192
18
276
368
126
235
463
391
397
599
558
430
713
866
685
788
979
782
760
1023
846
596
723
695
352
364
550
194
-38
205
77
-168
12
40
-225
-165
48
-123
-264
-66
-124
-321
-110
-53
-322
-186
101
-209
-341
-23
-113
-311
-71
39
-274
-218
9
-224
-296
-10
-114
-358
-130
-33
-269
-202
-24
-274
-355
-67
-170
-350
-147
-122
-347
-204
19
-250
-357
-62
-184
-378
-152
-68
-314
-313
-121
-274
-311
-112
-198
-369
-185
-109
-357
-281
-112
-288
-361
-143
-204
-385
-140
-45
-357
-307
-49
-260
-356
-78
-154
-352
-127
-53
-308
-203
-16
-266
-319
-11
-40
-167
67
111
-176
-111
138
2
-71
180
101
-151
36
139
-117
-68
104
-202
-334
-86
-181
-300
-158
-196
-350
-274
-120
-315
-410
-153
-239
-495
-78
766
1217
1504
1382
388
-165
-18
-240
-554
-421
-234
-374
-330
-77
-236
-332
-77
-137
-356
-165
-80
-349
-306
-64
-174
-237
-33
-132
-307
-90
47
-163
-144
58
-134
-207
76
18
-158
65
218
22
85
340
156
88
414
419
344
548
541
394
606
793
616
607
844
778
534
674
716
387
360
447
170
4
148
90
-111
-101
-71
-268
-252
-78
-291
-385
-159
-241
-425
-185
-78
-394
-320
-59
-328
-391
-15
-186
-453
-178
-119
-288
-214
-75
-212
-344
-115
-147
-367
-184
-127
-367
-275
-41
-196
-257
-84
-209
-382
-208
-136
-373
-288
-66
-291
-391
-73
-115
-404
-216
-102
-351
-260
-82
-259
-283
-93
-224
-411
-213
-97
-316
-302
-77
-265
-386
-98
-167
-387
-182
-66
-288
-301
-103
-274
-366
-52
-138
-359
-168
-146
-348
-237
-73
-267
-338
-65
-97
-355
-141
58
-143
-64
145
-68
-209
96
111
-144
45
152
-132
-87
134
-70
-208
-14
-134
-341
-66
-54
-424
-316
-78
-242
-322
-120
-111
-370
-232
-52
-466
-100
1037
1419
1395
1171
392
-139
-71
-131
-479
-435
-150
-227
-252
-44
-56
-157
-74
-73
-284
-204
55
-148
-274
10
-31
-246
-65
26
-180
-91
105
-90
-126
183
87
-161
58
262
5
-24
267
132
68
401
330
99
379
557
358
465
730
577
511
808
788
620
869
904
575
617
785
518
342
496
305
46
136
84
-178
-106
78
-173
-299
-60
-127
-273
-108
-133
-366
-260
-36
-256
-410
-132
-124
-350
-182
-89
-339
-251
-52
-231
-320
-87
-99
-347
-188
-12
-290
-313
-58
-187
-340
-132
-162
-360
-164
-66
-333
-319
-86
-255
-337
-89
-181
-405
-222
-70
-328
-291
-3
-268
-425
-112
-168
-410
-245
-122
-344
-317
-88
-256
-396
-121
-113
-390
-250
-129
-377
-327
-93
-257
-338
-137
-200
-398
-256
-110
-344
-306
-93
-291
-362
-132
-179
-396
-232
-113
-361
-283
-24
-185
-338
-72
75
-140
-72
105
-133
-184
104
38
-111
128
86
-204
-31
174
-94
-168
61
-215
-420
-118
-142
-402
-245
-94
-316
-307
-109
-247
-388
-143
-166
-454
129
1092
1364
1481
1275
326
-175
-44
-168
-479
-403
-170
-267
-198
35
-164
-282
1
-53
-298
-141
-22
-249
-184
123
-133
-310
58
-17
-289
-52
62
-192
-154
116
10
-142
84
101
-122
89
270
59
115
355
286
204
435
457
303
554
734
549
603
836
738
712
911
862
635
678
741
455
437
510
193
77
225
76
-195
-60
78
-205
-252
-29
-180
-320
-122
-147
-346
-184
-52
-308
-291
5
-172
-323
-98
-163
-330
-182
-101
-285
-218
-28
-223
-349
-124
-96
-334
-230
7
-237
-328
-71
-231
-382
-116
-102
-370
-249
-58
-283
-305
-95
-235
-333
-98
-136
-387
-191
-31
-367
-354
-60
-252
-396
-109
-138
-409
-217
-69
-328
-293
-52
-249
-408
-139
-127
-343
-226
-118
-247
-261
-127
-226
-351
-140
-121
-351
-225
-39
-275
-293
-16
-190
-352
-65
-84
-318
-163
-62
-226
-259
-116
-205
-357
-77
-16
-294
-161
33
-191
-271
12
-61
-260
71
195
-99
25
202
-58
-66
244
152
-70
149
174
-86
54
189
-107
-147
118
-92
-341
-70
-40
-326
-114
94
-273
-321
-8
-170
-360
-98
-128
-58
936
1707
1574
1112
563
66
-172
-97
-238
-544
-271
37
-140
-171
7
-117
-200
7
-47
-269
-116
70
-164
-193
104
-36
-196
73
61
-176
-33
124
-91
-79
237
105
-105
155
230
-7
139
392
147
104
420
336
249
555
619
406
627
898
616
587
882
831
734
866
854
569
597
724
418
279
451
276
-18
112
135
-157
-106
73
-184
-250
57
-134
-381
-87
-37
-306
-166
-6
-245
-233
34
-123
-317
-23
-13
-286
-129
-6
-237
-249
-32
-106
-177
25
-31
-249
-96
22
-183
-176
28
-109
-288
-49
-30
-282
-118
-8
-208
-188
-10
-129
-335
-88
-22
-353
-181
53
-260
-296
1
-132
-332
-111
-77
-267
-137
-33
-253
-244
35
-148
-339
-83
-91
-307
-169
-44
-249
-251
-9
-120
-281
-88
-91
-311
-90
50
-287
-223
-20
-218
-312
-96
-22
-219
-190
-44
-221
-234
37
-6
-134
104
165
-104
26
176
-53
-27
226
88
-137
78
135
-95
-2
58
-218
-260
-31
-125
-343
-108
-60
-345
-203
-64
-294
-293
-67
-227
-399
255
1123
1419
1512
1148
241
-150
-39
-236
-517
-321
-108
-273
-133
90
-195
-231
12
-130
-261
-46
18
-166
-131
17
-152
-191
87
-15
-211
42
149
-178
-110
155
-78
-119
178
107
-70
206
313
-19
90
439
270
188
513
504
443
652
682
588
699
898
757
690
958
868
639
812
792
441
459
578
251
113
363
161
-188
9
49
-271
-186
12
-228
-319
-54
-134
-321
-125
-115
-357
-224
-45
-268
-296
-47
-144
-313
-101
-6
-209
-162
3
-192
-203
32
-163
-331
-86
-37
-279
-143
30
-222
-246
-10
-127
-309
-106
-42
-212
-164
-70
-244
-268
-7
-63
-289
-162
-47
-260
-198
-14
-259
-291
21
-105
-339
-128
-3
-202
-218
-63
-190
-280
-68
-118
-330
-131
-21
-256
-188
4
-216
-298
-29
-113
-309
-93
-37
-289
-159
56
-176
-311
-88
-115
-296
-51
114
-125
-55
183
-40
-126
143
87
-51
163
199
-48
18
187
54
-76
50
-16
-288
-100
45
-284
-244
1
-217
-352
-93
-99
-328
-157
-74
-392
-259
400
951
1406
1633
967
89
47
2
-392
-391
-237
-307
-270
-6
-1
-255
-151
-54
-256
-182
46
-85
-233
15
0
-216
-2
39
-225
-112
121
-71
-134
129
24
-94
164
184
-77
29
341
136
1
341
311
171
467
540
317
461
706
596
578
856
827
631
899
1058
710
656
839
596
440
631
436
96
224
235
-91
-52
151
-85
-201
24
-67
-255
-92
9
-183
-191
-13
-172
-274
-24
-93
-290
-98
-34
-237
-121
37
-211
-260
23
-38
-233
-61
69
-172
-209
29
-134
-259
-8
-74
-281
-105
-24
-279
-188
56
-193
-315
-40
-87
-327
-100
52
-291
-247
27
-218
-335
-56
-122
-342
-89
21
-308
-249
11
-190
-281
-31
-101
-318
-51
79
-329
-278
9
-190
-243
-34
-140
-370
-171
69
-206
-270
-15
-171
-276
-36
-2
-197
-129
-35
-244
-237
-58
-153
-244
-70
-70
-252
-100
30
-181
-95
213
46
-57
265
128
-195
95
279
-6
40
313
73
-116
155
118
-143
-52
-2
-277
-241
14
-226
-289
19
-148
-379
-182
-95
-311
-222
-81
-288
183
1220
1598
1446
1007
329
-74
-133
-204
-480
-490
-93
-101
-339
-132
8
-240
-205
56
-148
-298
-2
-25
-250
-59
50
-141
-76
66
-81
-141
64
62
-117
65
196
-82
-25
259
93
-4
286
289
77
242
490
329
249
535
534
489
763
746
614
814
925
716
756
1017
806
567
765
705
363
382
473
158
24
211
2
-196
53
12
-269
-88
29
-275
-241
-26
-182
-251
-44
-116
-343
-133
31
-222
-261
-51
-168
-314
-39
-36
-318
-120
56
-260
-213
94
-115
-213
-7
-125
-321
-93
9
-285
-233
11
-158
-291
-47
-92
-353
-172
-20
-264
-257
-14
-208
-344
-38
-90
-366
-191
-54
-282
-280
2
-151
-380
-92
-73
-344
-176
-48
-271
-256
10
-111
-314
-97
-154
-354
-120
-18
-280
-208
50
-185
-326
-11
20
-246
-164
-18
-248
-223
26
-151
-253
-7
-56
-269
-64
58
-205
-179
48
-108
-180
101
-39
-293
-85
24
-164
-159
55
-127
-285
-4
0
-207
-13
192
7
23
238
67
-11
299
274
-20
122
176
-120
-52
179
58
-106
51
7
-242
-67
76
-191
-166
105
-66
-141
93
-14
-241
-158
238
776
1439
1942
1421
458
250
108
-217
-203
-217
-375
-199
183
-33
-282
21
56
-179
-80
62
-156
-156
105
-41
-184
79
75
-169
87
208
-158
-120
144
-15
-107
157
133
-82
80
251
59
71
306
191
165
460
399
277
591
654
390
514
819
716
693
929
781
583
833
877
503
491
620
351
133
254
236
-81
-38
82
-206
-175
15
-216
-335
-120
-118
-321
-221
-67
-283
-308
-16
-181
-375
-106
-89
-236
-115
-57
-270
-260
15
-137
-302
0
-34
-360
-136
46
-270
-275
-9
-104
-281
-67
-68
-348
-174
-14
-256
-234
-8
-163
-293
-70
-59
-310
-162
13
-233
-305
-40
-46
-331
-178
-44
-331
-269
-55
-277
-309
-29
-210
-410
-107
-74
-375
-230
-65
-297
-290
-69
-88
-294
-242
-142
-370
-280
-72
-317
-340
-68
-210
-385
-130
-72
-316
-221
-81
-341
-330
-1
-177
-412
-169
-106
-290
-105
125
-85
-145
78
-63
-187
102
93
-168
27
242
-97
-131
131
-123
-296
-28
-77
-364
-212
-98
-357
-347
-56
-225
-416
-105
-96
-397
-278
-70
113
884
1694
1506
693
265
27
-318
-284
-268
-522
-369
-43
-147
-266
-101
9
-121
-208
-89
-218
-233
41
-79
-261
-44
15
-223
-82
118
-123
-149
142
22
-190
85
163
-79
56
271
95
49
314
220
72
368
453
262
432
677
502
466
788
772
628
882
926
707
872
918
617
554
672
488
239
394
367
8
68
217
-95
-182
40
-116
-320
-72
13
-292
-207
-27
-299
-324
-39
-185
-363
-84
-53
-307
-137
-2
-247
-221
21
-116
-268
-55
24
-171
-136
-6
-257
-273
16
-127
-313
-92
-64
-321
-213
-26
-232
-282
-2
-116
-317
-121
-123
-323
-217
-70
-315
-308
-29
-199
-363
-130
-56
-291
-201
-34
-257
-226
-3
-205
-352
-108
-83
-329
-183
-45
-260
-169
13
-178
-347
-144
-64
-283
-163
15
-222
-236
-40
-195
-367
-105
-13
-317
-209
-12
-260
-298
5
-97
-276
18
122
-123
-24
217
-41
-127
173
63
-113
93
130
-140
-75
127
-111
-237
-14
-154
-345
-94
-106
-409
-302
-24
-225
-434
-210
-227
-409
-248
-230
-175
743
1605
1490
990
506
48
-257
-172
-221
-614
-446
-65
-242
-305
-7
-104
-322
-99
-30
-273
-139
65
-174
-236
71
-2
-271
-17
60
-231
13
142
-233
-162
131
14
-95
102
115
-85
107
311
78
84
416
473
241
345
551
397
558
854
661
604
917
899
715
896
927
583
633
840
540
305
401
288
50
120
129
-103
-63
8
-157
-198
-61
-150
-371
-162
-40
-356
-264
58
-202
-414
-134
-146
-336
-147
-88
-296
-191
-10
-219
-295
-18
-86
-320
-153
-20
-241
-254
-47
-229
-320
-38
-111
-371
-170
-58
-333
-265
-44
-259
-369
-85
-162
-375
-67
-1
-409
-308
-33
-292
-287
-9
-204
-387
-160
-92
-328
-243
-49
-254
-312
-74
-104
-302
-123
-33
-336
-269
-46
-238
-287
-8
-129
-345
-100
-44
-309
-220
-13
-220
-300
-51
-126
-301
-101
-55
-228
-155
-52
-225
-273
2
-52
-299
-74
53
-267
-216
103
-24
-106
166
106
-150
75
264
30
28
266
82
-102
195
118
-89
172
25
-340
-147
21
-212
-264
-32
-107
-298
-108
-38
-276
-229
-36
-273
-361
538
1280
1368
1615
1107
116
57
106
-381
-529
-185
-171
-340
-65
58
-261
-166
117
-175
-240
79
-61
-250
-26
69
-144
-70
149
-36
-132
148
90
-149
60
170
-16
41
205
69
-12
236
230
104
309
387
209
347
622
463
438
775
756
583
876
1089
763
846
1124
801
742
990
811
529
596
634
344
256
420
172
-62
268
192
-202
8
129
-125
-95
87
-92
-208
30
-21
-263
-73
53
-217
-159
92
-12
-157
-9
-21
-194
6
61
-235
-135
89
-127
-185
84
14
-215
-56
49
-204
-173
96
-69
-235
-22
-57
-279
-114
-1
-209
-162
22
-161
-232
7
-107
-278
-119
-29
-172
-202
-20
-168
-308
-4
-107
-326
-26
-33
-328
-209
35
-145
-359
-64
-60
-404
-163
-26
-321
-236
7
-217
-324
15
-113
-425
-190
-30
-271
-277
-60
-222
-331
-40
-91
-359
-157
-25
-261
-158
153
-24
-134
104
18
-133
11
134
-38
-70
131
-55
-199
67
19
-260
-157
-74
-280
-334
-153
-258
-361
-127
-241
-458
-266
-156
-349
-284
-146
-346
105
1166
1572
1313
770
199
-248
-310
-146
-561
-731
-277
-239
-414
-232
-130
-323
-288
-95
-190
-302
-114
-138
-367
-161
36
-252
-243
78
-141
-300
35
-47
-282
-38
34
-193
-85
134
-5
-77
144
140
96
292
271
101
239
531
459
341
585
662
504
660
807
650
744
902
711
595
679
509
252
368
355
34
56
187
-95
-218
-6
-112
-251
-95
-105
-332
-277
-5
-182
-385
-170
-187
-332
-144
-92
-306
-205
31
-206
-381
-82
-97
-338
-89
16
-350
-281
-33
-247
-314
-63
-135
-343
-164
-76
-324
-284
-81
-239
-346
-85
-129
-343
-127
-175
-440
-284
-97
-269
-386
-104
-111
-410
-246
-89
-365
-405
-162
-298
-378
-87
-183
-375
-193
-173
-364
-311
-173
-343
-426
-169
-155
-370
-261
-136
-357
-312
-82
-295
-324
-54
-216
-417
-205
-115
-315
-249
-47
-121
-145
28
-17
-196
-10
87
-183
-41
264
-5
-193
68
41
-208
-77
4
-254
-249
-60
-232
-362
-88
-93
-405
-248
-21
-328
-366
-44
-259
-461
-210
115
697
1483
1689
913
231
138
-204
-459
-254
-327
-497
-86
108
-323
-293
-7
-190
-241
6
-62
-268
-104
23
-165
-134
49
-123
-176
128
33
-253
-40
131
-87
-26
131
-30
-28
178
140
-6
178
317
132
225
495
371
347
664
619
473
699
814
630
708
978
801
680
942
817
495
589
610
280
212
360
142
-94
35
16
-187
-71
32
-217
-230
-16
-202
-329
-34
-101
-364
-118
-4
-322
-249
55
-239
-450
-29
7
-322
-142
12
-256
-255
-14
-139
-279
-42
-32
-267
-96
38
-260
-241
-24
-199
-315
-78
-74
-279
-116
-48
-347
-287
-41
-210
-309
-55
-49
-297
-155
-25
-278
-242
-5
-114
-257
-76
-82
-304
-136
24
-163
-214
-78
-156
-213
-48
-121
-273
-96
-31
-262
-235
-13
-146
-287
19
4
-359
-148
61
-289
-253
33
-208
-299
21
-29
-271
-94
26
-207
-147
69
-48
-70
179
184
-106
15
315
27
-45
275
71
-101
184
163
-83
42
116
-177
-189
2
-168
-221
51
12
-229
-137
-58
-259
-230
1
-120
-311
-152
253
876
1575
1717
933
270
248
-48
-340
-169
-210
-380
-87
87
-219
-143
146
-159
-316
73
62
-169
-3
94
-102
-127
101
22
-171
74
97
-157
52
206
-21
19
206
86
20
267
271
58
255
479
201
186
508
400
363
650
638
492
726
899
711
756
1006
844
670
965
876
500
644
707
348
226
383
175
-34
162
118
-181
-63
55
-206
-128
50
-216
-274
18
-98
-283
-83
-28
-212
-159
42
-164
-303
-14
-28
-260
-82
44
-216
-196
127
-53
-282
-3
-44
-216
-19
9
-222
-189
17
-157
-296
-43
-54
-307
-161
48
-201
-296
47
-27
-288
-14
-17
-309
-86
31
-253
-194
37
-128
-237
-7
-25
-257
-129
38
-213
-183
38
-210
-297
-27
-41
-269
-107
35
-229
-210
32
-142
-270
25
-47
-279
12
48
-305
-187
44
-197
-257
85
21
-301
-94
82
-223
-224
51
-114
-194
123
-21
-276
-45
108
-45
24
291
149
-40
183
206
-8
196
321
12
-9
269
192
-50
81
42
-288
-128
63
-233
-234
5
-203
-329
-45
-44
-226
-113
-93
-306
-330
125
760
1268
1718
1449
442
137
219
-222
-403
-197
-242
-298
8
3
-282
-97
66
-138
-143
-2
-149
-191
75
51
-194
-42
84
-114
-36
122
-81
-131
84
34
-116
78
216
-26
40
305
143
47
328
462
241
314
590
426
451
769
670
626
924
916
730
934
1090
887
847
1017
870
597
734
678
314
340
436
187
85
273
126
-47
191
66
-234
80
156
-237
-149
88
-77
-189
20
20
-199
-66
78
-104
-95
121
8
-113
151
83
-242
-24
156
-110
-86
157
-46
-185
118
53
-255
-67
81
-169
-184
134
-12
-297
31
9
-338
-117
22
-242
-242
25
-131
-263
51
-65
-358
-103
74
-252
-268
22
-116
-278
-73
-48
-282
-149
-13
-266
-257
34
-117
-316
-49
-77
-334
-177
-21
-256
-265
3
-173
-310
3
-19
-320
-211
-28
-219
-221
25
-181
-357
-82
-82
-320
-96
5
-298
-155
141
-11
-138
136
144
-219
-18
192
-89
-3
175
-101
-197
101
73
-232
-156
-19
-297
-248
-3
-313
-407
-124
-173
-415
-275
-99
-325
-328
-141
-133
413
1409
1689
1197
606
249
-119
-283
-187
-468
-549
-145
-96
-283
-64
32
-288
-212
50
-156
-273
-30
-46
-254
-118
-12
-134
-30
73
-125
-209
55
98
-166
-6
213
-52
-75
256
127
-87
218
267
25
258
495
223
206
563
548
383
613
730
511
684
876
644
685
906
683
472
680
606
211
256
325
-3
-20
137
-114
-267
-37
-28
-339
-258
-103
-367
-323
-77
-291
-450
-127
-131
-439
-246
-69
-286
-283
-67
-206
-344
-109
-107
-313
-137
-9
-270
-219
-34
-257
-349
-115
-103
-284
-176
-69
-271
-279
-60
-119
-278
-146
-116
-316
-175
-4
-305
-367
-65
-151
-314
-124
-112
-336
-184
-31
-265
-253
-36
-157
-289
-100
-146
-372
-206
-30
-230
-246
-52
-233
-318
-61
-105
-327
-130
-10
-328
-292
2
-199
-323
9
-44
-267
-113
-81
-268
-161
74
-62
-130
162
134
-139
29
251
51
25
224
129
-3
86
109
-79
5
144
-163
-211
60
-142
-255
55
-65
-340
-105
57
-252
-263
23
-172
-398
42
746
1264
1657
1447
461
38
188
-183
-430
-223
-215
-335
-169
47
-188
-252
37
-111
-292
-36
9
-222
-87
73
-145
-163
60
-89
-240
31
33
-201
-30
102
-88
-84
124
105
-81
127
347
1
36
326
133
199
492
368
274
591
682
484
638
832
663
739
948
756
643
795
752
515
454
444
169
123
301
30
-179
34
-12
-271
-196
11
-170
-341
-147
-209
-338
-153
-167
-393
-256
-78
-297
-263
-45
-280
-399
-128
-84
-296
-229
-73
-300
-276
-52
-215
-303
-123
-134
-321
-215
-86
-287
-267
-59
-206
-302
-114
-175
-391
-223
-72
-299
-311
-43
-127
-330
-114
-121
-399
-193
-5
-303
-321
-64
-169
-311
-155
-135
-353
-217
-42
-235
-250
-77
-188
-355
-105
-35
-381
-236
-31
-270
-191
-37
-244
-329
-62
-19
-313
-179
19
-269
-284
47
-136
-364
14
51
-381
-259
-20
-248
-208
83
0
-97
133
126
-138
0
212
40
56
275
102
-60
155
153
-134
-12
175
-154
-202
13
-150
-276
-70
-6
-268
-189
-7
-227
-249
-8
-192
-425
219
1076
1354
1583
1387
399
-43
114
-166
-444
-278
-203
-259
-79
43
-89
-122
-1
-121
-239
35
54
-196
-36
106
-152
-134
172
11
-207
39
122
-96
-30
110
-68
-36
211
81
-62
202
261
41
232
421
185
268
571
476
352
640
786
530
682
937
739
775
1012
867
753
901
754
471
547
606
318
197
349
146
-16
138
26
-166
-74
22
-203
-216
33
-73
-221
-54
-18
-261
-174
90
-155
-279
33
-66
-232
38
48
-228
-24
145
-197
-121
129
-102
-224
-11
96
-158
-177
41
-139
-151
98
-128
-291
35
-24
-308
-111
70
-175
-267
47
-42
-337
-80
-73
-343
-38
110
-269
-245
76
-104
-318
-69
-57
-270
-58
27
-268
-212
43
-89
-262
-23
39
-285
-130
102
-203
-138
120
-179
-253
108
6
-305
-100
73
-185
-150
101
-86
-218
30
-15
-200
15
54
-182
-125
27
-54
-140
104
218
16
115
311
129
12
204
181
80
306
289
20
172
327
79
45
341
147
-158
79
30
-239
-70
93
-130
-174
83
1
-174
-20
-4
-259
-43
769
1306
1643
1784
925
109
174
39
-347
-293
-110
-215
-189
112
82
-156
2
75
-162
4
150
-119
-76
135
-2
-115
114
155
-102
34
228
-38
-89
235
227
-36
95
201
-5
168
376
122
138
442
321
185
470
574
393
592
827
532
557
928
806
667
910
918
676
777
886
618
509
649
383
101
291
293
-6
9
140
-115
-126
141
-142
-317
63
-15
-333
-158
10
-223
-275
40
-99
-342
-73
-66
-306
-110
63
-211
-197
51
-170
-318
-28
-3
-304
-174
42
-216
-264
-94
-207
-304
-117
-99
-318
-179
-45
-290
-267
-66
-176
-291
-130
-39
-275
-233
-51
-268
-236
-27
-215
-360
-124
-77
-351
-288
-118
-280
-253
-77
-251
-359
-118
-113
-351
-214
-56
-307
-302
-12
-155
-332
-88
-94
-387
-188
15
-299
-326
-91
-207
-317
-57
-14
-221
-12
164
-154
-172
112
-24
-41
218
92
-100
18
77
-119
-126
51
-109
-266
-118
-142
-358
-249
-41
-234
-306
-80
-149
-308
-152
-143
-415
-236
286
724
1375
1833
1124
157
121
13
-415
-304
-189
-427
-277
17
-125
-262
-47
17
-192
-82
27
-257
-204
75
-113
-239
10
84
-132
-121
45
-132
-120
142
-34
-141
137
83
-111
95
223
51
92
282
212
136
324
355
260
468
578
442
551
768
679
614
805
823
632
713
860
600
436
532
306
93
292
218
-144
-59
76
-189
-210
-16
-191
-251
-9
-140
-427
-218
17
-311
-366
-46
-213
-296
-32
-134
-374
-165
-14
-271
-259
-29
-104
-269
-154
-157
-353
-178
-50
-302
-290
-31
-180
-351
-140
-132
-333
-198
-19
-271
-383
-116
-214
-378
-133
-131
-378
-221
-25
-307
-343
-52
-158
-292
-105
-149
-364
-224
-105
-310
-292
-78
-216
-372
-126
-91
-376
-270
-107
-302
-304
-42
-190
-409
-114
-105
-364
-160
-85
-360
-301
-61
-189
-345
-111
-78
-295
-147
30
-231
-304
-39
-107
-230
-19
79
-78
25
216
-61
-128
194
49
-104
155
146
-106
14
189
-57
-132
29
-145
-236
-77
-142
-328
-162
30
-295
-360
-63
-199
-327
-89
-133
-376
212
1200
1477
1456
1137
338
-70
-21
-103
-391
-411
-146
-218
-242
33
-110
-250
10
-26
-259
-91
72
-181
-153
130
-80
-226
47
51
-153
-20
125
-97
-97
182
80
-102
157
167
-87
115
288
141
202
361
256
250
476
529
439
567
707
613
644
898
891
677
854
906
616
738
831
497
431
581
318
62
234
205
-104
-52
57
-163
-101
99
-197
-356
-36
-52
-336
-152
24
-222
-249
-19
-155
-284
-35
-69
-235
-32
17
-265
-206
46
-150
-284
-31
-75
-278
-48
38
-253
-202
51
-131
-323
-54
-24
-280
-160
-21
-239
-239
-38
-190
-316
-61
-27
-291
-205
-67
-291
-290
-27
-167
-369
-93
-58
-345
-215
-105
-324
-240
-30
-244
-397
-80
-42
-391
-230
-10
-316
-320
-35
-232
-383
-65
-63
-395
-250
-74
-296
-272
-55
-203
-325
-60
-90
-347
-184
-47
-221
-227
-46
-173
-355
-66
-63
-384
-168
83
-110
-102
160
10
-136
123
92
-58
184
209
-106
-45
168
-36
-126
116
45
-232
-130
-24
-236
-217
-66
-216
-262
-84
-142
-332
-188
-60
-334
-391
-34
402
1000
1668
1591
632
148
173
-277
-475
-282
-378
-372
-79
-69
-265
-101
0
-247
-211
1
-115
-217
1
39
-233
-122
67
-147
-90
148
11
-112
101
113
-116
53
248
18
18
318
255
72
301
391
118
312
599
392
401
715
648
549
829
834
692
928
1026
782
790
1025
809
546
710
625
286
371
494
121
2
214
7
-165
67
72
-201
-113
60
-196
-256
-6
-119
-262
1
-3
-273
-108
27
-151
-89
-31
-233
-255
12
-30
-290
-109
52
-191
-201
64
-74
-279
-45
-56
-303
-85
25
-279
-233
27
-145
-264
-59
-128
-278
-140
-36
-229
-248
-50
-203
-231
-2
-139
-351
-177
-19
-252
-257
-11
-191
-253
-10
-169
-402
-162
30
-249
-304
-64
-226
-367
-111
-99
-301
-173
-17
-223
-272
-24
-149
-304
-30
-76
-272
-32
-48
-324
-226
-20
-202
-284
11
-85
-291
8
178
-42
-64
95
36
-104
52
119
-88
112
227
-108
-85
160
-36
-203
15
-72
-371
-213
-4
-191
-215
-78
-276
-385
-78
-67
-375
-221
-126
-271
409
1400
1582
1269
822
209
-222
-208
-240
-489
-447
-181
-211
-312
-34
-9
-324
-199
-18
-224
-218
1
-143
-227
54
8
-321
-155
56
-203
-156
123
-73
-231
76
83
-169
25
201
-18
16
275
120
57
315
314
228
386
492
377
437
634
564
523
786
803
607
738
827
568
563
749
420
151
348
245
16
115
74
-168
-214
-94
-244
-372
-96
-164
-404
-171
-115
-396
-337
-94
-259
-384
-100
-138
-355
-150
-53
-317
-305
39
-130
-379
-28
-105
-420
-167
-49
-284
-253
-66
-225
-344
-81
-92
-323
-171
-77
-347
-289
41
-167
-349
-108
-165
-330
-167
-86
-325
-290
-33
-201
-354
-93
-110
-306
-76
-57
-377
-276
-49
-212
-293
-72
-121
-322
-165
-90
-311
-248
-13
-194
-269
53
-118
-409
-126
-7
-277
-251
-5
-145
-275
-55
-117
-331
-73
47
-296
-219
104
-151
-347
-6
-25
-320
-95
20
-237
-137
101
-17
-72
162
130
-107
22
164
33
136
262
21
-65
190
140
-103
21
102
-170
-200
65
-108
-278
64
0
-372
-180
18
-216
-231
-19
-154
-319
231
1015
1343
1589
1299
297
-50
121
-161
-450
-246
-171
-222
69
100
-176
-89
141
-57
-203
73
36
-176
59
107
-183
-67
171
-3
-83
127
93
-59
131
231
-55
18
304
120
92
341
258
107
288
434
222
306
627
484
409
739
748
569
855
979
705
887
1154
819
687
948
798
545
639
558
213
204
376
137
-68
98
54
-117
-22
8
-194
-103
62
-164
-244
-48
-86
-261
-89
36
-207
-178
35
-179
-260
81
-22
-290
-80
67
-161
-145
77
-97
-225
-1
-23
-255
-35
93
-234
-122
127
-117
-250
-50
-73
-266
-73
29
-237
-152
104
-132
-309
-15
-27
-243
0
28
-339
-252
44
-101
-259
-10
-29
-281
-119
-15
-255
-200
31
-161
-239
31
-60
-311
-79
63
-240
-197
44
-174
-242
70
-56
-314
-69
28
-218
-94
88
-174
-256
37
0
-242
-45
63
-200
-136
120
-24
-69
223
215
53
104
155
-15
73
376
167
-3
268
176
-79
189
262
-148
-105
187
-59
-262
-27
-51
-278
-60
86
-234
-199
93
-114
-296
-124
70
615
1478
1882
1313
520
266
-49
-304
-147
-263
-485
-149
92
-217
-209
39
-156
-212
22
-61
-188
-13
39
-216
-121
98
-161
-198
78
-8
-183
32
151
-96
-39
220
10
-66
222
147
-11
219
343
127
260
568
385
288
627
612
412
771
865
573
752
991
807
715
1008
926
557
680
722
394
340
450
203
7
266
127
-201
-17
17
-199
-80
40
-239
-270
20
-72
-302
-117
18
-197
-239
-51
-171
-273
-6
-79
-299
-54
23
-221
-144
34
-147
-276
-72
-82
-224
-38
31
-305
-323
-32
-191
-292
-32
-128
-344
-116
9
-259
-230
-40
-222
-202
-8
-195
-329
-147
-40
-231
-296
-53
-151
-282
-41
-119
-320
-119
-16
-188
-177
-70
-227
-270
7
-100
-377
-150
-10
-229
-200
-2
-178
-270
87
-85
-354
-17
-13
-275
-159
-2
-145
-207
-22
-43
-181
26
217
-3
19
253
15
-107
218
295
65
160
270
-5
21
316
109
-135
61
-15
-190
-39
-30
-272
-201
67
-184
-246
94
-87
-335
-101
-27
-324
182
1355
1677
1499
1211
440
-116
-54
-63
-436
-412
-20
-103
-229
19
-18
-230
6
117
-174
-117
66
-96
-160
40
-19
-183
13
65
-139
-36
127
-31
-28
127
-20
-166
79
242
1
48
264
80
66
399
339
154
412
625
427
434
727
577
479
819
784
692
914
812
570
629
719
474
309
443
262
55
178
24
-204
-78
47
-133
-273
-89
-117
-341
-177
-64
-266
-173
-48
-274
-270
-39
-165
-356
-145
-67
-293
-202
32
-153
-323
-73
-56
-278
-103
-7
-292
-178
68
-213
-265
-18
-184
-370
-71
1
-338
-237
-26
-268
-286
-26
-190
-276
-56
-121
-354
-263
-30
-208
-327
-54
-85
-306
-115
-65
-335
-251
-21
-142
-276
-113
-123
-290
-136
-75
-293
-208
-21
-210
-306
-63
-140
-327
-93
11
-228
-272
-70
-179
-299
-84
-156
-295
-20
97
-125
-61
92
-142
-104
207
42
-181
77
199
-132
-90
118
-163
-263
-30
-129
-320
-191
-129
-330
-318
-75
-252
-412
-137
-207
-420
-217
-162
-51
825
1617
1465
782
316
51
-299
-353
-333
-551
-462
-138
-202
-316
-108
-168
-309
-104
-90
-338
-223
33
-187
-218
30
-144
-300
-75
-4
-219
-128
83
-106
-163
106
35
-128
101
168
-57
55
323
236
67
261
366
201
436
613
353
459
757
631
594
826
850
651
750
846
472
480
668
335
199
427
207
-147
9
63
-220
-183
44
-216
-382
-80
-179
-411
-210
-140
-372
-293
-78
-294
-351
-93
-176
-329
-148
-125
-274
-157
-54
-273
-371
-112
-148
-295
-116
-102
-324
-272
-56
-191
-323
-62
-72
-363
-169
-33
-315
-269
-15
-201
-368
-92
-101
-323
-126
-62
-366
-232
55
-232
-367
-71
-96
-289
-122
-61
-309
-220
4
-210
-343
-96
-157
-305
-56
-44
-335
-233
-53
-216
-213
-46
-161
-314
-83
35
-271
-191
36
-247
-331
-37
-94
-305
-87
16
-211
-116
153
49
-35
238
139
-78
139
199
39
80
247
115
-45
194
201
-97
-23
32
-214
-143
30
-178
-233
-37
-93
-209
-75
-60
-283
-217
-45
-281
-273
626
1361
1457
1567
1030
39
-101
18
-353
-457
-132
-150
-280
-16
62
-220
-139
84
-108
-162
81
-15
-205
43
113
-155
21
247
-78
-166
157
40
-152
89
158
-41
85
252
45
29
294
304
134
267
430
241
371
687
475
412
759
748
558
802
931
713
890
1120
789
620
863
722
427
563
553
211
205
336
79
-46
207
45
-261
-30
75
-184
-142
23
-191
-239
-22
-128
-278
-52
4
-257
-163
2
-122
-108
-11
-145
-273
-70
14
-194
-108
72
-130
-225
15
-61
-272
-67
-5
-169
-75
-9
-239
-246
13
-115
-280
-58
-17
-271
-193
-2
-212
-225
15
-146
-241
-9
-64
-296
-211
-7
-164
-273
-14
-66
-318
-58
39
-297
-179
84
-174
-272
44
-101
-328
-92
-17
-192
-151
-1
-160
-241
37
-68
-315
-18
97
-251
-195
69
-158
-264
14
-40
-228
-60
2
-176
-54
164
34
23
240
154
-109
43
242
-4
48
319
26
-84
240
93
-148
65
74
-233
-122
41
-255
-293
16
-74
-311
-133
-28
-279
-256
-36
-257
-61
1030
1636
1522
1250
576
-63
-70
-27
-373
-498
-153
-88
-207
22
55
-184
-58
139
-160
-238
77
-48
-224
39
104
-117
-25
127
-69
-121
125
45
-118
171
212
-121
-2
226
82
82
322
268
92
308
442
250
354
627
481
447
822
739
512
813
936
717
808
989
778
678
869
658
325
491
500
107
184
336
-47
-169
102
61
-205
-77
24
-255
-192
24
-196
-273
20
-8
-289
-142
-13
-225
-97
67
-127
-202
-11
-20
-225
-101
52
-160
-172
77
-64
-245
-14
-52
-276
-55
4
-266
-182
32
-82
-177
-70
-142
-178
-59
-115
-286
-225
-47
-191
-259
-57
-120
-279
-66
16
-266
-204
70
-151
-269
4
-103
-295
-92
-43
-285
-208
-32
-205
-263
-49
-105
-295
-57
7
-324
-223
23
-162
-275
-62
-84
-279
-131
-32
-253
-264
-79
-205
-340
-81
-89
-315
-92
-23
-272
-177
3
-250
-290
128
-93
-467
-130
-6
-279
-218
-11
-190
-290
-37
-66
-262
-97
1
-220
-181
53
-140
-309
14
11
-163
154
185
-156
-29
195
-40
-86
212
57
-192
99
124
-237
-155
39
-187
-287
-7
-84
-330
-114
-73
-316
-195
-3
-212
-239
-108
-112
494
1395
1669
1268
637
215
-138
-312
-192
-296
-464
-231
-81
-197
-95
48
-172
-269
25
-70
-267
-47
15
-157
-131
18
-149
-198
147
-35
-311
67
108
-180
-3
130
-95
-91
163
78
-64
169
215
-7
172
372
208
299
518
411
326
590
706
566
694
859
648
566
883
742
429
693
630
205
278
379
68
-95
72
-20
-212
-84
-80
-309
-218
5
-272
-442
-178
-244
-396
-157
-138
-382
-271
-61
-206
-327
-137
-183
-328
-120
-42
-263
-272
-84
-236
-288
-16
-141
-345
-168
-131
-317
-232
-54
-264
-391
-78
-104
-407
-197
-80
-352
-243
-38
-258
-319
-55
-190
-355
-67
-82
-400
-213
49
-253
-351
-58
-184
-391
-173
-95
-311
-248
-29
-234
-321
-34
-180
-416
-112
25
-339
-256
-15
-268
-291
-73
-161
-316
-174
-81
-268
-158
-14
-269
-297
-72
-141
-296
-85
-38
-306
-212
-32
-237
-286
-33
-94
-279
-98
-60
-318
-155
42
-241
-263
9
-90
-203
86
202
-40
-54
132
-26
-35
286
80
-146
135
153
-108
21
168
-132
-239
-32
-164
-247
7
-141
-401
-211
-62
-257
-249
-25
-182
-383
-170
176
655
1382
1742
1166
414
202
-95
-398
-231
-228
-417
-150
17
-228
-215
14
-73
-265
-72
30
-189
-117
61
-153
-180
94
7
-178
26
59
-145
32
171
-23
-101
90
65
-75
131
199
2
128
337
149
153
476
470
301
517
650
447
667
942
736
682
908
801
648
923
905
539
592
742
397
192
417
232
-101
63
134
-134
-147
26
-208
-305
-60
-192
-365
-107
1
-357
-323
-30
-250
-299
-62
-184
-327
-110
-44
-275
-200
-52
-268
-220
38
-200
-372
-108
-83
-305
-201
-22
-242
-301
-30
-159
-357
-134
-100
-315
-228
-75
-260
-332
-84
-145
-346
-156
-98
-329
-217
-26
-270
-328
-44
-90
-302
-182
-108
-335
-267
-80
-261
-293
-55
-176
-373
-127
-43
-314
-241
11
-146
-334
-149
-149
-345
-149
-62
-348
-241
-36
-285
-341
-74
-136
-365
-138
28
-299
-225
80
-63
-59
131
-2
-153
49
124
-68
56
281
2
-128
204
91
-139
47
7
-266
-187
30
-186
-326
-78
-169
-360
-80
12
-340
-281
-61
-333
-396
270
977
1370
1677
1262
278
-25
8
-370
-524
-197
-228
-406
-105
-39
-309
-192
-14
-247
-270
16
-143
-327
-44
2
-251
-77
107
-226
-288
68
-23
-241
38
75
-165
-3
176
-41
-50
260
115
-8
334
292
29
224
502
406
356
611
607
502
785
860
600
763
1106
779
529
838
691
410
582
483
106
183
309
-42
-151
116
-43
-250
-26
-63
-358
-259
-65
-243
-332
-67
-115
-349
-158
-129
-368
-236
-44
-218
-262
-49
-196
-342
-61
-20
-280
-196
-29
-238
-277
-41
-85
-270
-133
-33
-317
-241
18
-267
-354
-75
-169
-281
-51
-108
-377
-230
-37
-244
-294
-46
-115
-265
-133
-131
-286
-171
-27
-230
-268
-6
-75
-263
9
56
-319
-208
44
-183
-277
-7
-64
-236
7
10
-241
-76
81
-150
-209
72
-4
-178
13
45
-167
-77
123
-125
-164
159
127
15
215
228
-36
77
265
137
239
355
127
21
217
242
12
51
185
-46
-103
177
35
-234
-57
19
-170
-67
70
-176
-215
40
-55
-301
82
892
1380
1756
1683
651
58
207
7
-372
-308
-71
-221
-174
93
-35
-126
7
-63
-170
53
112
-175
-120
168
-14
-188
63
25
-134
72
127
-109
-41
157
14
39
240
100
-80
197
359
1
90
372
158
214
514
405
306
628
735
531
679
897
754
700
973
865
547
749
785
431
457
615
271
68
285
135
-140
20
22
-277
-93
62
-287
-315
-37
-133
-356
-170
-133
-378
-238
-64
-262
-283
-47
-179
-386
-64
-9
-379
-245
-53
-290
-320
-67
-155
-305
-25
-31
-369
-246
-57
-224
-283
-65
-167
-422
-195
-121
-350
-227
-99
-336
-326
-87
-240
-389
-144
-166
-416
-205
-46
-376
-406
-91
-226
-438
-191
-153
-414
-262
-63
-319
-346
-48
-243
-463
-133
-135
-377
-184
-111
-413
-396
-68
-205
-412
-190
-153
-376
-243
-64
-339
-327
-11
-201
-419
-101
-43
-371
-171
124
-76
-109
144
-4
-265
20
152
-82
15
131
-123
-163
90
-63
-275
-72
-63
-333
-245
-78
-298
-313
-46
-198
-343
-113
-124
-345
-237
-101
-123
579
1524
1609
1154
632
167
-194
-191
-134
-381
-383
-114
-148
-270
-15
22
-273
-117
78
-192
-201
69
-7
-197
-36
86
-143
-90
115
-50
-40
133
-19
-127
145
205
-70
49
253
56
59
338
239
185
452
392
216
444
674
483
478
870
866
622
801
898
694
809
1006
742
594
808
596
285
409
342
61
112
187
-72
-133
97
-22
-229
-29
19
-267
-179
8
-101
-123
-75
-201
-320
-83
-10
-269
-183
44
-144
-267
-38
-107
-202
5
-73
-248
-93
16
-181
-268
-15
-21
-298
-147
-59
-315
-178
-19
-267
-260
-11
-105
-304
-101
-50
-378
-219
0
-263
-265
-35
-194
-367
-117
-57
-309
-170
32
-287
-365
-63
-194
-351
-116
-113
-326
-217
-76
-295
-303
-21
-196
-333
-56
-151
-351
-140
-66
-310
-303
-52
-190
-337
-82
-101
-367
-201
8
-203
-201
11
-189
-366
-100
1
-198
-32
221
-2
-43
202
29
-120
188
237
-38
133
287
-76
-113
213
62
-237
-58
-12
-238
-87
27
-312
-283
0
-187
-268
-52
-97
-343
-247
-108
-199
461
1502
1639
1251
801
259
-138
-162
-61
-297
-400
-133
-127
-229
-16
43
-154
-106
20
-133
-161
69
-19
-172
41
50
-115
17
74
-106
-105
152
75
-131
130
182
-71
101
261
5
31
332
293
150
326
384
224
435
642
466
538
853
745
585
879
967
754
858
1015
795
612
764
615
325
469
400
78
133
227
-24
-138
94
-17
-286
15
95
-361
-265
-24
-292
-282
-18
-166
-332
-52
30
-326
-255
58
-186
-237
44
-170
-331
-55
-30
-267
-115
53
-187
-224
35
-80
-317
10
46
-354
-186
91
-184
-274
41
-95
-314
-62
-52
-317
-177
2
-159
-152
11
-159
-327
-104
-19
-260
-204
19
-155
-239
-8
-133
-293
-65
-85
-304
-180
39
-127
-218
-14
-132
-269
-32
-1
-237
-129
10
-178
-133
63
-172
-340
-61
-4
-175
-146
-49
-197
-180
113
-49
-205
122
205
26
107
160
-25
1
276
224
48
230
199
-93
86
300
-59
-132
170
-50
-288
-8
40
-243
-129
47
-162
-228
-18
-70
-239
-117
-117
-72
843
1776
1684
1178
660
204
-45
-85
-221
-494
-256
73
-126
-166
146
26
-218
57
95
-227
-89
133
-99
-137
130
29
-160
100
153
-143
18
254
42
-94
134
119
-44
188
270
55
225
418
164
205
489
355
273
631
688
428
610
859
715
773
1043
917
767
1001
998
746
814
867
611
424
482
309
47
243
236
-108
-15
156
-58
-171
30
-25
-237
-53
-17
-300
-133
140
-149
-183
51
-185
-288
-11
4
-236
-137
63
-135
-149
68
-41
-142
-23
14
-156
-120
80
-95
-138
83
-51
-229
-10
-2
-206
-13
69
-156
-142
101
-56
-326
-32
92
-243
-131
96
-203
-170
141
-126
-323
-36
29
-184
-139
17
-168
-204
55
-63
-246
-46
21
-184
-144
35
-151
-232
76
-48
-329
-65
6
-261
-94
117
-171
-236
13
-121
-191
49
-61
-284
-137
-2
-220
-264
-11
-96
-210
-50
-108
-295
-144
58
-107
-176
38
11
-85
161
181
-149
-57
185
8
-12
223
63
-97
69
97
-23
-73
-11
-209
-330
-29
-164
-407
-154
-83
-383
-348
-108
-328
-398
-91
-267
-497
157
1030
1358
1514
1129
172
-180
-105
-344
-604
-406
-286
-414
-170
-32
-328
-293
-25
-204
-327
-77
-125
-316
-116
-16
-255
-267
28
2
-296
-127
9
-198
-78
70
-126
-119
138
19
-141
134
182
-46
167
341
61
152
510
359
224
572
662
453
634
844
637
622
909
805
623
834
751
395
451
484
165
114
241
-14
-207
33
-13
-316
-173
-51
-361
-365
-96
-218
-371
-151
-92
-330
-256
-68
-235
-327
-89
-150
-334
-42
-49
-364
-163
-29
-314
-270
16
-163
-310
-23
-32
-314
-156
3
-250
-223
-10
-222
-337
-47
-98
-381
-213
-34
-268
-297
-66
-160
-290
-80
-28
-288
-243
-55
-287
-260
89
-174
-380
-80
-72
-283
-142
7
-194
-221
-42
-115
-230
-95
-55
-253
-199
-19
-177
-208
-19
-167
-307
-38
-21
-293
-135
51
-237
-267
58
-109
-311
-77
-61
-233
-102
58
-85
-105
128
100
-27
122
111
-62
157
317
-19
-62
230
88
-118
115
128
-193
-112
38
-222
-264
-14
-144
-270
-19
-118
-397
-200
-50
-318
-286
-69
-245
152
1241
1693
1339
825
354
-50
-152
-104
-383
-544
-167
-35
-202
-71
-6
-229
-195
98
-6
-274
-98
11
-229
-157
56
-165
-155
141
-22
-197
43
68
-165
11
221
-39
-80
177
95
51
250
234
53
215
422
265
324
584
512
404
682
762
555
771
956
780
839
967
744
567
727
647
318
358
442
125
14
251
55
-215
53
41
-312
-193
2
-170
-274
-85
-117
-295
-131
-94
-315
-194
-36
-242
-264
46
-50
-387
-134
-30
-324
-144
42
-256
-302
-52
-170
-310
-87
-62
-285
-179
-7
-241
-323
-61
-188
-399
-157
-36
-308
-293
-82
-269
-246
-22
-222
-319
-125
-208
-389
-210
-79
-247
-279
-106
-190
-332
-94
-125
-406
-226
-58
-210
-232
-93
-206
-362
-102
-58
-363
-218
12
-227
-200
25
-240
-374
-75
-42
-277
-214
-49
-231
-276
-22
-169
-328
-106
-117
-321
-191
-37
-216
-239
-61
-128
-244
-134
-143
-323
-203
-42
-258
-290
-43
-158
-319
-69
-82
-315
-66
64
-172
-86
177
43
-85
136
90
-69
121
232
3
-65
155
11
-107
153
26
-226
-81
5
-223
-155
12
-250
-345
-35
-40
-325
-131
46
-230
-303
-89
236
912
1717
1810
942
317
275
-101
-315
-115
-277
-401
-44
48
-148
-27
44
-180
-147
83
-58
-193
39
82
-75
-10
117
-59
-130
116
27
-61
134
115
-54
102
282
42
47
295
161
101
365
405
226
275
457
343
386
705
621
520
811
858
676
870
1021
806
812
1025
823
586
778
772
431
345
401
168
61
199
3
-215
62
74
-260
-118
35
-168
-183
9
-170
-342
-50
-38
-285
-101
42
-201
-176
1
-138
-233
-21
-37
-234
0
81
-258
-192
61
-101
-240
-48
-79
-320
-140
38
-203
-215
-21
-138
-252
-90
-78
-271
-191
-50
-201
-236
-71
-150
-254
-78
-82
-229
-112
-65
-245
-157
-6
-202
-257
-8
-52
-298
-157
-10
-235
-236
39
-26
-245
-81
-52
-294
-120
72
-120
-138
36
-60
-235
-102
-27
-182
-109
14
-186
-173
106
-81
-269
-39
9
-145
-118
-29
-148
-106
41
-127
-216
7
51
-129
30
273
70
24
287
134
-76
217
346
1
82
304
7
-29
230
39
-154
75
15
-261
-109
-23
-212
-116
-54
-228
-240
-75
-131
-296
-121
-58
-314
126
1207
1617
1578
1267
397
-130
-71
-101
-462
-506
-181
-177
-222
-3
-17
-283
-130
96
-229
-239
77
-121
-231
-6
-84
-259
-76
40
-171
-187
70
-52
-176
99
30
-184
-10
137
-15
-9
182
157
70
209
248
98
320
475
301
482
679
508
508
788
774
620
843
905
600
606
770
550
352
523
376
-62
47
164
-138
-169
35
-154
-307
-30
-103
-368
-163
-81
-380
-272
58
-205
-431
-138
-153
-364
-136
-23
-297
-316
-61
-173
-338
-36
-39
-328
-79
11
-355
-313
-38
-197
-378
-131
-93
-332
-194
-49
-254
-224
-81
-326
-424
-132
-98
-297
-247
-153
-339
-307
-42
-199
-390
-151
-117
-357
-224
-69
-293
-320
-49
-194
-388
-148
-164
-389
-251
-86
-301
-342
-133
-297
-429
-110
-81
-426
-287
-102
-337
-310
-72
-260
-416
-131
-112
-355
-256
-79
-258
-327
-28
-126
-430
-114
29
-261
-67
192
-43
-118
123
-24
-185
176
223
-113
28
167
-136
6
210
-160
-263
-28
-85
-324
-191
-70
-328
-304
-75
-249
-392
-50
-86
-460
-285
-180
-195
648
1579
1518
1054
611
101
-269
-247
-166
-401
-420
-105
-138
-271
-59
-73
-289
-113
5
-266
-203
42
-135
-202
-13
-136
-306
-53
65
-187
-135
46
-130
-191
75
28
-161
64
211
4
-33
188
126
54
302
346
173
340
595
447
470
735
637
567
857
861
666
891
976
582
520
756
523
303
447
311
34
89
131
-123
-118
63
-141
-240
-82
-140
-286
-210
-95
-282
-297
-56
-214
-368
-108
-115
-285
-113
-50
-237
-233
-34
-173
-297
-3
-55
-326
-132
0
-239
-224
26
-120
-304
-58
-92
-356
-155
2
-267
-228
63
-188
-390
-135
-163
-354
-183
-25
-277
-319
-59
-240
-407
-101
-77
-367
-225
-94
-382
-320
-34
-250
-376
-97
-125
-354
-203
-75
-320
-243
5
-244
-317
46
-66
-391
-218
-82
-307
-269
-52
-217
-316
-78
-103
-330
-160
-31
-264
-229
0
-116
-270
-60
-46
-257
-103
-26
-253
-164
49
-125
-131
174
93
-66
121
119
-89
21
284
105
-89
165
156
-61
85
116
-159
-146
24
-169
-273
-35
-155
-392
-175
-93
-358
-253
-34
-290
-377
-171
-159
232
1206
1712
1367
721
257
-116
-319
-178
-312
-529
-256
-40
-215
-211
-15
-169
-311
-44
-61
-302
-84
10
-261
-170
52
-132
-218
33
-25
-296
-69
126
-138
-40
184
-18
-89
133
119
-91
206
348
-32
119
434
274
254
533
503
381
636
784
598
681
916
754
714
1056
923
487
612
661
320
327
408
118
8
157
11
-219
-69
-35
-286
-125
47
-269
-337
-77
-170
-374
-197
-75
-282
-201
19
-242
-377
-41
-9
-291
-152
14
-229
-217
11
-163
-281
-40
-111
-308
-113
-49
-304
-232
-23
-213
-295
-67
-126
-358
-115
26
-340
-287
-31
-172
-279
-151
-161
-280
-162
-105
-313
-232
-22
-255
-378
-110
-122
-342
-182
-49
-268
-197
6
-263
-342
-27
-119
-280
-79
-118
-346
-235
-50
-237
-317
-54
-121
-342
-140
-36
-310
-267
27
-157
-345
-77
-114
-342
-125
68
-193
-282
-51
-187
-284
-8
-70
-337
-133
23
-206
-48
234
14
-61
221
196
-76
65
242
12
33
256
64
-36
212
107
-149
-13
50
-201
-168
77
-97
-271
-58
-68
-243
-123
-37
-270
-221
17
-226
-5
1108
1658
1525
1356
697
-16
-47
29
-318
-507
-127
19
-213
-92
45
-164
-124
80
-88
-134
133
67
-149
61
202
-112
-43
215
-10
-55
200
89
-72
225
315
-9
72
326
152
113
346
318
157
371
535
347
446
720
588
521
848
818
635
943
1058
775
935
1128
791
708
938
773
456
571
586
219
211
319
40
-67
148
55
-178
62
131
-216
-125
110
-121
-245
20
-44
-248
-31
53
-159
-103
67
-47
-115
-27
-66
-155
-24
68
-165
-164
71
-113
-214
39
-65
-219
-4
-72
-319
-120
39
-167
-189
-1
-133
-324
-88
-7
-258
-199
-75
-249
-313
-88
-62
-318
-129
40
-345
-290
-39
-307
-374
-107
-124
-301
-220
-135
-334
-286
-71
-270
-297
-98
-235
-336
-161
-122
-357
-272
-17
-242
-352
-68
-157
-399
-167
-72
-323
-266
-44
-169
-340
-131
-130
-365
-145
-64
-369
-262
-5
-145
-129
161
39
-167
52
55
-139
26
151
-36
-103
145
51
-204
32
2
-348
-231
-3
-232
-309
-113
-226
-294
-140
-202
-394
-279
-116
-316
-425
-38
616
1171
1609
1470
513
26
60
-289
-433
-236
-385
-516
-209
-22
-245
-203
22
-194
-265
11
-106
-304
-52
21
-265
-149
112
-174
-276
92
-3
-278
-31
39
-204
-47
178
-50
-91
195
161
31
181
234
116
260
414
296
334
594
552
442
741
837
597
738
953
771
724
860
700
517
594
532
240
239
326
21
-91
129
-10
-256
-59
-4
-299
-229
-16
-208
-300
-44
-128
-357
-52
40
-310
-226
-19
-213
-268
-6
-72
-273
-86
41
-216
-267
-67
-224
-284
-43
-102
-248
-122
-95
-309
-240
-53
-254
-344
16
-2
-380
-191
-65
-345
-236
-46
-256
-217
-26
-232
-342
-117
-101
-306
-180
-36
-215
-229
0
-117
-380
-141
6
-316
-256
10
-185
-305
-56
-32
-260
-92
79
-206
-181
-10
-209
-162
42
-159
-336
-76
49
-216
-191
21
-192
-260
41
-64
-278
-23
93
-126
64
329
13
-20
286
80
-49
265
262
15
101
222
28
7
237
27
-182
103
47
-305
-146
39
-265
-275
-3
-134
-293
-65
-50
-377
-281
-123
-42
695
1573
1640
1015
510
193
-212
-308
-319
-488
-370
-65
-6
-217
-132
-3
-248
-196
54
-135
-243
1
-92
-273
-27
58
-233
-138
150
-117
-222
107
-46
-209
116
123
-115
63
211
-28
12
318
184
16
371
455
161
356
623
461
481
776
741
635
905
966
700
806
970
719
571
694
535
277
383
362
55
48
178
-92
-144
130
-68
-290
-95
-15
-223
-264
-22
-192
-357
-11
-137
-394
-115
-61
-271
-211
-32
-196
-350
-93
-114
-282
-115
-79
-291
-284
-95
-151
-221
-86
-144
-330
-185
-105
-279
-181
-62
-274
-328
-96
-177
-381
-166
-85
-345
-239
-90
-347
-360
-107
-160
-360
-212
-127
-397
-301
-51
-294
-353
-93
-246
-421
-175
-108
-297
-209
-189
-399
-308
-72
-231
-423
-192
-87
-318
-283
-88
-304
-382
-23
-170
-461
-164
-96
-357
-224
-32
-277
-305
-39
-199
-322
-113
-110
-308
-199
95
-37
-129
120
42
-157
25
94
-119
41
194
-66
-70
129
45
-180
-45
64
-315
-255
-44
-317
-345
-126
-214
-397
-193
-104
-341
-264
-128
-412
-507
232
1004
1383
1712
1119
60
-63
19
-338
-497
-304
-321
-402
-79
-13
-309
-175
5
-178
-177
-50
-163
-272
-91
-41
-245
-133
34
-150
-134
109
-25
-234
50
126
-178
24
245
-35
-84
217
153
2
258
317
125
284
505
350
402
712
579
469
800
899
646
735
938
736
669
869
700
427
578
586
213
130
277
5
-108
134
19
-134
-49
-115
-311
-181
-27
-259
-298
2
-118
-403
-143
-87
-302
-121
-45
-280
-242
-11
-191
-327
-58
-99
-332
-117
31
-296
-285
30
-126
-339
-58
-21
-353
-208
-24
-256
-295
-15
-104
-341
-13
13
-441
-299
-2
-223
-346
-108
-160
-334
-111
-103
-377
-191
-76
-313
-211
-87
-267
-344
-164
-112
-356
-233
0
-315
-328
-41
-217
-368
-128
37
-264
-368
-133
-255
-310
-31
-96
-355
-161
-85
-323
-180
-10
-245
-228
64
-160
-373
-56
-25
-328
-164
59
-181
-108
208
83
-101
40
93
-61
90
330
59
-60
217
50
-61
167
12
-265
-98
39
-251
-309
-33
-102
-353
-88
-21
-393
-229
9
-230
-290
-82
126
834
1752
1804
1007
346
155
-139
-336
-168
-343
-526
-93
83
-267
-187
57
-180
-205
70
-53
-222
31
21
-222
-45
170
-66
-166
165
1
-239
79
93
-129
84
205
-91
-66
294
151
-61
318
364
100
292
453
284
344
636
558
491
741
799
661
813
1020
740
665
893
730
551
637
593
320
240
312
68
-4
216
-51
-230
68
-12
-291
-158
-2
-222
-275
-26
-115
-269
-65
-33
-289
-196
28
-138
-179
-39
-198
-296
-62
-54
-295
-154
11
-267
-249
41
-150
-285
-76
-77
-192
-133
-74
-282
-304
-49
-204
-342
-96
-73
-269
-211
-95
-274
-300
-47
-173
-335
-86
-93
-295
-163
-74
-311
-341
-183
-265
-263
-52
-131
-364
-201
-71
-254
-250
-137
-244
-347
-133
-89
-315
-139
-52
-368
-341
-86
-191
-341
-111
-72
-306
-216
-45
-263
-324
-36
-151
-327
-81
-101
-302
-123
-67
-286
-208
1
-148
-192
92
89
-139
-48
103
-114
-98
270
132
-100
128
113
-139
13
189
-167
-287
-14
-158
-335
-81
-80
-325
-192
-73
-286
-291
-56
-156
-365
-149
-91
-44
870
1599
1447
1013
512
31
-240
-146
-260
-568
-324
37
-128
-291
-36
-74
-296
-86
-1
-218
-117
50
-203
-189
162
-55
-242
126
49
-305
-78
151
-105
-140
148
99
-67
100
175
-1
156
346
144
189
424
327
287
518
562
404
604
839
611
715
980
756
696
936
938
724
690
707
429
327
518
324
38
146
95
-121
-26
35
-231
-219
25
-190
-358
-82
-90
-358
-151
23
-281
-298
10
-102
-228
-9
-70
-294
-75
126
-242
-309
45
-96
-275
-18
14
-243
-170
-6
-235
-233
31
-105
-273
-107
-23
-223
-235
-70
-237
-243
-8
-180
-342
-1
9
-390
-138
69
-307
-251
10
-166
-314
-71
-30
-309
-166
13
-259
-273
1
-125
-225
-2
-100
-358
-192
0
-202
-235
11
-161
-327
0
-13
-324
-153
22
-232
-130
64
-226
-297
-70
-88
-287
-110
71
-229
-207
48
-149
-210
23
3
-139
-2
229
64
-60
158
48
-102
220
325
49
70
219
17
-33
237
97
-202
-28
-12
-260
-51
82
-252
-270
-14
-156
-318
-74
31
-250
-227
-46
-227
389
1460
1612
1363
929
260
-111
-98
-167
-454
-423
-110
-98
-178
23
-12
-292
-110
73
-177
-141
126
-73
-266
36
87
-210
-51
200
-48
-127
112
-22
-127
209
157
-116
133
306
68
52
353
351
147
348
455
270
487
721
527
512
877
871
633
876
995
797
974
1074
725
702
871
608
385
529
443
87
135
271
-10
-54
124
-29
-128
-39
-109
-285
-128
-19
-274
-275
-24
-126
-308
-88
-71
-325
-80
109
-266
-267
13
-108
-211
20
-24
-306
-79
152
-213
-294
2
-148
-238
-26
-129
-333
-150
-9
-269
-287
-34
-131
-324
-166
4
-221
-269
-7
-225
-315
-12
-177
-356
-100
-44
-322
-242
-41
-278
-290
20
-140
-319
-54
-101
-376
-174
18
-298
-304
-1
-189
-307
-34
-109
-335
-148
-30
-280
-206
38
-200
-329
-30
-61
-307
-130
-40
-289
-267
-21
-153
-316
-25
-83
-310
20
133
-154
-89
200
43
-105
133
117
-99
57
225
-53
-36
251
-36
-250
48
-26
-302
-111
-41
-304
-247
-23
-195
-386
-118
-105
-402
-168
-22
-417
-390
400
1089
1416
1651
1073
79
-13
104
-343
-533
-287
-292
-295
1
-58
-331
-145
20
-192
-211
5
-124
-274
-9
34
-191
-41
64
-78
26
111
-105
-196
85
102
-123
98
244
-78
-37
266
131
100
351
273
124
358
538
352
465
744
617
574
801
835
693
897
1109
799
631
873
722
434
591
517
146
243
354
-29
-71
166
-74
-248
70
11
-363
-182
26
-214
-209
22
-152
-321
-59
3
-264
-134
43
-212
-167
136
-130
-368
-29
0
-250
-78
57
-158
-158
46
-131
-281
35
4
-270
-89
38
-195
-213
58
-97
-272
-27
-43
-256
-93
84
-189
-278
9
-3
-304
-152
41
-218
-142
27
-213
-204
22
-80
-182
-45
-24
-209
-114
26
-174
-123
52
-137
-281
-52
-1
-193
-90
28
-112
-160
20
-70
-235
-3
38
-88
-54
-48
-173
-202
-2
-112
-263
-19
-14
-275
-128
53
-213
-210
44
-132
-208
101
43
-207
-20
192
2
-47
160
21
-99
230
261
-74
32
217
-28
-41
220
-34
-308
-47
-25
-318
-191
-3
-303
-360
-78
-218
-373
-63
-27
-332
-309
-96
297
1097
1716
1513
790
297
50
-311
-345
-208
-506
-406
79
-93
-309
-52
-29
-254
-97
22
-267
-252
18
-101
-261
-18
29
-207
-115
108
-45
-159
47
-54
-205
82
121
-130
40
234
5
0
267
195
54
281
431
225
316
602
466
445
739
653
527
825
855
631
770
900
582
531
705
421
240
340
232
-1
48
66
-231
-238
-49
-201
-312
-141
-169
-400
-300
-148
-347
-286
-72
-281
-402
-109
-120
-399
-177
-46
-333
-273
-46
-154
-285
-149
-94
-263
-286
-188
-320
-312
-105
-257
-402
-163
-138
-400
-281
-81
-308
-390
-137
-210
-432
-236
-126
-383
-332
-119
-315
-364
-144
-276
-392
-155
-178
-405
-201
-39
-374
-336
-57
-304
-423
-102
-125
-410
-193
-47
-284
-244
-83
-229
-361
-68
-26
-327
-202
-90
-263
-212
-40
-128
-298
-140
-90
-320
-172
1
-235
-215
-22
-138
-245
-71
11
-163
-10
199
-68
-89
239
54
-167
169
199
-135
37
284
-82
-170
119
-94
-272
-40
-82
-348
-226
-78
-274
-222
-38
-250
-408
-114
-56
-412
-317
-20
284
1059
1714
1435
600
224
38
-313
-292
-231
-422
-382
-9
-18
-283
-95
-45
-247
-92
16
-213
-203
7
-107
-255
-13
-9
-237
-30
69
-146
-125
59
-49
-122
104
73
-104
74
207
16
46
315
222
144
422
428
197
416
681
468
538
809
717
618
844
931
697
778
899
675
555
697
482
121
309
297
-68
21
153
-163
-188
101
-124
-292
7
-133
-432
-185
-47
-299
-267
-41
-185
-304
-72
-102
-262
-116
-61
-268
-222
104
-77
-349
-34
66
-244
-181
-11
-204
-201
11
-136
-312
-63
58
-275
-217
37
-249
-276
33
-117
-303
-106
-105
-302
-155
-34
-254
-291
-44
-59
-292
-137
-88
-365
-177
19
-254
-259
-4
-123
-264
-39
6
-246
-179
-26
-160
-174
-51
-135
-256
-91
-42
-239
-120
8
-220
-207
36
-109
-243
-15
-17
-215
-166
14
-174
-288
27
-86
-262
87
141
-106
89
227
-33
-19
208
206
71
119
146
-77
54
271
45
-14
110
-86
-268
14
50
-328
-165
68
-178
-165
28
-157
-289
-46
-41
-312
-99
599
1178
1627
1758
954
171
110
-47
-359
-347
-96
-158
-213
48
-65
-208
59
39
-212
-45
142
-64
-124
76
-37
-178
65
78
-105
91
187
-65
-29
245
76
-115
209
345
39
52
294
125
114
434
342
211
503
515
340
611
771
590
697
965
829
742
1043
957
714
888
953
626
493
675
467
170
323
293
-47
11
155
-83
-140
33
-121
-270
-48
-76
-288
-129
-60
-286
-255
-16
-125
-262
-87
-66
-241
-187
-37
-200
-197
29
-114
-207
13
-56
-279
-97
26
-222
-192
90
-129
-353
-30
-43
-338
-171
3
-254
-279
-1
-163
-324
-69
-83
-296
-86
53
-224
-263
-50
-143
-273
-73
-32
-257
-185
5
-198
-264
-21
-66
-277
-128
-48
-327
-197
23
-205
-221
-14
-187
-314
-42
-83
-310
-40
54
-286
-228
31
-109
-240
11
67
-239
-188
-26
-222
-120
35
-178
-206
-47
-126
-262
-93
6
-192
-125
160
52
-44
194
144
-84
155
296
-55
-52
217
77
-70
138
139
-121
5
118
-211
-255
51
-87
-378
-131
-26
-278
-197
-48
-266
-222
55
-174
-430
-69
590
1153
1709
1732
799
144
176
-100
-435
-291
-234
-340
-106
113
-100
-184
77
4
-211
-36
15
-178
-24
114
-134
-110
147
20
-134
80
146
-97
6
245
35
11
288
134
-38
249
303
113
291
477
296
296
545
511
505
785
774
572
791
1024
804
794
1113
970
868
1035
873
632
670
758
430
247
436
266
69
248
171
-127
8
127
-163
-147
112
-85
-148
79
-96
-306
-113
23
-205
-212
33
-83
-228
29
10
-294
-106
68
-108
-52
27
-135
-224
-49
38
-170
-128
29
-183
-213
32
-120
-300
-45
-9
-307
-129
39
-327
-325
42
-136
-356
-55
-124
-380
-148
-15
-268
-322
-27
-69
-391
-168
-70
-325
-152
-59
-299
-316
-45
-165
-397
-134
-87
-389
-231
-9
-314
-307
-23
-240
-384
-124
-105
-291
-175
-20
-277
-337
-80
-247
-377
-69
-98
-406
-195
-4
-284
-285
-103
-264
-377
-133
-114
-329
-167
-2
-275
-239
76
-2
-15
113
33
-157
-70
150
22
-50
136
58
-85
41
25
-189
-139
-32
-275
-256
74
-182
-480
-175
-134
-344
-212
-99
-266
-271
-94
-286
-226
735
1370
1405
1498
840
-74
-93
-32
-427
-588
-283
-165
-308
-183
-15
-204
-243
-16
-147
-298
-48
-60
-271
-31
54
-257
-208
32
-95
-231
47
57
-229
-73
83
-120
-99
175
91
-57
155
248
31
116
347
157
219
517
364
346
707
744
520
727
1004
752
689
952
864
745
823
694
448
498
529
231
125
284
116
-81
135
102
-208
-75
95
-100
-78
-2
-237
-311
-13
16
-284
-186
18
-205
-222
25
-168
-263
74
-9
-298
-126
52
-182
-204
78
-124
-263
28
-9
-256
-91
45
-219
-186
-28
-208
-279
-55
-49
-286
-174
-31
-205
-189
-55
-214
-315
-59
-92
-311
-85
44
-214
-271
-55
-132
-294
-128
-98
-255
-121
17
-240
-258
14
-138
-228
-26
-77
-246
-96
0
-241
-199
-4
-115
-188
-54
-87
-270
-109
106
-183
-250
48
-154
-285
-26
-82
-242
-85
3
-235
-187
138
31
-64
247
159
-183
-16
165
18
39
216
53
-74
185
130
-149
-22
73
-196
-185
89
-159
-342
-29
-75
-320
-149
-29
-296
-255
7
-185
-411
11
793
1295
1641
1500
577
41
95
-92
-383
-343
-233
-285
-117
62
-139
-222
-5
-72
-218
-8
43
-178
-124
14
-168
-129
137
-50
-195
112
76
-202
30
172
-70
-36
233
149
-112
92
241
45
152
327
167
227
535
420
307
617
688
540
710
898
781
779
958
875
749
842
767
557
605
606
307
232
369
86
-114
212
102
-302
-109
43
-211
-186
-2
-154
-272
-63
-86
-336
-136
76
-242
-272
39
-188
-353
-13
-18
-287
-112
35
-249
-196
97
-89
-250
8
-8
-294
-73
39
-261
-179
21
-147
-300
-46
-32
-327
-148
39
-199
-224
60
-56
-367
-124
-20
-304
-172
14
-203
-218
-2
-158
-304
-94
-85
-274
-119
69
-175
-292
-43
-147
-262
20
-25
-255
-98
21
-148
-147
5
-153
-263
56
-18
-291
-55
25
-202
-154
-9
-143
-232
-21
-27
-239
-84
-10
-203
-123
15
-145
-256
14
-13
-338
-122
30
-184
-127
25
-62
-99
193
213
-55
89
239
-3
41
334
102
-71
256
248
-35
140
224
-52
-35
65
-96
-244
-51
5
-251
-105
42
-211
-165
47
-109
-264
-14
-62
-137
864
1670
1575
1285
686
115
-86
-54
-204
-482
-217
39
-203
-151
168
-70
-280
30
10
-231
-46
134
-95
-115
136
-44
-140
111
28
-136
22
140
-5
-3
244
95
-149
164
232
5
216
359
146
213
534
426
263
630
713
443
619
820
674
755
1044
911
741
987
1014
744
806
868
570
532
618
319
126
276
191
-15
121
130
-161
-122
103
-108
-239
80
23
-326
-132
21
-210
-159
59
-118
-291
-20
6
-255
-135
72
-145
-165
65
-161
-272
-29
-71
-265
-94
38
-270
-237
104
-112
-324
-50
-61
-263
-125
-60
-286
-244
29
-123
-310
-73
-82
-337
-174
-15
-224
-200
-20
-219
-270
-25
-134
-337
-143
-5
-234
-240
-8
-186
-310
-28
-64
-324
-174
76
-174
-344
-31
-110
-330
-44
-49
-323
-130
61
-190
-241
24
-112
-300
57
122
-286
-81
71
-325
-225
65
-141
-266
2
-21
-223
-40
62
-128
-128
111
126
17
165
170
-17
77
244
55
19
342
176
-58
189
161
-49
84
176
-93
-194
67
-57
-227
11
-27
-215
-79
21
-187
-169
48
-91
-251
102
813
1379
1804
1730
680
92
204
-144
-414
-250
-205
-296
-61
140
-109
-135
81
-63
-88
110
-26
-153
-11
25
-109
-38
147
-18
-80
113
25
-139
41
211
-42
9
301
58
-54
242
256
65
217
406
197
169
545
505
302
623
726
494
763
978
665
710
986
815
682
900
816
501
584
653
284
205
466
166
-121
105
33
-211
-80
-5
-244
-202
45
-136
-342
-134
-129
-337
-170
-32
-257
-275
-94
-208
-333
-97
-68
-316
-166
-41
-253
-221
-56
-204
-274
-82
-100
-298
-167
4
-281
-309
-54
-242
-379
-110
-186
-419
-202
-85
-319
-305
-99
-259
-332
-45
-115
-445
-270
-74
-362
-340
-92
-287
-373
-92
-187
-436
-205
-61
-363
-350
-107
-351
-350
-10
-206
-430
-229
-117
-266
-287
-167
-316
-412
-170
-184
-401
-236
-97
-363
-342
0
-191
-453
-188
-178
-329
-210
-198
-382
-323
-92
-261
-379
-18
-92
-435
-170
81
-72
-108
63
-81
-229
106
154
-157
-25
108
-137
-86
78
-187
-279
23
-77
-376
-118
-48
-442
-329
-79
-341
-406
-139
-223
-411
-275
-202
-407
0
1056
1444
1347
1100
292
-238
-120
-227
-611
-563
-219
-279
-362
-41
-123
-415
-125
-70
-382
-291
-30
-108
-306
-127
-100
-329
-155
-4
-213
-209
9
-102
-234
38
61
-261
-77
188
-48
-74
308
232
-78
195
300
105
343
518
340
433
679
563
498
818
815
601
853
937
603
580
771
520
314
533
322
-49
95
136
-161
-184
44
-63
-294
-160
-149
-389
-234
-93
-361
-334
-121
-275
-305
-110
-238
-359
-181
-134
-281
-254
-86
-176
-288
-87
-131
-361
-196
-107
-312
-244
11
-112
-347
-171
-136
-347
-192
-105
-305
-267
-88
-200
-348
-118
-54
-319
-207
12
-252
-399
-132
-235
-372
-92
-161
-418
-223
-74
-301
-282
-99
-260
-362
-74
-69
-387
-264
-63
-300
-298
0
-190
-368
-109
-109
-328
-199
-65
-301
-277
-22
-162
-242
20
-93
-380
-180
-20
-227
-213
-23
-154
-272
-60
-58
-308
-176
-33
-287
-202
62
-234
-288
13
-133
-319
-95
65
-127
-42
224
18
-91
142
71
-48
177
256
27
-22
109
-4
-90
75
48
-228
-175
-10
-269
-275
-25
-205
-322
-83
-108
-264
-109
-57
-323
-353
-126
154
913
1690
1575
808
318
162
-239
-386
-240
-352
-396
-127
-66
-290
-131
36
-250
-263
66
-84
-289
-58
-70
-246
-131
43
-101
-174
40
-87
-201
45
24
-146
18
140
-121
-93
261
146
-22
287
282
59
326
473
261
309
580
521
470
794
814
602
837
978
738
775
955
820
625
705
630
305
402
436
35
40
261
6
-201
4
3
-246
-136
44
-230
-219
32
-249
-336
-38
-104
-280
-128
-12
-215
-241
-15
-181
-287
47
-37
-279
-3
12
-322
-209
38
-172
-301
-17
7
-261
-190
-79
-277
-201
-37
-221
-235
-48
-91
-253
-196
-81
-262
-214
44
-223
-356
-14
-98
-362
-137
-28
-254
-179
-31
-237
-310
-70
-109
-332
-177
-21
-266
-249
-28
-160
-176
-82
-217
-242
-92
-120
-296
-241
-19
-192
-300
-8
-117
-360
-175
-84
-296
-197
55
-74
-192
-146
-208
-309
-153
-57
-302
-276
-28
-200
-336
-38
-49
-253
44
201
-102
-26
230
-57
-185
217
203
-98
53
191
-93
-126
138
-56
-237
-31
-167
-409
-217
-134
-403
-298
5
-299
-484
-186
-166
-365
-289
-216
-334
355
1403
1542
1240
802
179
-228
-208
-211
-578
-487
-85
-286
-359
6
-89
-382
-186
41
-195
-333
-72
-170
-316
-11
-83
-286
-10
-24
-295
-165
37
-71
-186
6
67
-110
8
173
-49
-74
247
192
48
320
361
211
440
551
344
471
826
714
611
918
864
684
899
1006
780
641
761
567
295
476
389
56
161
197
-90
-112
93
-62
-312
-72
-50
-330
-77
-10
-366
-275
-56
-220
-341
-71
-39
-325
-192
6
-205
-246
-24
-127
-236
-28
-29
-198
-124
-17
-215
-237
48
-98
-281
-26
-45
-303
-118
-13
-312
-245
5
-171
-346
-27
54
-362
-259
-18
-272
-286
-46
-195
-324
-62
-57
-322
-167
9
-251
-259
-22
-203
-358
28
9
-414
-242
0
-271
-327
-52
-208
-323
-24
-68
-322
-129
2
-289
-276
-19
-167
-298
-48
-35
-293
-204
-60
-286
-276
-11
-138
-224
4
-113
-353
-124
19
-217
-127
183
-3
-131
196
72
-234
58
293
9
-128
113
65
-108
127
134
-206
-133
-16
-248
-246
-41
-226
-293
-39
-190
-379
-119
-26
-340
-272
-44
-209
268
1342
1682
1306
783
321
-115
-282
-107
-320
-590
-239
-103
-301
-110
-4
-239
-176
67
-114
-245
-7
-37
-195
-47
38
-131
-108
92
28
-115
27
1
-214
-14
129
-59
-20
191
56
2
285
178
-6
240
405
240
290
508
398
395
683
691
550
753
911
719
743
921
713
533
708
752
416
281
412
163
14
186
9
-152
52
39
-235
-128
37
-250
-221
57
-153
-314
-62
8
-236
-173
-30
-264
-239
46
-128
-306
-17
-54
-303
-37
25
-258
-137
37
-174
-210
34
-47
-271
-137
40
-196
-232
-6
-173
-285
-12
-37
-274
-100
-16
-269
-227
15
-95
-263
-95
-91
-273
-115
-15
-260
-226
8
-164
-297
-76
-68
-263
-110
68
-237
-292
3
-196
-376
-83
-10
-261
-211
-74
-275
-252
-6
-160
-320
-47
-22
-261
-156
-28
-237
-272
-32
-160
-278
-18
-78
-357
-139
44
-181
-122
150
57
-93
100
56
-179
77
322
32
-76
181
84
-117
65
45
-232
-138
-21
-261
-316
-62
-157
-324
-49
-59
-289
-170
-116
-304
-268
-82
-220
170
1265
1658
1352
955
424
-75
-164
-98
-354
-425
-120
-9
-161
-125
17
-149
-162
82
-55
-199
45
35
-202
-96
54
-67
48
191
-91
-154
111
103
-81
22
162
58
33
186
143
28
260
306
147
312
446
275
329
635
552
467
809
850
591
788
1019
788
770
1056
893
645
793
697
415
489
498
182
109
276
88
-61
115
-13
-265
-36
37
-266
-153
10
-137
-195
-52
-65
-251
-101
45
-188
-170
127
-4
-242
2
74
-182
-69
53
-159
-109
113
-115
-283
1
-6
-247
-94
13
-196
-198
-18
-110
-270
-91
-60
-306
-166
27
-215
-280
-1
-92
-318
-94
-61
-343
-173
-27
-293
-200
-19
-219
-286
-86
-117
-331
-182
-17
-243
-224
-9
-193
-317
-16
3
-276
-26
37
-396
-303
12
-168
-288
-27
-66
-258
-126
-47
-271
-224
13
-168
-291
-32
22
-267
-186
5
-245
-222
22
-132
-207
97
157
-49
74
167
-97
-56
271
192
-10
164
215
-42
41
228
2
-105
44
-107
-207
24
-73
-361
-215
-38
-267
-260
33
-89
-310
-109
-135
-334
515
1496
1484
1349
954
162
-141
-69
-212
-438
-350
-158
-198
-151
54
-56
-234
-36
-15
-266
-111
42
-166
-131
72
-80
-175
58
69
-123
-37
118
-47
-100
131
93
-105
68
169
-10
117
271
83
147
442
292
207
577
580
368
618
777
575
668
951
839
727
954
928
691
807
863
491
410
607
309
42
217
195
-70
-40
64
-205
-247
23
-127
-313
-74
-78
-305
-149
-56
-310
-212
9
-187
-224
-58
-113
-255
-137
18
-190
-200
55
-94
-235
-5
-15
-255
-95
52
-209
-138
108
-68
-220
-83
-64
-249
-102
80
-175
-241
-3
-87
-283
-40
-3
-258
-67
75
-120
-122
10
-141
-232
49
38
-210
-29
89
-166
-101
129
-14
-175
11
37
-184
4
155
-99
-132
101
13
-192
43
85
-172
-36
106
-122
-138
94
-7
-136
63
47
-201
38
203
-222
-186
111
-20
-125
5
33
-141
28
243
64
101
295
112
-39
202
308
159
184
233
-6
-17
287
85
-171
60
-57
-295
-70
-100
-354
-205
-2
-131
-288
-168
-128
-332
-224
-88
-369
-59
994
1450
1445
1353
550
-151
-105
-149
-467
-466
-250
-232
-179
-51
-180
-383
-156
-3
-270
-244
-16
-169
-293
-57
-77
-291
-168
-28
-177
-211
-14
-127
-236
34
-11
-223
6
141
-96
-78
186
73
-56
313
362
46
239
508
393
381
599
542
416
688
804
619
775
873
606
631
781
572
402
478
307
49
161
155
-115
-160
-45
-161
-297
-121
-158
-410
-210
-54
-374
-358
-108
-284
-382
-172
-190
-346
-213
-21
-267
-337
-49
-271
-448
-147
-132
-339
-238
-124
-331
-306
-86
-278
-410
-104
-133
-438
-305
-98
-286
-383
-101
-236
-486
-166
-165
-484
-293
-106
-340
-324
-129
-317
-436
-177
-190
-476
-301
-86
-298
-288
-85
-243
-374
-135
-125
-350
-225
-121
-340
-315
-22
-175
-437
-157
-141
-395
-184
-60
-319
-347
-157
-254
-379
-152
-80
-340
-266
-87
-276
-266
21
-146
-371
-37
30
-238
-15
217
-79
-137
181
47
-120
152
143
-71
22
132
-8
-93
82
22
-271
-90
23
-309
-170
12
-285
-245
-32
-252
-362
-29
15
-334
-314
94
601
1304
1765
1244
377
183
-15
-379
-267
-202
-456
-332
-3
-121
-275
26
35
-353
-165
28
-205
-143
64
-78
-183
54
89
-86
-18
35
-127
-70
181
12
-180
102
155
-54
152
304
43
66
359
264
143
426
461
275
506
761
538
493
869
784
565
879
923
700
874
890
567
546
685
453
234
370
324
40
43
152
-71
-112
124
-80
-288
-61
-88
-309
-110
14
-241
-230
-11
-125
-257
-48
-53
-265
-93
60
-211
-142
207
-124
-353
15
33
-255
-177
22
-165
-220
10
-111
-276
-60
-68
-241
-61
-44
-275
-221
-18
-172
-307
-42
-94
-238
-40
-102
-335
-234
-65
-180
-237
-103
-141
-331
-178
-39
-319
-278
-15
-190
-306
-79
-117
-310
-111
43
-263
-270
48
-149
-353
-96
-95
-300
-99
13
-276
-247
-3
-167
-305
-77
-95
-294
-132
-22
-176
-152
4
-78
-220
44
157
-40
76
148
-69
-35
261
166
-6
226
179
-135
-2
158
-89
-121
25
-139
-203
-38
-118
-332
-174
-35
-278
-224
-3
-175
-303
-90
-163
-381
344
1349
1563
1428
1001
262
-85
-35
-207
-518
-339
-16
-173
-207
72
-115
-265
45
-1
-245
-122
25
-171
-170
108
-39
-249
24
89
-167
0
176
-86
-115
209
139
-116
117
222
20
172
341
136
142
444
343
234
506
549
395
602
786
595
717
936
751
706
969
947
701
787
839
542
425
538
297
59
257
202
-68
78
158
-193
-255
-3
-127
-297
-77
-49
-275
-153
-3
-250
-234
1
-165
-331
-117
34
-179
-191
-16
-151
-219
-53
-131
-264
-52
-33
-269
-149
-12
-271
-251
5
-203
-299
-42
-123
-345
-155
-16
-290
-281
-78
-233
-295
-73
-145
-367
-192
-51
-204
-229
-118
-243
-348
-79
-87
-326
-180
-90
-278
-261
-67
-146
-299
-134
-111
-317
-134
50
-295
-331
-20
-91
-238
-126
-103
-292
-171
-48
-294
-267
-21
-138
-282
-67
-90
-305
-43
-11
-305
-169
4
-165
-253
-31
-24
-205
-63
-17
-286
-176
113
-134
-292
13
-19
-262
-1
110
-236
-167
93
-41
-165
23
28
-210
-49
123
-174
-151
199
-68
-318
102
243
36
169
275
55
78
302
185
7
153
143
-43
84
133
-21
51
124
-126
-204
66
16
-222
-14
127
-187
-168
102
-63
-248
11
512
1154
1831
1836
902
186
210
-6
-339
-261
-279
-339
-83
69
-151
-128
105
-56
-178
55
5
-161
28
83
-128
-99
89
-42
-162
64
92
-175
-76
163
-11
-7
248
85
-71
198
260
99
244
297
67
184
503
428
289
501
571
442
672
833
585
654
951
808
656
812
716
482
607
644
263
186
425
131
-129
110
6
-287
-120
14
-219
-272
-127
-224
-309
-143
-175
-357
-199
-101
-306
-278
-107
-213
-322
-136
-117
-308
-115
22
-306
-314
-40
-199
-359
-65
-80
-407
-225
-48
-263
-244
-90
-235
-319
-118
-141
-355
-242
-118
-290
-306
-128
-207
-347
-162
-194
-460
-237
-33
-333
-341
-12
-200
-413
-197
-212
-427
-280
-142
-371
-363
-126
-266
-417
-173
-208
-396
-162
-112
-410
-351
-110
-289
-437
-131
-121
-416
-268
-131
-369
-341
-63
-243
-413
-126
-233
-460
-197
-117
-370
-383
-135
-243
-437
-152
-156
-449
-246
-65
-288
-208
170
15
-260
-50
-43
-198
35
113
-153
-124
75
-28
-130
-7
-106
-342
-170
-98
-377
-331
-138
-301
-460
-220
-215
-472
-263
-144
-454
-446
-224
-108
484
1418
1586
938
396
157
-200
-405
-285
-417
-524
-235
-168
-395
-220
-28
-332
-350
17
-138
-411
-100
-69
-380
-175
-8
-278
-240
-4
-166
-245
25
-3
-215
-85
15
-179
-65
164
-70
-111
171
115
-53
141
358
164
175
528
455
338
632
670
522
799
889
579
654
970
797
567
707
545
254
347
352
50
-25
133
-22
-172
50
32
-235
-149
-53
-266
-243
4
-180
-300
-18
-131
-364
-133
-11
-220
-218
-33
-77
-233
-104
-47
-263
-129
63
-194
-227
34
-59
-252
-54
5
-300
-155
55
-277
-314
-31
-164
-296
-52
-109
-377
-188
-13
-242
-261
-29
-196
-341
-82
-40
-203
-183
-140
-286
-231
6
-163
-311
-74
-50
-296
-166
54
-231
-284
-5
-144
-262
6
-30
-244
-80
18
-229
-238
29
-146
-292
7
-28
-258
-82
32
-190
-142
84
-142
-264
44
82
-96
118
293
-28
-52
225
132
16
249
234
-85
55
233
-35
-46
172
-106
-327
