0
0
0
0
0
0
0
0
0
0
0
0
0
0
0
0
0
0
0
0
0
0
0
0
0
0
0
0
0
0
0
0
0
0
0
0
0
0
0
0
0
0
0
0
0
0
0
0
0
0
0
0
0
0
0
0
0
0
0
0
0
0
0
0
0
0
0
0
0
0
0
0
0
0
0
0
0
0
0
0
0
0
0
0
0
0
0
0
0
0
0
0
0
0
0
0
0
0
0
0
0
0
0
0
0
0
0
0
0
0
0
0
0
0
0
0
0
0
0
0
0
0
0
0
0
0
0
0
0
0
0
0
0
0
0
0
0
0
0
0
0
0
0
0
0
0
0
0
0
0
0
0
0
0
0
0
0
0
0
0
0
0
0
0
0
0
0
0
0
0
0
0
0
0
0
0
0
0
0
0
0
0
0
0
0
0
0
0
0
0
0
0
0
0
0
0
0
0
0
0
-229
-372
-362
-276
-340
-372
-279
-290
-368
-282
-265
-355
-313
-212
-272
-342
-249
-258
-398
-267
-162
-352
-319
-192
-317
-316
-170
-217
-310
-253
-258
-356
-285
-280
-375
-275
-197
-302
-318
-252
-290
-391
-318
-260
-387
-343
-288
-312
-346
-362
-264
-365
-395
-289
-376
-282
-259
-422
-356
-261
-309
-403
-368
-278
-289
-253
-286
-394
-385
-275
-230
-351
-365
-285
-341
-366
-285
-295
-363
-254
-194
-340
-278
-214
-306
-232
-209
-316
-317
-237
-247
-293
-178
-155
-232
-195
-119
-141
-202
-73
-53
-122
24
96
-22
-17
121
-23
-262
-224
-228
-275
-249
-251
-279
-276
-247
-322
-305
-190
-293
-396
-276
-228
-343
-332
-242
-277
-316
-222
-180
-358
-434
-383
-281
352
1445
2334
2808
2374
1064
127
-166
-229
-199
-121
12
8
-78
-56
-20
-29
-30
-17
-28
-52
26
61
-79
6
97
-29
45
123
75
157
218
118
98
217
246
196
257
384
365
353
511
530
543
728
789
811
884
1023
1050
1048
1243
1312
1255
1315
1374
1311
1322
1274
1011
865
830
614
479
410
143
-21
-33
-93
-151
-150
-108
-185
-337
-311
-253
-335
-319
-231
-363
-374
-217
-284
-316
-271
-277
-271
-308
-261
-240
-290
-186
-224
-361
-254
-217
-299
-180
-139
-336
-327
-163
-287
-372
-217
-222
-315
-269
-225
-313
-269
-226
-346
-288
-189
-259
-350
-256
-223
-398
-310
-159
-260
-311
-266
-277
-320
-246
-223
-356
-309
-189
-252
-304
-227
-240
-346
-281
-232
-274
-215
-156
-232
-409
-310
-136
-236
-227
-135
-219
-275
-176
-251
-332
-136
-195
-285
-149
-168
-247
-260
-179
-235
-299
-157
-151
-263
-189
-107
-210
-173
-36
-196
-204
78
41
-133
-5
161
31
5
203
150
28
86
-13
-189
-158
-138
-214
-214
-194
-238
-177
-147
-249
-246
-231
-254
-265
-294
-189
-198
-316
-207
-190
-219
-150
-182
-357
-381
-125
292
1120
2200
2796
2246
1061
237
-192
-292
-174
-154
-57
48
-60
-37
58
36
-83
-95
98
22
-70
103
85
-31
68
134
19
50
157
143
149
217
132
103
277
387
307
259
477
422
290
561
723
632
724
897
808
914
1132
1085
1104
1258
1303
1282
1361
1354
1206
1169
1153
876
626
614
442
225
240
147
-85
-119
-107
-217
-257
-207
-282
-399
-325
-279
-359
-315
-290
-437
-425
-252
-262
-381
-327
-262
-363
-328
-269
-365
-332
-206
-298
-383
-184
-169
-352
-240
-137
-274
-254
-167
-244
-333
-288
-227
-338
-318
-176
-327
-402
-229
-282
-369
-233
-236
-401
-348
-189
-277
-343
-292
-298
-343
-354
-282
-358
-413
-311
-349
-389
-326
-313
-364
-347
-283
-362
-357
-272
-322
-338
-282
-294
-356
-304
-283
-357
-291
-276
-384
-375
-277
-276
-392
-342
-169
-340
-434
-221
-308
-403
-231
-199
-331
-270
-231
-395
-359
-210
-204
-229
-199
-194
-206
-69
-87
-224
-143
-5
12
-52
86
99
-91
-51
-108
-328
-333
-252
-300
-308
-202
-266
-390
-293
-283
-377
-307
-259
-307
-328
-273
-262
-347
-256
-205
-362
-332
-203
-346
-453
-193
205
927
2078
2857
2460
1220
330
-66
-321
-245
-72
-109
-33
64
-75
-56
2
-98
-30
116
45
-61
14
95
50
24
63
30
3
156
170
95
204
192
98
222
341
300
328
409
418
421
568
667
613
717
866
843
900
1124
1219
1189
1233
1321
1338
1344
1432
1395
1287
1141
918
786
719
557
249
161
246
75
-85
-36
-130
-266
-190
-212
-343
-285
-181
-279
-303
-159
-272
-427
-360
-221
-268
-315
-245
-296
-267
-227
-294
-321
-268
-229
-284
-253
-166
-240
-280
-210
-200
-294
-262
-186
-306
-291
-145
-256
-398
-248
-261
-437
-310
-245
-336
-280
-318
-419
-370
-263
-328
-446
-340
-299
-345
-283
-281
-412
-427
-267
-317
-441
-361
-330
-374
-365
-363
-402
-391
-307
-317
-417
-371
-349
-407
-334
-293
-391
-358
-215
-347
-458
-307
-289
-341
-305
-315
-361
-384
-304
-257
-384
-388
-289
-369
-372
-279
-350
-356
-261
-306
-344
-262
-261
-331
-280
-196
-236
-188
-98
-194
-236
-106
-53
-128
-7
166
5
-63
1
-253
-389
-197
-177
-335
-252
-167
-325
-303
-178
-364
-488
-314
-282
-360
-294
-221
-343
-334
-154
-202
-305
-242
-247
-449
-392
21
636
1550
2476
2770
1860
666
147
-231
-336
-116
-109
-113
57
-19
-176
-15
13
-136
-29
0
-69
42
52
8
3
17
43
21
114
201
128
119
194
185
152
272
346
277
358
441
416
457
640
690
618
788
886
880
1026
1138
1130
1198
1357
1348
1279
1415
1408
1168
1146
1148
900
713
654
455
222
218
202
-92
-176
8
-111
-248
-146
-161
-292
-242
-186
-278
-278
-258
-283
-274
-204
-229
-327
-233
-171
-236
-183
-175
-228
-230
-157
-114
-222
-173
-103
-217
-201
-79
-163
-230
-112
-144
-234
-200
-208
-261
-182
-166
-302
-257
-197
-255
-218
-197
-283
-331
-238
-214
-352
-228
-74
-284
-355
-228
-266
-307
-202
-183
-294
-290
-249
-308
-333
-243
-204
-286
-248
-204
-274
-286
-252
-288
-289
-174
-274
-385
-205
-209
-349
-239
-180
-255
-303
-280
-249
-310
-209
-134
-265
-259
-195
-315
-284
-161
-236
-214
-195
-270
-264
-170
-87
-181
-225
-48
-15
-131
-65
19
-30
27
137
86
110
203
49
-198
-227
-172
-248
-280
-209
-229
-269
-202
-215
-279
-195
-191
-256
-208
-189
-293
-334
-163
-181
-287
-173
-157
-286
-381
-390
-320
26
895
1872
2500
2635
1727
391
-104
-96
-212
-278
-28
113
-70
-31
47
-23
16
32
-23
-44
54
45
-84
9
161
81
29
151
71
37
248
202
108
227
225
192
292
367
381
358
444
564
520
629
834
729
781
1058
1050
1016
1195
1223
1091
1355
1476
1187
1246
1397
1129
925
904
642
437
408
311
156
62
19
-185
-260
-127
-162
-282
-282
-254
-385
-409
-248
-284
-360
-278
-328
-372
-250
-266
-401
-324
-176
-278
-332
-237
-291
-332
-213
-208
-322
-248
-141
-231
-291
-178
-172
-346
-272
-93
-250
-312
-156
-302
-391
-238
-257
-345
-256
-167
-323
-405
-236
-272
-401
-263
-239
-371
-285
-198
-329
-252
-105
-363
-423
-219
-348
-419
-223
-193
-323
-305
-267
-327
-313
-231
-261
-338
-307
-259
-282
-304
-277
-284
-341
-219
-168
-381
-309
-187
-352
-316
-158
-281
-341
-252
-255
-274
-249
-168
-269
-377
-170
-168
-331
-201
-214
-353
-179
-139
-272
-188
-110
-151
-143
-58
-42
-121
-17
87
-51
-23
167
156
27
-52
-190
-265
-162
-218
-330
-277
-201
-252
-319
-273
-304
-323
-271
-279
-409
-342
-128
-298
-426
-228
-184
-275
-271
-326
-530
-472
49
753
1690
2652
2784
1686
501
76
-183
-430
-191
22
-107
-8
-23
-152
-7
28
-80
-99
-55
-56
-104
23
41
-61
45
57
-73
1
189
62
-10
164
173
177
282
363
308
266
423
462
453
598
598
601
773
887
895
1003
1170
1106
1089
1309
1371
1305
1379
1453
1239
1117
1189
917
703
705
466
182
182
155
-81
-144
-112
-233
-235
-153
-233
-313
-265
-249
-350
-358
-180
-249
-451
-268
-221
-380
-262
-230
-341
-294
-161
-225
-349
-204
-231
-363
-244
-180
-294
-309
-193
-219
-308
-267
-242
-322
-301
-202
-298
-327
-214
-333
-367
-219
-293
-375
-272
-223
-346
-414
-220
-234
-342
-218
-349
-436
-230
-214
-305
-223
-214
-316
-306
-236
-287
-315
-203
-240
-380
-301
-128
-216
-357
-262
-289
-359
-166
-181
-331
-262
-223
-288
-234
-158
-286
-363
-196
-190
-358
-300
-176
-254
-251
-125
-253
-340
-182
-189
-252
-196
-168
-225
-294
-154
-83
-224
-148
-70
-157
-100
-7
-42
-27
81
9
-25
182
208
88
86
-4
-240
-252
-122
-155
-211
-168
-145
-253
-223
-138
-250
-281
-186
-234
-287
-161
-161
-214
-136
-143
-212
-190
-153
-285
-469
-279
274
957
1845
2741
2528
1220
360
-60
-328
-221
-98
-18
52
67
-53
-111
42
20
-67
26
71
-19
32
125
15
44
172
79
14
172
190
84
224
306
184
196
308
292
240
412
496
414
535
636
588
693
890
867
888
1069
1069
1068
1257
1325
1246
1356
1411
1235
1180
1201
1006
713
646
636
385
211
239
143
-32
-66
-115
-204
-154
-148
-267
-283
-191
-251
-322
-233
-239
-301
-220
-213
-238
-240
-201
-205
-303
-176
-170
-296
-187
-122
-197
-157
-102
-212
-175
-46
-133
-204
-149
-160
-226
-196
-96
-174
-272
-146
-147
-265
-190
-179
-335
-293
-134
-205
-268
-232
-281
-276
-193
-176
-313
-339
-192
-225
-244
-172
-288
-355
-267
-195
-286
-340
-259
-269
-259
-206
-266
-341
-230
-168
-253
-235
-181
-274
-336
-212
-172
-318
-289
-123
-246
-286
-149
-255
-317
-196
-209
-297
-193
-162
-324
-285
-202
-271
-160
-155
-290
-240
-146
-119
-228
-196
-19
-64
-129
-36
-51
-100
20
147
128
93
178
59
-111
-18
-73
-203
-148
-98
-186
-189
-162
-271
-259
-167
-214
-248
-222
-233
-270
-239
-170
-257
-251
-127
-144
-195
-183
-293
-460
-282
238
1008
1946
2756
2707
1542
507
117
-214
-262
25
-16
-120
51
57
6
72
26
-73
-24
94
75
3
135
165
35
138
210
67
66
214
174
141
293
285
183
310
371
247
380
489
416
508
662
708
696
813
922
960
1068
1167
1157
1184
1384
1422
1341
1428
1379
1195
1174
1129
878
660
604
422
230
216
133
-30
-81
-81
-193
-290
-207
-231
-387
-281
-184
-310
-330
-254
-300
-380
-315
-292
-340
-219
-164
-309
-339
-227
-274
-307
-175
-195
-255
-184
-199
-277
-149
-94
-294
-306
-147
-188
-267
-163
-169
-315
-304
-236
-310
-287
-148
-224
-309
-191
-207
-382
-266
-77
-309
-360
-206
-261
-277
-228
-239
-331
-304
-196
-274
-360
-215
-197
-307
-181
-178
-338
-247
-147
-255
-311
-238
-244
-296
-210
-182
-299
-250
-197
-300
-301
-218
-239
-303
-246
-208
-292
-264
-151
-260
-318
-123
-151
-309
-270
-232
-309
-254
-96
-223
-306
-177
-220
-233
-104
-16
-88
-137
-63
-104
-49
77
56
-7
57
178
96
57
17
-201
-280
-156
-163
-307
-157
-32
-313
-286
-64
-256
-310
-145
-170
-279
-178
-130
-285
-263
-133
-168
-196
-168
-306
-471
-323
217
1022
2014
2805
2717
1522
432
24
-254
-262
-135
-45
99
76
-58
-56
44
25
-73
37
94
-34
-19
97
86
39
115
126
54
153
238
140
149
218
169
218
314
300
304
352
404
448
538
611
553
678
958
871
864
1067
1114
1127
1195
1346
1346
1306
1425
1345
1121
1130
1098
796
661
663
427
242
250
104
-98
-75
-97
-211
-166
-165
-268
-205
-203
-289
-282
-291
-300
-337
-293
-242
-328
-307
-207
-305
-359
-213
-227
-300
-147
-109
-284
-298
-261
-266
-238
-195
-194
-259
-242
-251
-316
-217
-165
-313
-329
-216
-274
-405
-324
-179
-329
-414
-232
-293
-378
-239
-259
-333
-257
-252
-328
-329
-308
-356
-401
-280
-236
-379
-346
-295
-392
-372
-285
-366
-393
-237
-245
-327
-300
-279
-348
-321
-189
-284
-364
-260
-232
-356
-344
-280
-361
-333
-189
-235
-415
-290
-183
-316
-326
-232
-225
-258
-200
-262
-311
-178
-131
-175
-142
-69
-130
-124
-47
-71
-22
48
86
83
52
85
-83
-259
-151
-243
-318
-140
-192
-305
-262
-192
-245
-317
-205
-239
-366
-262
-229
-278
-245
-234
-264
-293
-212
-216
-325
-367
-452
-347
253
1164
1956
2576
2374
1070
79
-170
-289
-383
-192
55
-52
-111
17
-104
-196
-43
-40
-117
-31
-2
-110
-53
43
5
-14
36
103
18
80
216
16
26
175
149
231
315
316
250
314
480
464
533
704
693
654
847
950
967
1158
1165
1099
1211
1307
1284
1206
1243
1194
982
901
825
610
446
380
165
12
52
-26
-149
-175
-173
-267
-303
-240
-315
-352
-254
-271
-402
-303
-256
-425
-312
-223
-334
-290
-197
-249
-339
-224
-155
-288
-286
-156
-179
-210
-72
-171
-291
-171
-235
-308
-224
-151
-197
-269
-159
-228
-368
-200
-132
-331
-371
-168
-183
-325
-274
-231
-313
-279
-197
-308
-334
-242
-334
-372
-229
-275
-365
-239
-219
-359
-330
-232
-300
-354
-239
-248
-338
-322
-268
-363
-418
-197
-276
-427
-290
-297
-361
-258
-226
-361
-333
-212
-280
-322
-230
-282
-328
-230
-250
-320
-288
-225
-303
-371
-247
-194
-250
-208
-160
-253
-198
-88
-182
-180
-67
-103
-126
58
55
-107
2
148
-6
-269
-248
-230
-369
-235
-208
-343
-261
-212
-249
-362
-317
-284
-423
-341
-297
-372
-301
-263
-355
-438
-276
-161
-366
-382
-390
-422
234
1279
2015
2640
2461
1116
107
-151
-301
-450
-239
18
-51
-131
-115
-88
-173
-127
-28
-150
-128
-41
-114
-71
23
-32
-122
-38
82
38
36
99
96
77
187
234
153
251
336
257
304
466
496
526
710
732
720
858
970
1005
1090
1250
1211
1189
1366
1400
1231
1237
1262
991
929
886
556
441
376
184
11
-17
1
-171
-227
-190
-336
-375
-228
-272
-406
-271
-224
-408
-381
-286
-393
-388
-224
-288
-407
-242
-176
-312
-268
-176
-323
-366
-153
-255
-402
-183
-246
-404
-224
-206
-306
-253
-256
-305
-290
-258
-268
-335
-344
-317
-361
-351
-276
-333
-381
-292
-318
-413
-263
-177
-376
-411
-307
-364
-399
-294
-284
-394
-330
-240
-342
-329
-208
-329
-444
-265
-151
-325
-329
-212
-354
-353
-236
-302
-309
-240
-271
-366
-318
-201
-237
-271
-178
-249
-343
-134
-157
-425
-346
-140
-243
-330
-154
-167
-328
-218
-171
-358
-177
15
-172
-127
63
-39
-143
4
48
21
108
140
7
-116
-105
-232
-296
-125
-120
-290
-298
-206
-305
-357
-205
-232
-320
-228
-168
-323
-325
-175
-251
-300
-220
-204
-292
-224
-303
-464
-203
347
1107
1987
2720
2365
1004
211
-16
-291
-320
-112
-22
-27
32
-40
-68
31
15
-41
10
101
9
-44
102
83
31
152
154
60
110
208
151
188
293
203
207
307
349
317
397
590
519
464
658
682
658
837
925
890
1045
1142
1047
1242
1441
1252
1230
1374
1248
1076
1090
1062
805
509
455
364
139
112
52
-84
-83
-67
-249
-263
-93
-213
-308
-296
-264
-253
-377
-288
-239
-320
-201
-277
-390
-257
-239
-286
-209
-195
-294
-247
-169
-216
-192
-152
-233
-215
-79
-104
-223
-256
-190
-164
-261
-224
-185
-266
-171
-183
-368
-296
-192
-299
-339
-250
-192
-270
-360
-272
-314
-366
-177
-263
-413
-235
-255
-408
-305
-257
-353
-292
-180
-274
-366
-291
-322
-381
-271
-249
-321
-288
-225
-300
-357
-231
-245
-358
-265
-191
-274
-301
-216
-244
-276
-193
-248
-332
-200
-179
-325
-277
-204
-279
-251
-116
-133
-177
-109
-72
-179
-209
-64
-35
-87
11
54
53
108
-84
-339
-324
-203
-260
-275
-120
-219
-388
-338
-245
-292
-303
-163
-295
-402
-206
-217
-365
-308
-206
-319
-370
-250
-361
-483
-142
493
1244
2222
2815
2128
821
126
-134
-316
-222
-86
-43
42
11
-48
2
45
-2
-135
34
152
-125
-54
99
-1
14
90
68
23
150
154
35
142
247
250
251
286
267
220
393
502
490
554
603
599
680
859
880
855
1047
1218
1153
1203
1322
1232
1266
1375
1169
1079
1153
904
589
596
548
221
105
89
-79
-146
-119
-193
-300
-253
-218
-348
-348
-294
-362
-365
-285
-315
-365
-285
-272
-345
-360
-259
-272
-328
-180
-200
-339
-320
-201
-241
-298
-187
-271
-310
-129
-181
-327
-176
-150
-339
-231
-135
-295
-316
-197
-224
-309
-248
-187
-292
-340
-217
-227
-296
-257
-284
-341
-251
-224
-306
-288
-268
-260
-279
-231
-181
-323
-309
-141
-285
-336
-176
-298
-310
-141
-311
-365
-195
-292
-273
-195
-229
-274
-319
-171
-177
-287
-212
-205
-239
-230
-220
-237
-225
-176
-330
-455
-249
-149
-309
-299
-162
-269
-251
-71
-171
-248
-76
-20
-143
-88
24
-57
-33
96
91
-37
-202
-224
-226
-241
-112
-210
-364
-228
-271
-368
-207
-154
-344
-324
-214
-283
-286
-210
-212
-265
-159
-166
-361
-355
-338
-345
115
1068
2037
2758
2661
1368
216
-81
-175
-247
-201
-32
2
-79
-37
-15
-70
-33
-3
-82
-21
87
-48
-116
71
44
-61
99
148
0
24
166
183
126
176
244
197
280
372
326
347
469
439
486
761
760
692
835
971
988
1016
1152
1143
1127
1318
1360
1234
1281
1304
1052
848
817
639
374
320
293
87
-48
-52
-183
-216
-161
-268
-327
-257
-214
-366
-426
-252
-345
-433
-252
-267
-330
-250
-242
-346
-272
-170
-363
-376
-196
-199
-264
-203
-164
-305
-329
-185
-154
-219
-175
-220
-376
-254
-170
-362
-304
-145
-241
-246
-245
-338
-333
-319
-271
-289
-372
-331
-283
-324
-285
-333
-437
-344
-320
-402
-341
-252
-354
-367
-249
-333
-421
-275
-346
-472
-390
-330
-325
-369
-288
-290
-384
-322
-290
-335
-299
-272
-383
-408
-248
-269
-385
-242
-239
-364
-308
-241
-301
-350
-221
-273
-367
-148
-134
-317
-198
-111
-227
-178
-78
-175
-240
-77
30
-17
60
69
-147
-219
-156
-240
-349
-274
-198
-275
-280
-246
-353
-276
-168
-344
-349
-264
-291
-298
-297
-218
-234
-268
-171
-242
-372
-364
-268
177
1107
2110
2656
2281
1124
157
-218
-271
-274
-207
-38
-10
-82
-59
6
-64
-106
-8
-43
-145
-33
34
-127
-81
117
58
14
122
88
55
134
188
181
176
223
210
226
326
393
420
442
536
538
571
818
849
817
981
998
1022
1170
1245
1223
1298
1410
1215
1139
1217
1035
895
808
591
376
281
149
-40
-76
-32
-90
-245
-253
-148
-235
-315
-243
-295
-347
-267
-268
-364
-324
-221
-296
-297
-190
-220
-275
-218
-199
-305
-225
-164
-295
-267
-153
-171
-222
-131
-155
-297
-186
-132
-280
-217
-73
-229
-344
-150
-151
-312
-231
-145
-237
-272
-185
-234
-300
-208
-216
-281
-234
-219
-304
-340
-225
-268
-350
-173
-250
-402
-243
-172
-298
-314
-227
-305
-321
-204
-194
-280
-245
-195
-310
-298
-237
-292
-280
-203
-196
-350
-321
-171
-242
-226
-201
-257
-241
-216
-258
-351
-214
-142
-308
-221
-189
-344
-258
-89
-120
-240
-218
-178
-252
-146
43
-99
-188
-51
-76
-117
-28
9
-79
-27
182
90
-131
-140
-174
-199
-163
-221
-333
-243
-126
-266
-284
-170
-248
-347
-261
-149
-178
-253
-239
-255
-288
-170
-172
-335
-329
-312
-211
444
1447
2314
2840
2303
955
120
-137
-218
-212
-83
5
-6
3
42
24
-79
-3
48
-74
-24
125
14
-76
62
90
39
61
115
105
96
160
169
133
158
212
225
294
361
309
359
516
516
559
743
723
714
925
1023
1023
1130
1219
1204
1285
1413
1349
1259
1311
1195
1031
928
775
537
371
355
112
-20
24
-110
-220
-251
-219
-230
-353
-294
-299
-424
-348
-253
-355
-452
-312
-267
-388
-365
-330
-403
-367
-309
-377
-323
-243
-366
-434
-299
-290
-369
-302
-267
-340
-299
-204
-386
-443
-227
-282
-402
-303
-309
-342
-318
-362
-379
-368
-309
-289
-389
-380
-323
-387
-387
-328
-342
-385
-294
-268
-339
-339
-385
-393
-358
-371
-411
-367
-252
-312
-433
-311
-214
-319
-340
-277
-337
-391
-299
-282
-401
-288
-186
-389
-378
-237
-382
-471
-280
-253
-360
-301
-280
-294
-339
-327
-251
-299
-239
-258
-330
-204
-192
-278
-316
-309
-314
-313
-251
-220
-183
-150
-168
-220
-172
-73
-149
-162
-60
-25
10
68
19
-171
-243
-221
-312
-299
-215
-301
-377
-264
-204
-328
-304
-224
-259
-243
-212
-241
-309
-241
-203
-313
-224
-89
-229
-391
-399
-292
97
982
2007
2692
2671
1580
370
-108
-177
-220
-217
-21
36
-82
-42
36
-49
-89
47
53
-74
1
48
-48
18
118
99
85
174
174
97
180
187
163
296
304
217
262
432
442
369
497
613
631
680
824
852
853
1047
1094
1094
1238
1352
1289
1291
1446
1310
1205
1332
1175
913
884
737
459
376
360
164
49
95
-58
-158
-67
-151
-285
-247
-147
-231
-331
-190
-212
-334
-221
-201
-322
-308
-207
-226
-253
-198
-267
-311
-204
-164
-242
-226
-128
-179
-240
-166
-180
-205
-166
-196
-230
-256
-233
-230
-217
-164
-234
-318
-273
-221
-245
-230
-229
-324
-364
-231
-213
-310
-240
-253
-361
-294
-200
-344
-348
-191
-269
-353
-276
-254
-317
-205
-214
-331
-180
-210
-326
-292
-229
-210
-317
-225
-153
-293
-288
-155
-181
-319
-247
-157
-287
-283
-149
-216
-258
-164
-199
-284
-213
-133
-183
-223
-208
-251
-219
-130
-213
-234
-114
-134
-248
-160
12
-76
-144
26
-25
-168
-39
-1
-92
6
144
41
17
86
-170
-353
-208
-180
-317
-227
-104
-287
-321
-209
-289
-334
-250
-231
-352
-280
-181
-298
-282
-185
-273
-304
-165
-310
-539
-291
277
999
1882
2682
2472
1173
252
-125
-347
-298
-153
-18
-14
-43
-62
-92
-52
-34
-94
-55
8
-112
-81
98
10
-43
86
35
-31
108
162
16
123
279
184
192
281
276
243
359
467
411
491
633
603
612
847
941
847
958
1111
1128
1200
1318
1308
1308
1323
1226
1096
1073
1035
835
635
528
349
176
149
11
-115
-79
-113
-262
-280
-166
-265
-351
-211
-286
-411
-270
-264
-354
-282
-249
-337
-390
-240
-193
-321
-247
-141
-237
-316
-212
-174
-240
-159
-174
-269
-188
-125
-206
-246
-140
-156
-221
-64
-90
-274
-214
-163
-288
-237
-91
-228
-277
-104
-170
-274
-161
-166
-270
-244
-168
-184
-262
-201
-194
-309
-239
-181
-262
-217
-192
-283
-281
-270
-229
-237
-263
-175
-242
-297
-137
-174
-314
-187
-159
-301
-228
-167
-288
-283
-188
-188
-248
-273
-270
-287
-225
-222
-279
-226
-202
-256
-264
-194
-226
-366
-253
-112
-273
-262
-132
-215
-196
-55
-122
-209
-41
6
-165
-146
8
-21
-25
125
83
-84
-120
-139
-234
-235
-134
-206
-308
-206
-192
-307
-308
-165
-220
-333
-205
-233
-375
-233
-160
-320
-235
-162
-284
-276
-310
-463
-232
566
1505
2389
2953
2295
824
63
-50
-249
-325
-59
4
-82
40
29
-88
-39
39
21
-12
13
9
-54
17
20
-38
66
108
77
108
172
124
86
207
190
133
226
370
355
327
510
489
447
651
738
681
806
964
915
983
1168
1151
1162
1309
1324
1265
1340
1349
1143
1077
1006
658
498
569
387
106
122
119
-172
-257
-110
-228
-382
-265
-223
-363
-347
-244
-268
-307
-282
-229
-278
-344
-303
-280
-242
-229
-278
-280
-194
-195
-326
-286
-218
-284
-234
-142
-263
-296
-163
-238
-314
-209
-212
-284
-326
-289
-225
-277
-212
-221
-366
-183
-140
-392
-331
-245
-367
-361
-312
-359
-341
-266
-253
-378
-394
-239
-310
-400
-274
-276
-326
-203
-230
-384
-350
-226
-284
-334
-235
-236
-296
-275
-244
-301
-317
-207
-253
-361
-228
-257
-352
-246
-237
-294
-272
-189
-279
-305
-154
-238
-303
-185
-215
-327
-216
-145
-309
-283
-153
-216
-253
-114
-63
-162
-119
-66
-158
-147
-29
-37
-47
90
118
-25
-115
-109
-207
-297
-174
-175
-270
-177
-211
-356
-243
-154
-313
-335
-207
-265
-313
-199
-229
-298
-240
-183
-237
-274
-276
-363
-319
113
887
1704
2459
2571
1420
241
-83
-291
-423
-204
-45
-126
-114
-3
-64
-74
-4
-71
-61
-17
-49
-91
-16
38
-98
-75
78
45
-29
110
159
-2
74
189
120
167
327
321
246
413
507
424
567
615
545
707
863
921
900
1024
1184
1081
1147
1303
1209
1199
1313
1258
1070
970
847
583
458
411
236
70
65
-10
-159
-80
-145
-314
-244
-241
-375
-362
-230
-313
-393
-318
-287
-297
-327
-344
-361
-298
-185
-219
-307
-230
-203
-359
-296
-165
-288
-272
-148
-238
-322
-248
-226
-387
-303
-129
-250
-310
-267
-289
-360
-238
-130
-396
-359
-198
-399
-399
-258
-274
-335
-322
-303
-348
-345
-262
-315
-385
-280
-293
-375
-307
-340
-378
-292
-266
-379
-393
-306
-375
-398
-301
-290
-373
-321
-232
-328
-392
-265
-272
-416
-299
-266
-405
-348
-241
-337
-401
-251
-287
-404
-312
-278
-325
-290
-230
-326
-308
-192
-364
-379
-195
-214
-314
-218
-82
-175
-244
-160
-115
-150
-85
-30
-82
38
96
-14
13
-77
-272
-270
-162
-161
-279
-227
-153
-225
-227
-236
-299
-336
-275
-237
-295
-181
-160
-334
-285
-173
-205
-253
-223
-339
-505
-147
677
1549
2391
2903
2104
698
192
-86
-420
-168
72
-126
-96
99
-28
-68
62
-20
-97
19
94
-48
-87
137
150
-17
109
177
-12
113
244
153
191
233
227
223
286
345
313
427
510
375
499
690
671
741
843
946
959
1038
1247
1215
1229
1371
1345
1317
1414
1353
1130
1091
1064
785
559
528
282
48
133
66
-112
-106
-176
-262
-212
-172
-266
-346
-214
-234
-368
-218
-140
-327
-330
-246
-284
-294
-251
-263
-264
-192
-156
-251
-304
-191
-247
-281
-124
-147
-266
-253
-198
-211
-194
-135
-250
-292
-154
-161
-287
-276
-181
-314
-353
-197
-297
-387
-247
-259
-371
-288
-229
-372
-373
-220
-294
-404
-271
-259
-431
-319
-212
-415
-399
-216
-321
-440
-288
-269
-373
-293
-256
-293
-249
-232
-363
-390
-285
-284
-302
-303
-270
-274
-308
-181
-238
-378
-247
-296
-322
-181
-240
-348
-297
-181
-282
-352
-213
-268
-369
-217
-175
-369
-285
-162
-368
-290
-186
-303
-277
-185
-92
-157
-201
-104
-147
-176
-30
-29
-154
-18
131
-18
-119
-127
-274
-289
-161
-262
-340
-242
-252
-409
-332
-154
-307
-369
-238
-250
-300
-225
-222
-359
-307
-181
-262
-330
-296
-454
-395
334
1266
2088
2715
2462
1145
170
12
-191
-383
-128
54
-116
-13
77
-117
-110
-45
-12
-14
-38
32
-25
-48
84
36
-41
121
139
-25
117
236
37
114
312
234
190
297
393
299
329
535
492
563
709
671
771
859
869
944
1103
1191
1130
1191
1322
1248
1158
1250
1193
1007
1012
892
555
493
445
138
46
56
-47
-124
-131
-146
-294
-296
-181
-315
-384
-241
-276
-374
-303
-275
-357
-359
-284
-297
-299
-199
-224
-362
-303
-183
-276
-309
-181
-217
-315
-227
-244
-315
-174
-184
-327
-254
-185
-288
-268
-195
-277
-317
-188
-150
-312
-327
-263
-304
-313
-264
-249
-305
-240
-172
-366
-355
-140
-231
-293
-105
-173
-363
-224
-160
-276
-201
-114
-225
-278
-229
-265
-321
-260
-174
-221
-250
-148
-201
-287
-209
-235
-297
-218
-182
-242
-204
-191
-283
-257
-129
-166
-317
-278
-193
-213
-186
-210
-292
-266
-198
-255
-309
-177
-177
-332
-237
-42
-109
-211
-64
-72
-263
-118
60
-70
-75
142
122
-47
-65
-105
-261
-298
-181
-218
-226
-151
-285
-301
-178
-275
-356
-242
-258
-338
-227
-165
-297
-303
-212
-234
-297
-352
-451
-501
-135
585
1399
2238
2767
2017
605
113
-52
-412
-416
-114
-53
-108
-54
-131
-131
7
18
-154
-144
15
-90
-56
116
-11
-125
35
110
-8
31
147
83
48
180
193
134
251
321
266
296
404
453
449
537
639
611
711
871
850
958
1147
1157
1140
1232
1258
1229
1308
1290
1074
955
954
705
451
414
335
133
65
34
-202
-178
-83
-291
-308
-196
-361
-405
-255
-273
-357
-371
-330
-317
-390
-369
-273
-348
-336
-239
-378
-349
-211
-324
-295
-184
-270
-316
-231
-224
-314
-224
-168
-387
-404
-254
-313
-389
-314
-245
-360
-393
-293
-380
-362
-239
-339
-358
-265
-334
-467
-426
-330
-461
-496
-323
-401
-487
-341
-354
-438
-371
-368
-456
-379
-266
-362
-411
-284
-357
-517
-417
-302
-424
-468
-303
-335
-447
-411
-352
-396
-411
-329
-450
-404
-202
-405
-499
-302
-221
-305
-386
-326
-379
-398
-213
-299
-462
-263
-227
-461
-360
-250
-354
-284
-236
-281
-343
-291
-181
-235
-210
-132
-210
-194
-74
-78
-85
-52
-8
-40
17
122
37
81
66
-207
-298
-222
-155
-212
-250
-191
-264
-320
-239
-214
-282
-225
-224
-376
-326
-190
-245
-233
-161
-220
-258
-181
-294
-558
-406
111
727
1665
2724
2907
1806
621
109
-224
-269
-71
-52
-54
38
2
-102
7
135
-52
-88
44
-31
26
118
-9
-70
11
47
51
133
144
74
173
257
163
172
268
306
281
354
460
384
492
681
619
608
828
920
899
1035
1162
1119
1165
1334
1274
1245
1387
1355
1236
1259
1206
930
781
708
418
213
240
97
-104
-58
-87
-220
-242
-182
-267
-355
-231
-259
-355
-291
-238
-301
-345
-294
-299
-340
-265
-221
-329
-253
-164
-312
-277
-155
-276
-305
-171
-201
-273
-217
-116
-231
-365
-179
-212
-363
-203
-201
-351
-272
-206
-329
-278
-192
-268
-330
-273
-134
-294
-325
-114
-289
-381
-229
-267
-399
-336
-250
-369
-319
-240
-378
-352
-183
-276
-406
-255
-167
-345
-313
-206
-365
-329
-160
-261
-353
-270
-267
-268
-228
-224
-257
-317
-258
-277
-356
-199
-187
-321
-199
-162
-304
-218
-134
-247
-290
-216
-220
-281
-166
-146
-295
-244
-141
-169
-230
-187
-56
-97
-150
-45
-128
-139
61
24
-55
136
191
63
47
-115
-250
-180
-168
-220
-248
-147
-156
-309
-261
-133
-201
-309
-259
-208
-284
-261
-182
-268
-262
-154
-201
-203
-118
-339
-506
-226
160
815
1872
2657
2542
1394
309
-53
-323
-337
-106
-105
3
103
-152
-118
2
-74
-20
53
41
-23
23
47
-77
-64
78
55
66
151
101
57
128
184
120
143
247
264
215
250
393
362
449
608
517
566
728
799
783
927
1099
1008
1109
1223
1163
1242
1272
1154
1103
1100
920
673
596
566
346
125
134
21
-197
-143
-176
-349
-293
-238
-316
-298
-219
-350
-434
-290
-317
-414
-366
-278
-330
-379
-308
-396
-408
-301
-287
-275
-260
-287
-371
-281
-154
-308
-333
-210
-318
-325
-163
-192
-315
-256
-176
-285
-364
-283
-276
-380
-314
-215
-293
-345
-261
-248
-351
-352
-318
-352
-317
-321
-389
-320
-245
-346
-437
-362
-332
-426
-356
-195
-290
-392
-286
-296
-385
-272
-258
-379
-314
-229
-273
-312
-249
-292
-320
-215
-261
-336
-245
-220
-350
-314
-228
-328
-323
-163
-201
-297
-245
-279
-310
-219
-154
-215
-244
-180
-196
-260
-167
-105
-222
-157
-31
-138
-104
45
-112
-127
98
111
1
36
173
100
-92
-126
-165
-251
-190
-161
-221
-244
-193
-183
-274
-264
-295
-328
-248
-244
-292
-293
-190
-204
-313
-209
-177
-302
-292
-299
-423
-321
312
1198
2041
2788
2565
1152
233
16
-316
-337
-59
-26
-77
34
2
-63
20
-34
-85
14
69
29
23
70
44
-29
90
239
106
88
214
142
136
246
258
254
236
357
463
373
439
512
482
654
777
721
898
1051
963
1032
1208
1232
1259
1360
1367
1315
1385
1406
1224
1142
1081
887
711
621
498
254
112
76
-74
-152
-100
-200
-257
-123
-212
-424
-265
-114
-290
-290
-210
-295
-306
-244
-282
-275
-161
-202
-295
-258
-200
-239
-181
-143
-238
-218
-132
-159
-239
-221
-138
-152
-225
-146
-200
-324
-193
-168
-265
-243
-213
-273
-340
-275
-253
-316
-211
-206
-369
-307
-174
-234
-277
-252
-297
-283
-277
-284
-323
-317
-238
-318
-355
-257
-233
-317
-313
-284
-388
-308
-225
-331
-344
-294
-271
-370
-366
-227
-295
-337
-273
-364
-394
-254
-241
-356
-329
-275
-365
-305
-210
-382
-374
-205
-324
-417
-263
-189
-282
-272
-232
-338
-358
-237
-251
-280
-145
-139
-238
-147
-82
-187
-206
-50
-19
-104
2
61
-24
52
94
-60
-158
-232
-288
-296
-230
-213
-299
-225
-196
-282
-268
-256
-307
-301
-224
-262
-339
-304
-239
-234
-277
-179
-176
-321
-348
-397
-398
135
1182
2049
2689
2749
1436
168
-4
-214
-457
-140
164
48
-27
76
-63
-157
26
20
-90
4
103
-53
-50
167
102
-32
75
172
108
84
98
87
141
246
236
204
348
384
292
439
616
524
526
757
757
711
926
994
906
1079
1223
1166
1270
1361
1253
1230
1333
1290
1075
966
850
611
529
537
364
110
77
76
-110
-169
-146
-165
-175
-230
-283
-334
-246
-181
-318
-304
-225
-302
-354
-269
-223
-290
-265
-248
-235
-146
-222
-347
-268
-142
-198
-263
-131
-138
-269
-228
-167
-149
-238
-281
-258
-284
-223
-244
-291
-247
-194
-207
-304
-230
-213
-320
-163
-189
-391
-255
-153
-284
-265
-94
-174
-332
-224
-197
-308
-263
-184
-260
-303
-186
-213
-330
-176
-140
-341
-265
-158
-297
-318
-195
-264
-260
-145
-250
-319
-233
-143
-250
-317
-172
-202
-250
-108
-161
-280
-121
-46
-212
-221
-108
-194
-228
-83
-89
-208
-176
-101
-158
-126
-58
-95
-87
61
69
-101
31
186
67
86
267
228
41
51
46
-194
-225
-70
-179
-239
-116
-227
-276
-92
-160
-316
-231
-148
-214
-207
-161
-267
-278
-159
-212
-306
-175
-92
-370
-502
-119
300
897
1912
2690
2416
1209
248
-176
-307
-244
-215
-104
-1
-77
-146
-73
-21
-121
-103
3
-45
-81
-7
21
-89
-42
62
1
21
112
56
-11
84
105
22
83
190
162
207
352
297
292
474
523
458
555
796
777
777
1014
1015
957
1138
1160
1072
1273
1394
1169
1035
1024
878
709
598
442
215
162
157
-92
-177
-74
-208
-296
-181
-266
-440
-339
-285
-439
-392
-226
-342
-398
-250
-356
-484
-303
-304
-434
-286
-255
-372
-344
-282
-288
-345
-281
-159
-247
-289
-177
-276
-349
-151
-177
-359
-292
-232
-366
-327
-195
-267
-339
-308
-286
-315
-321
-318
-413
-395
-183
-237
-381
-254
-231
-388
-382
-272
-312
-381
-345
-337
-340
-281
-290
-364
-327
-237
-292
-310
-269
-303
-304
-224
-281
-390
-201
-165
-327
-263
-200
-328
-353
-192
-228
-323
-224
-138
-231
-277
-153
-241
-342
-207
-196
-315
-257
-111
-238
-316
-113
-155
-306
-110
-60
-280
-177
-90
-208
-116
-34
-100
-75
-34
-94
-68
116
104
29
126
230
148
-87
-151
-228
-287
-143
-149
-269
-187
-84
-221
-303
-166
-199
-305
-256
-220
-253
-215
-159
-254
-291
-174
-191
-323
-261
-291
-374
30
809
1678
2553
2912
1904
546
70
-116
-343
-184
109
-1
-61
55
65
-33
-7
59
-46
-11
116
76
12
113
143
15
78
188
72
88
230
171
174
300
276
238
382
443
299
410
577
473
543
720
860
807
794
1004
965
1019
1243
1237
1210
1345
1367
1308
1363
1349
1191
1082
1061
827
578
530
354
170
186
94
-160
-211
-90
-180
-321
-182
-215
-416
-325
-269
-369
-322
-246
-365
-431
-255
-250
-396
-309
-238
-272
-214
-215
-321
-316
-188
-214
-326
-248
-206
-307
-278
-173
-233
-243
-224
-269
-288
-326
-304
-318
-302
-265
-320
-326
-291
-339
-395
-288
-274
-373
-346
-290
-298
-344
-323
-291
-340
-345
-303
-355
-361
-245
-252
-300
-248
-311
-368
-266
-180
-270
-361
-263
-243
-366
-301
-193
-301
-303
-257
-325
-299
-227
-231
-257
-232
-255
-282
-218
-241
-261
-253
-268
-283
-271
-182
-252
-330
-200
-157
-276
-289
-202
-208
-185
-135
-174
-212
-102
-48
-183
-136
47
-14
-107
67
112
-8
39
43
-108
-165
-149
-279
-339
-190
-239
-324
-201
-225
-347
-290
-204
-342
-400
-197
-257
-402
-239
-212
-320
-244
-116
-234
-410
-341
-393
-310
444
1331
2094
2732
2346
964
53
-90
-226
-336
-148
18
-67
-82
38
-43
-112
5
-64
-131
35
84
-78
-44
128
38
-1
102
47
31
161
161
32
143
253
116
171
363
309
240
402
451
435
559
623
638
736
808
850
925
1073
1142
1101
1210
1235
1165
1145
1214
1172
941
906
807
528
440
354
118
49
51
-110
-226
-153
-154
-356
-364
-248
-346
-442
-332
-315
-436
-351
-287
-374
-329
-280
-421
-456
-259
-249
-330
-245
-262
-362
-264
-203
-303
-241
-141
-238
-352
-263
-241
-331
-286
-226
-260
-288
-173
-180
-385
-354
-226
-329
-361
-256
-274
-315
-232
-233
-390
-349
-233
-316
-314
-293
-367
-316
-290
-369
-375
-267
-229
-308
-301
-268
-348
-337
-168
-189
-399
-384
-278
-338
-311
-257
-314
-364
-306
-309
-375
-258
-245
-350
-291
-228
-301
-288
-166
-180
-324
-286
-205
-273
-199
-199
-284
-259
-178
-176
-235
-123
-125
-196
-115
-58
-138
-121
60
87
-12
47
154
72
46
-7
-168
-139
-160
-241
-188
-129
-175
-238
-208
-207
-283
-240
-138
-248
-299
-141
-165
-278
-199
-179
-226
-228
-156
-198
-427
-312
-38
327
1389
2444
2737
2133
909
133
-131
-228
-231
-204
-36
93
27
-28
63
14
-60
41
14
-55
16
25
-32
40
112
69
25
125
160
78
250
312
101
128
323
270
216
397
438
415
487
569
585
580
768
826
826
1057
1103
1029
1160
1295
1244
1254
1334
1309
1271
1218
1078
826
715
674
450
273
227
76
-59
-13
-70
-257
-282
-115
-221
-412
-302
-273
-325
-272
-291
-417
-373
-306
-374
-309
-186
-265
-369
-295
-260
-329
-248
-143
-278
-293
-149
-232
-355
-219
-162
-256
-217
-139
-188
-283
-212
-263
-374
-267
-224
-317
-343
-266
-294
-332
-186
-235
-380
-259
-279
-399
-296
-264
-359
-329
-287
-303
-308
-325
-312
-363
-307
-218
-378
-346
-199
-337
-373
-226
-286
-344
-263
-230
-323
-376
-195
-212
-403
-292
-233
-331
-225
-226
-370
-316
-182
-223
-336
-251
-181
-270
-263
-221
-314
-316
-226
-271
-290
-140
-200
-353
-197
-90
-232
-171
18
-86
-172
-60
-32
-140
-17
132
-14
-34
129
102
-86
-100
-129
-276
-202
-110
-193
-241
-187
-249
-338
-153
-173
-417
-260
-154
-355
-324
-181
-216
-271
-263
-222
-229
-233
-247
-426
-358
270
1141
2059
2857
2702
1356
291
-7
-241
-291
-77
8
-10
91
50
-103
-27
-18
-112
-25
79
8
-79
77
131
8
71
147
78
30
111
175
188
259
156
94
298
384
270
317
508
475
422
591
670
644
863
995
829
935
1180
1093
1062
1309
1332
1243
1350
1318
1140
1118
1043
796
640
618
428
122
79
108
-55
-167
-152
-182
-223
-243
-272
-328
-316
-267
-364
-332
-197
-316
-387
-240
-233
-356
-237
-148
-288
-328
-289
-289
-261
-234
-284
-354
-265
-216
-381
-292
-165
-282
-346
-310
-270
-364
-337
-193
-328
-361
-197
-301
-344
-242
-312
-400
-320
-287
-389
-311
-208
-299
-377
-336
-317
-391
-308
-258
-463
-347
-185
-378
-357
-249
-317
-343
-316
-292
-310
-284
-199
-312
-395
-225
-243
-408
-277
-167
-342
-316
-196
-299
-338
-238
-239
-310
-247
-227
-340
-211
-102
-362
-398
-214
-233
-327
-257
-158
-277
-232
-118
-191
-179
-66
-14
-115
-46
117
-30
-44
181
86
-19
62
-134
-262
-113
-123
-263
-276
-191
-257
-299
-149
-222
-354
-200
-204
-339
-274
-208
-231
-195
-199
-294
-300
-175
-169
-397
-443
-278
53
815
1837
2566
2463
1371
291
-136
-247
-263
-277
-97
86
44
-74
-64
23
-46
-46
34
-53
-50
104
55
-33
90
108
-49
36
170
93
96
166
162
104
193
281
221
256
363
370
442
586
567
613
740
808
823
891
1014
1054
1137
1282
1272
1238
1334
1328
1235
1260
1218
925
783
818
600
347
375
327
83
26
-17
-142
-113
-41
-134
-260
-231
-230
-299
-278
-172
-242
-350
-277
-300
-305
-173
-227
-330
-210
-155
-371
-427
-236
-259
-341
-173
-166
-349
-276
-154
-219
-271
-169
-192
-338
-201
-178
-373
-268
-165
-308
-352
-245
-284
-361
-224
-232
-389
-326
-266
-353
-319
-162
-250
-397
-221
-198
-365
-238
-180
-364
-322
-194
-288
-346
-268
-275
-380
-340
-207
-285
-351
-172
-191
-389
-273
-200
-381
-274
-142
-310
-331
-209
-231
-303
-216
-194
-340
-236
-108
-295
-325
-145
-181
-349
-262
-196
-329
-217
-118
-255
-188
-39
-147
-210
-33
-83
-236
-12
99
-43
8
145
100
-37
-73
-168
-274
-230
-256
-323
-251
-167
-274
-335
-191
-229
-404
-321
-215
-255
-274
-209
-226
-321
-192
-140
-284
-284
-327
-479
-288
355
1245
2149
2856
2595
1196
267
-38
-319
-291
-66
67
-23
-33
34
18
78
82
-41
-65
61
86
24
60
81
21
61
167
141
113
219
214
116
258
323
242
315
383
356
346
495
591
588
670
733
812
901
963
1040
1128
1297
1266
1191
1391
1378
1287
1423
1448
1242
1203
1195
867
647
639
512
259
195
217
31
-38
56
-57
-161
-102
-79
-129
-151
-95
-133
-159
-118
-191
-205
-86
-116
-181
-77
-91
-212
-181
-112
-154
-169
-45
-26
-105
-101
-94
-134
-195
-146
-128
-221
-116
-89
-273
-186
-107
-212
-231
-156
-180
-285
-126
-164
-379
-169
-96
-328
-324
-172
-252
-303
-216
-230
-233
-248
-255
-335
-308
-183
-241
-321
-246
-162
-275
-303
-295
-395
-303
-166
-267
-297
-258
-313
-337
-239
-224
-370
-278
-190
-341
-365
-269
-307
-379
-247
-226
-367
-364
-332
-371
-376
-249
-271
-404
-321
-265
-342
-280
-185
-252
-265
-180
-200
-218
-123
-159
-181
-80
-99
-80
-41
0
-107
-408
-382
-286
-388
-360
-310
-402
-447
-359
-324
-406
-366
-279
-385
-405
-310
-377
-407
-332
-386
-409
-323
-368
-489
-432
-375
-273
352
1390
2254
2564
1956
723
-36
-239
-300
-264
-182
-71
-25
-120
-125
2
-61
-177
-29
-64
-158
83
103
-70
-29
52
-11
46
122
41
69
167
154
140
268
295
195
247
366
383
415
583
624
545
717
857
811
945
1078
1078
1085
1252
1378
1276
1288
1391
1331
1304
1268
1040
906
806
566
381
337
270
116
16
-5
-88
-174
-122
-170
-264
-185
-224
-326
-231
-162
-301
-367
-266
-231
-286
-249
-181
-183
-214
-257
-304
-315
-210
-182
-247
-208
-173
-252
-172
-20
-227
-350
-144
-182
-293
-159
-111
-202
-185
-96
-184
-251
-147
-176
-245
-91
-127
-342
-256
-126
-213
-282
-253
-274
-341
-317
-259
-344
-277
-139
-335
-338
-215
-337
-383
-303
-263
-357
-346
-267
-374
-381
-283
-335
-430
-327
-242
-408
-393
-273
-350
-363
-228
-295
-454
-303
-217
-425
-438
-286
-355
-399
-233
-225
-335
-248
-173
-273
-235
-142
-175
-92
16
-26
-11
103
76
-143
-297
-247
-265
-252
-206
-318
-363
-295
-333
-485
-425
-311
-391
-429
-383
-395
-470
-438
-367
-387
-355
-385
-455
-486
-522
-584
-516
105
984
1695
2432
2292
879
-39
-169
-403
-590
-430
-194
-189
-180
-158
-288
-253
-117
-271
-261
-68
-181
-271
-176
-115
-162
-143
-28
-120
-168
7
6
-71
35
108
47
74
219
185
163
401
383
209
427
616
544
636
838
864
940
1160
1163
1032
1140
1313
1291
1246
1241
1203
1075
881
723
535
482
414
217
135
35
-72
-85
-85
-207
-282
-160
-183
-295
-229
-152
-265
-361
-206
-142
-292
-229
-158
-202
-133
-127
-178
-224
-163
-92
-167
-193
-146
-146
-140
-52
-99
-168
-85
-69
-198
-223
-117
-167
-167
-109
-172
-158
-57
-73
-200
-212
-131
-221
-259
-82
-164
-284
-155
-80
-184
-233
-98
-170
-233
-44
-117
-273
-137
-71
-222
-226
-93
-176
-211
-60
-129
-226
-100
-91
-180
-160
-96
-162
-216
-58
-75
-214
-22
29
-244
-203
-59
-148
-167
-71
-130
-209
-88
-64
-158
-113
-24
-118
-141
53
89
-49
68
118
-58
14
129
81
144
273
164
133
253
118
-87
-27
55
-41
14
82
-85
-97
-14
-43
-74
-96
-123
-150
-100
-69
-81
-76
-69
-90
-78
-83
-151
-266
-340
-143
378
1226
2247
2989
2647
1409
493
15
-238
-140
14
47
68
110
107
40
23
-61
-65
93
74
15
45
73
76
85
107
70
69
187
197
149
225
183
101
245
368
205
215
475
424
374
516
538
563
757
872
792
877
1077
1142
1128
1179
1250
1274
1320
1343
1308
1196
1124
927
634
626
582
215
15
89
-21
-128
-135
-244
-321
-255
-289
-437
-446
-370
-345
-352
-300
-329
-421
-362
-321
-425
-397
-295
-373
-365
-249
-277
-356
-319
-290
-362
-318
-246
-332
-304
-237
-316
-341
-266
-267
-371
-344
-269
-300
-354
-342
-373
-408
-291
-340
-446
-319
-261
-334
-391
-303
-319
-448
-354
-316
-347
-322
-294
-346
-407
-263
-280
-440
-331
-258
-373
-370
-291
-363
-389
-292
-337
-347
-287
-347
-418
-305
-255
-398
-311
-238
-358
-323
-241
-301
-380
-325
-226
-307
-350
-243
-289
-369
-246
-209
-289
-182
-148
-245
-155
-66
-120
-65
52
-8
-55
82
75
-40
-22
-143
-327
-338
-247
-204
-291
-247
-188
-347
-349
-205
-264
-267
-202
-312
-371
-316
-241
-255
-289
-271
-292
-290
-239
-301
-402
-162
440
1234
2135
2754
1985
566
69
-148
-417
-324
-91
-29
-25
10
-73
-153
16
100
-102
-65
66
-75
-84
58
36
0
52
62
64
121
125
75
82
130
169
157
220
323
263
329
465
397
464
631
586
652
842
890
953
1093
1067
987
1140
1315
1255
1174
1231
1194
1011
964
933
614
446
429
251
136
116
0
-124
-102
-115
-232
-219
-110
-243
-314
-156
-217
-334
-264
-235
-307
-278
-219
-278
-291
-192
-201
-270
-225
-184
-240
-274
-185
-201
-229
-102
-134
-264
-129
-65
-259
-220
-125
-199
-209
-98
-162
-313
-145
-60
-213
-225
-185
-255
-267
-163
-193
-293
-220
-124
-231
-232
-70
-244
-292
-103
-195
-288
-192
-144
-236
-246
-156
-215
-225
-165
-259
-278
-162
-107
-252
-258
-149
-224
-196
-151
-241
-278
-169
-119
-200
-243
-157
-159
-238
-136
-152
-278
-152
-75
-203
-90
-12
-137
-106
-20
33
73
35
-27
-18
123
212
91
-69
-149
-198
-294
-212
-143
-286
-261
-117
-189
-322
-259
-195
-219
-219
-222
-308
-252
-104
-231
-344
-205
-156
-262
-282
-326
-422
-104
747
1653
2416
2834
1932
497
70
-30
-294
-263
-27
-25
-85
6
-49
-103
22
-4
-129
-67
51
-33
-100
45
34
-23
62
85
19
33
142
103
76
232
198
98
271
275
203
395
505
446
482
614
696
718
809
947
903
1001
1240
1240
1194
1308
1368
1280
1281
1284
1120
956
902
686
430
379
279
105
48
-49
-214
-197
-150
-243
-317
-236
-242
-362
-316
-316
-327
-259
-304
-433
-422
-277
-314
-376
-238
-237
-403
-308
-168
-278
-328
-199
-257
-410
-234
-108
-308
-305
-159
-265
-263
-130
-234
-356
-255
-191
-266
-257
-218
-307
-315
-211
-297
-355
-234
-227
-310
-210
-138
-355
-415
-189
-186
-388
-331
-249
-361
-319
-211
-284
-351
-214
-166
-314
-249
-177
-315
-317
-216
-282
-317
-207
-275
-284
-157
-222
-312
-270
-228
-266
-274
-175
-158
-244
-204
-208
-284
-225
-204
-270
-259
-139
-199
-286
-85
-110
-244
-82
-57
-198
-100
61
-1
-83
80
187
51
19
-6
-263
-308
-153
-180
-255
-227
-208
-326
-281
-171
-333
-343
-227
-291
-275
-213
-193
-261
-273
-169
-178
-204
-272
-361
-414
-318
121
891
1956
2786
2695
1599
490
-22
-286
-257
-94
-98
-5
72
-109
-75
15
-72
-75
-15
25
-25
-59
47
14
-36
107
85
-19
46
127
83
111
217
140
165
340
224
152
442
513
333
437
561
586
694
814
848
916
1119
1169
1115
1245
1325
1257
1324
1419
1311
1145
1132
1071
787
572
505
298
154
165
-31
-143
-69
-166
-292
-207
-174
-293
-257
-253
-392
-421
-315
-365
-507
-412
-332
-370
-331
-269
-347
-412
-289
-256
-360
-255
-200
-366
-315
-213
-324
-350
-240
-250
-310
-305
-252
-288
-313
-241
-309
-291
-199
-279
-320
-304
-276
-260
-324
-247
-193
-342
-354
-294
-335
-309
-266
-338
-346
-309
-336
-293
-223
-312
-354
-201
-207
-388
-344
-188
-317
-335
-145
-265
-399
-310
-266
-341
-352
-240
-276
-344
-239
-237
-319
-257
-176
-310
-325
-203
-296
-333
-260
-244
-286
-223
-156
-236
-245
-118
-165
-230
-67
-92
-152
31
100
-29
-39
27
-116
-268
-217
-237
-328
-227
-171
-335
-332
-168
-285
-367
-214
-288
-389
-325
-266
-263
-361
-360
-301
-306
-267
-272
-322
-289
-362
-274
432
1362
2194
2635
1999
702
-49
-153
-254
-369
-180
38
-20
-114
10
-7
-119
-2
4
-104
-57
7
-52
-37
82
61
-51
36
130
-12
75
214
101
129
229
256
226
316
407
273
377
602
466
488
786
790
720
974
1107
987
1096
1265
1248
1235
1345
1372
1253
1195
1165
980
838
803
548
304
327
221
44
22
-113
-212
-86
-105
-291
-278
-241
-331
-341
-299
-248
-283
-322
-243
-332
-361
-207
-244
-300
-169
-192
-407
-317
-151
-254
-230
-172
-205
-208
-219
-177
-248
-234
-129
-229
-250
-216
-239
-183
-168
-214
-269
-258
-121
-120
-300
-321
-226
-258
-193
-194
-408
-275
-127
-253
-273
-215
-234
-288
-203
-231
-317
-202
-165
-233
-262
-179
-185
-309
-200
-151
-283
-221
-134
-209
-232
-182
-252
-302
-185
-203
-320
-252
-177
-241
-209
-82
-189
-315
-216
-173
-251
-255
-207
-266
-302
-162
-134
-229
-40
22
-163
-137
-64
-79
-23
101
97
-15
54
79
-154
-184
-141
-285
-247
-141
-221
-284
-219
-209
-281
-228
-190
-325
-336
-220
-276
-326
-229
-266
-342
-262
-153
-221
-376
-369
-382
-148
655
1602
2380
2812
2125
741
80
-69
-293
-321
14
131
-135
-115
46
-24
-7
59
-69
-98
62
41
-39
69
165
56
-42
65
113
0
72
215
148
169
229
189
266
332
298
333
469
534
553
616
742
801
830
1017
1083
1044
1165
1291
1237
1254
1427
1375
1271
1333
1162
954
893
750
533
377
283
171
85
73
-77
-268
-149
-144
-324
-279
-219
-275
-310
-250
-288
-428
-320
-271
-378
-307
-250
-321
-316
-218
-270
-315
-170
-196
-345
-300
-188
-232
-268
-170
-238
-314
-149
-175
-366
-236
-107
-278
-308
-199
-226
-286
-251
-210
-300
-288
-124
-255
-415
-264
-284
-367
-289
-227
-321
-366
-222
-268
-352
-296
-274
-308
-265
-244
-429
-385
-243
-356
-322
-188
-263
-391
-327
-278
-348
-319
-254
-337
-374
-270
-363
-436
-274
-286
-398
-317
-235
-348
-354
-256
-311
-309
-205
-241
-327
-263
-190
-277
-312
-217
-270
-238
-73
-91
-179
-202
-115
-106
-97
64
2
-40
91
56
16
-35
-161
-239
-301
-285
-274
-235
-197
-263
-304
-307
-279
-344
-375
-274
-238
-305
-325
-270
-290
-272
-222
-312
-311
-224
-370
-542
-297
295
1067
2000
2746
2514
1207
234
-60
-314
-307
-117
-117
-68
-4
-124
-144
14
-9
-126
-56
-4
-51
-31
36
-8
-6
112
44
10
191
115
-21
123
216
126
148
310
299
233
357
440
386
476
662
653
628
779
834
825
973
1056
1077
1206
1296
1274
1288
1272
1143
1114
1112
949
734
628
525
283
181
167
-43
-110
-11
-116
-312
-278
-206
-313
-353
-210
-206
-380
-310
-272
-416
-261
-174
-372
-356
-182
-199
-259
-148
-232
-340
-154
-133
-320
-280
-142
-233
-284
-164
-245
-301
-115
-197
-364
-277
-169
-170
-227
-208
-176
-272
-328
-252
-316
-317
-165
-196
-318
-283
-242
-288
-230
-183
-293
-355
-245
-259
-340
-197
-191
-327
-282
-237
-263
-247
-209
-234
-332
-265
-133
-272
-290
-156
-248
-255
-194
-253
-271
-184
-157
-272
-227
-121
-244
-321
-206
-220
-316
-193
-123
-194
-184
-156
-249
-260
-78
-162
-269
-70
15
-116
-126
-81
-152
5
95
-27
11
132
122
-90
-165
-130
-224
-204
-125
-265
-339
-165
-126
-284
-264
-182
-281
-275
-177
-275
-327
-158
-176
-325
-208
-104
-241
-284
-265
-360
-261
296
1115
1898
2628
2550
1237
236
64
-164
-303
-104
11
-82
-31
34
-56
-36
16
-56
-67
47
32
-43
54
65
-77
-10
129
84
57
138
189
60
99
216
124
205
325
315
367
446
414
406
568
697
681
743
896
957
1061
1167
1121
1133
1311
1394
1301
1370
1355
1105
1045
1007
779
589
486
370
209
92
38
-154
-196
-17
-97
-272
-227
-216
-391
-390
-292
-356
-324
-237
-297
-377
-308
-313
-369
-252
-180
-294
-307
-211
-325
-354
-156
-143
-315
-270
-181
-325
-333
-193
-231
-291
-194
-187
-342
-245
-141
-270
-275
-224
-289
-343
-263
-280
-342
-303
-269
-302
-321
-225
-287
-391
-287
-252
-367
-300
-192
-275
-350
-300
-319
-391
-282
-289
-400
-318
-259
-332
-360
-314
-322
-408
-311
-253
-385
-314
-249
-317
-319
-231
-268
-387
-276
-220
-325
-287
-231
-318
-262
-155
-278
-360
-212
-215
-390
-302
-156
-237
-261
-153
-230
-300
-95
-40
-230
-110
24
-160
-142
88
69
-73
39
150
100
62
-109
-313
-287
-136
-192
-349
-199
-117
-271
-221
-123
-296
-384
-222
-207
-331
-243
-214
-329
-210
-178
-327
-272
-139
-311
-504
-223
314
1122
2168
2854
2615
1400
388
-22
-244
-210
-118
-8
41
-23
-47
-30
-6
-36
-38
31
28
-41
27
134
5
-4
174
84
-30
133
196
112
160
224
155
140
312
310
244
419
449
414
579
685
682
776
928
875
884
1111
1153
1122
1326
1422
1349
1466
1519
1356
1208
1216
1103
821
686
596
428
249
161
76
-13
-28
-137
-324
-211
-98
-319
-303
-156
-263
-357
-253
-207
-336
-281
-184
-343
-336
-128
-204
-314
-175
-149
-280
-266
-172
-223
-235
-159
-244
-236
-110
-238
-250
-150
-250
-309
-307
-206
-168
-259
-221
-252
-320
-246
-210
-260
-318
-261
-254
-306
-189
-162
-312
-377
-287
-268
-320
-271
-281
-317
-173
-117
-323
-316
-225
-353
-328
-206
-259
-315
-184
-221
-344
-203
-202
-390
-325
-207
-259
-262
-209
-246
-306
-263
-236
-292
-261
-149
-228
-288
-178
-213
-279
-232
-218
-235
-229
-193
-258
-325
-222
-205
-275
-194
-75
-116
-128
-6
-86
-143
35
-13
-85
42
125
113
44
-12
-98
-183
-181
-234
-322
-255
-201
-268
-342
-291
-241
-328
-223
-227
-478
-333
-154
-368
-311
-146
-323
-345
-150
-171
-414
-461
-260
47
826
1885
2551
2487
1523
413
-161
-242
-225
-280
-123
15
-37
-44
53
29
-100
-60
38
-38
-34
77
76
51
60
59
44
118
215
145
94
238
255
143
297
336
199
326
436
364
458
612
575
620
723
750
761
945
1128
1046
1107
1273
1211
1219
1382
1397
1263
1224
1168
962
850
759
527
349
259
117
81
102
-19
-232
-228
-86
-210
-264
-186
-258
-257
-160
-232
-333
-256
-193
-241
-324
-294
-219
-272
-259
-171
-239
-305
-214
-206
-273
-106
-44
-222
-172
-153
-273
-210
-146
-203
-230
-106
-161
-310
-180
-147
-284
-225
-131
-216
-230
-203
-256
-279
-217
-202
-303
-271
-189
-298
-349
-265
-240
-282
-237
-212
-397
-341
-142
-276
-308
-183
-279
-328
-193
-201
-333
-301
-199
-302
-334
-187
-224
-323
-226
-168
-326
-330
-137
-187
-319
-226
-233
-320
-228
-169
-250
-275
-188
-190
-292
-273
-253
-306
-209
-190
-235
-86
-45
-180
-179
-37
-42
-60
27
69
18
28
80
-81
-241
-209
-259
-366
-250
-196
-274
-261
-303
-417
-454
-328
-182
-303
-370
-320
-428
-339
-222
-320
-367
-296
-281
-448
-475
-389
-212
570
1600
2273
2539
1766
465
-125
-275
-360
-383
-180
2
-134
-174
-49
-84
-159
-106
-98
-162
-99
-5
-141
-211
-47
-47
-101
56
9
-138
56
152
26
128
227
132
109
192
290
305
334
385
411
493
592
694
761
837
914
894
967
1153
1145
1126
1349
1302
1110
1176
1103
875
805
731
474
311
274
98
-65
-34
-94
-242
-236
-259
-386
-323
-256
-427
-428
-287
-303
-396
-375
-335
-431
-423
-281
-302
-413
-328
-233
-294
-324
-265
-326
-387
-281
-280
-326
-227
-220
-309
-270
-244
-369
-324
-173
-280
-328
-232
-211
-347
-377
-244
-377
-403
-215
-291
-371
-232
-234
-421
-401
-295
-359
-372
-291
-301
-356
-291
-296
-391
-324
-305
-416
-348
-234
-347
-395
-315
-306
-344
-341
-261
-319
-366
-252
-329
-439
-277
-244
-391
-251
-180
-372
-362
-269
-320
-316
-259
-309
-343
-227
-150
-311
-346
-176
-223
-318
-220
-214
-317
-228
-156
-274
-200
-67
-172
-185
-63
-59
-178
-110
95
-37
-87
149
49
-122
-87
-224
-352
-340
-299
-295
-332
-248
-301
-365
-249
-293
-370
-274
-251
-379
-317
-182
-291
-355
-233
-244
-357
-371
-372
-406
-209
517
1414
2287
2925
2201
706
100
-27
-336
-299
-6
45
-24
-32
-11
-107
-97
35
-35
-22
115
16
-78
60
99
13
84
140
100
83
169
180
90
182
244
220
325
347
240
303
478
516
505
641
681
678
830
988
1017
1041
1156
1184
1209
1301
1378
1316
1318
1385
1207
1076
999
781
647
587
375
139
131
98
-78
-117
0
-122
-341
-228
-237
-334
-222
-274
-368
-263
-240
-295
-260
-198
-226
-322
-243
-204
-366
-278
-100
-204
-251
-183
-215
-276
-166
-157
-291
-220
-156
-217
-262
-235
-251
-329
-304
-203
-265
-329
-216
-261
-345
-227
-224
-371
-325
-243
-346
-312
-202
-317
-339
-232
-315
-409
-338
-275
-332
-271
-183
-319
-357
-270
-318
-375
-283
-212
-316
-290
-207
-327
-340
-233
-265
-364
-280
-243
-361
-329
-255
-295
-337
-248
-269
-362
-253
-179
-269
-319
-286
-330
-284
-110
-180
-352
-269
-183
-278
-289
-195
-175
-193
-74
-43
-153
-26
3
-142
48
148
7
62
155
70
-166
-244
-171
-299
-278
-153
-300
-264
-126
-234
-321
-260
-188
-277
-300
-155
-231
-309
-182
-251
-321
-141
-115
-373
-442
-267
-242
188
1196
1998
2582
2460
1187
140
-86
-182
-308
-172
83
4
-124
5
56
-62
-57
26
-22
-56
77
58
-19
87
68
-18
60
121
45
40
181
212
68
154
286
188
234
394
391
400
558
538
518
764
781
678
854
977
925
971
1199
1256
1207
1352
1334
1198
1245
1226
1012
930
922
650
359
390
292
12
44
46
-153
-223
-135
-154
-283
-252
-244
-335
-283
-203
-289
-344
-236
-284
-371
-276
-238
-221
-208
-263
-290
-292
-226
-197
-295
-213
-102
-242
-245
-146
-268
-305
-122
-130
-299
-214
-116
-276
-273
-106
-177
-282
-203
-197
-232
-181
-254
-360
-280
-171
-259
-354
-256
-225
-278
-199
-187
-244
-222
-216
-255
-245
-178
-276
-371
-232
-162
-270
-255
-200
-256
-257
-216
-172
-229
-208
-181
-360
-279
-151
-199
-205
-217
-221
-234
-169
-123
-206
-224
-199
-220
-227
-138
-117
-246
-207
-142
-236
-224
-84
-149
-176
40
22
-94
-2
5
-103
20
71
26
172
257
138
-98
-159
-130
-236
-209
-110
-189
-222
-130
-154
-284
-281
-153
-198
-251
-162
-236
-259
-171
-228
-244
-141
-181
-229
-175
-283
-404
-85
736
1656
2398
2757
1948
585
38
-158
-359
-213
56
38
-52
32
36
-50
-15
28
-33
-64
23
2
-74
29
99
53
74
89
41
131
217
186
158
276
376
204
217
421
309
303
563
499
412
694
810
731
892
1043
993
1010
1187
1245
1231
1355
1400
1315
1326
1349
1235
1134
932
653
530
550
418
167
163
83
-89
-108
-109
-162
-202
-150
-173
-291
-261
-181
-258
-252
-140
-185
-290
-205
-174
-297
-167
-71
-244
-212
-75
-178
-254
-145
-109
-146
-102
-29
-139
-248
-104
-153
-219
-58
-101
-247
-217
-142
-180
-178
-135
-228
-248
-192
-205
-202
-241
-259
-239
-226
-163
-230
-326
-150
-129
-294
-220
-164
-232
-171
-137
-265
-302
-172
-155
-295
-265
-152
-205
-251
-201
-273
-350
-178
-155
-305
-249
-165
-233
-230
-157
-238
-272
-157
-207
-300
-109
-86
-367
-285
-136
-332
-336
-197
-210
-267
-223
-162
-294
-315
-133
-161
-204
-50
-53
-93
-8
-28
-81
-12
111
10
-136
97
194
-34
-65
-150
-341
-296
-230
-312
-310
-212
-202
-290
-330
-273
-275
-300
-245
-265
-346
-315
-290
-340
-296
-232
-294
-317
-287
-436
-523
-53
702
1441
2390
2944
2049
695
146
-178
-384
-212
-110
-128
11
-27
-167
-85
-17
0
-63
-122
-88
-77
-73
-50
-28
38
99
3
-57
88
91
-11
137
200
52
224
390
195
205
381
402
378
495
622
581
653
799
846
891
1021
1058
1054
1204
1254
1210
1225
1352
1305
1088
1088
913
585
591
567
291
129
93
-27
-62
-96
-252
-266
-204
-225
-340
-290
-201
-342
-356
-283
-311
-346
-237
-195
-389
-344
-186
-320
-397
-235
-240
-362
-213
-208
-373
-271
-191
-296
-380
-269
-211
-310
-247
-255
-377
-306
-290
-367
-290
-216
-260
-317
-221
-219
-388
-315
-280
-377
-335
-218
-255
-376
-298
-251
-326
-324
-323
-379
-360
-218
-233
-389
-323
-318
-432
-337
-287
-354
-316
-184
-293
-461
-299
-285
-317
-249
-360
-366
-304
-269
-331
-374
-190
-230
-377
-284
-175
-239
-328
-222
-227
-325
-135
-107
-302
-236
-130
-300
-295
-32
-70
-164
-37
37
-76
-103
52
38
42
172
120
72
63
-104
-257
-245
-161
-140
-203
-218
-213
-233
-163
-189
-304
-243
-157
-228
-285
-168
-129
-257
-208
-123
-226
-175
-134
-385
-409
-94
333
1086
2080
2754
2278
1056
359
-66
-338
-197
-91
-102
73
130
-29
64
64
-83
49
172
48
-22
89
138
50
59
112
33
71
237
181
83
250
343
177
183
373
349
336
483
430
383
596
679
620
713
794
829
936
1085
1174
1159
1207
1265
1206
1271
1393
1252
1128
1140
923
680
716
543
206
190
170
-49
-73
41
-128
-290
-293
-291
-293
-314
-247
-320
-381
-306
-335
-342
-287
-292
-391
-349
-183
-261
-370
-256
-270
-341
-230
-241
-338
-267
-176
-164
-189
-261
-312
-311
-224
-164
-335
-342
-229
-345
-291
-203
-342
-411
-278
-211
-374
-382
-292
-348
-346
-288
-327
-383
-306
-218
-285
-373
-259
-251
-399
-335
-311
-373
-282
-229
-358
-375
-303
-382
-421
-295
-287
-384
-250
-240
-432
-340
-235
-365
-383
-264
-296
-402
-303
-227
-356
-353
-252
-356
-440
-300
-253
-334
-318
-320
-421
-342
-204
-305
-368
-217
-219
-292
-93
-144
-276
-102
-84
-184
-132
16
72
17
26
-33
-168
-223
-230
-281
-352
-255
-294
-411
-285
-272
-347
-315
-317
-347
-326
-278
-344
-424
-313
-261
-359
-287
-242
-374
-405
-421
-530
-239
720
1627
2356
2775
1908
531
-71
-140
-289
-346
-97
-96
-208
-101
21
-106
-202
-24
-62
-169
1
85
-53
-87
-31
-56
-3
37
-45
-9
140
74
22
163
179
123
127
269
301
296
503
465
412
574
624
612
753
973
931
907
1114
1256
1193
1146
1301
1289
1228
1305
1079
903
967
755
512
457
335
119
17
35
-32
-186
-184
-172
-364
-265
-160
-409
-389
-193
-334
-466
-314
-243
-365
-351
-252
-344
-338
-186
-200
-318
-272
-272
-342
-200
-184
-298
-290
-233
-271
-340
-246
-263
-377
-261
-270
-432
-377
-257
-334
-375
-253
-333
-403
-333
-367
-457
-422
-278
-319
-438
-358
-315
-441
-380
-246
-326
-353
-267
-370
-475
-340
-247
-362
-410
-267
-307
-479
-332
-258
-444
-341
-241
-381
-297
-239
-360
-315
-236
-322
-353
-267
-312
-352
-201
-185
-367
-332
-209
-290
-375
-242
-218
-328
-260
-203
-258
-252
-206
-235
-299
-191
-94
-208
-112
-76
-238
-168
0
40
-2
41
67
90
127
-23
-219
-300
-229
-221
-251
-165
-232
-370
-312
-270
-396
-350
-216
-324
-355
-260
-358
-422
-289
-190
-275
-276
-197
-364
-428
-369
-165
634
1724
2529
2697
1836
593
-84
-287
-248
-185
-103
46
30
-118
-101
6
-25
-102
-50
-9
-76
-26
55
-36
-16
112
19
-19
155
145
92
155
125
76
155
292
278
227
358
385
314
482
589
513
639
843
809
799
956
1012
1028
1152
1266
1241
1298
1361
1171
1194
1268
1036
801
698
581
432
334
159
5
-40
-19
-57
-166
-127
-105
-306
-335
-205
-286
-249
-197
-287
-314
-292
-231
-298
-317
-157
-203
-325
-187
-164
-288
-203
-129
-221
-215
-96
-139
-215
-148
-128
-206
-155
-112
-227
-181
-148
-194
-247
-162
-107
-321
-289
-184
-264
-228
-126
-210
-270
-208
-270
-293
-183
-236
-354
-247
-207
-314
-262
-195
-262
-295
-206
-166
-230
-286
-300
-306
-291
-246
-251
-252
-163
-184
-296
-222
-174
-268
-273
-178
-263
-332
-165
-164
-288
-236
-99
-170
-240
-104
-165
-347
-257
-187
-246
-176
-91
-142
-158
-91
-153
-186
-67
-6
-74
-46
98
82
22
130
105
-147
-193
-162
-288
-240
-173
-330
-334
-211
-259
-338
-202
-181
-432
-352
-199
-304
-306
-262
-289
-313
-257
-223
-299
-293
-353
-422
-48
761
1627
2348
2536
1620
432
-17
-95
-349
-387
-74
-8
-81
-26
40
-68
-95
45
-45
-180
2
73
-101
-57
76
9
-14
92
6
-1
213
152
4
126
169
115
193
309
352
351
423
489
437
524
709
698
756
933
929
956
1127
1132
1109
1287
1338
1191
1247
1244
1000
923
874
642
459
405
318
131
-8
8
-59
-215
-201
-163
-230
-197
-190
-291
-229
-169
-289
-306
-187
-246
-343
-214
-185
-311
-321
-224
-217
-269
-179
-170
-248
-162
-173
-284
-194
-116
-152
-194
-142
-184
-287
-165
-229
-380
-257
-163
-237
-329
-286
-254
-362
-298
-223
-413
-389
-206
-287
-400
-340
-357
-381
-260
-288
-449
-337
-204
-407
-432
-251
-255
-373
-338
-303
-450
-377
-232
-349
-389
-258
-305
-372
-228
-257
-415
-359
-247
-308
-358
-257
-243
-343
-296
-233
-302
-280
-204
-288
-340
-193
-233
-349
-226
-227
-358
-232
-146
-264
-160
-44
-169
-187
-55
-100
-201
-17
80
-67
7
155
36
-79
-63
-145
-294
-296
-237
-282
-252
-209
-284
-300
-233
-239
-375
-378
-250
-329
-351
-249
-342
-345
-230
-197
-291
-373
-409
-507
-215
415
1178
2113
2814
2381
964
152
-49
-331
-307
-12
-9
-117
56
-22
-185
33
59
-86
-80
32
44
-77
17
15
-117
-8
96
60
126
221
93
29
199
231
116
258
428
282
241
449
482
456
599
622
624
777
883
874
990
1211
1199
1163
1296
1357
1276
1306
1345
1123
1024
1042
739
552
582
297
27
110
74
-116
-189
-138
-164
-341
-304
-256
-397
-373
-275
-385
-357
-226
-371
-476
-278
-255
-367
-137
-141
-443
-398
-207
-244
-290
-202
-279
-397
-290
-240
-281
-256
-230
-277
-296
-249
-338
-383
-275
-233
-278
-319
-287
-344
-387
-227
-206
-341
-319
-267
-407
-438
-222
-253
-409
-332
-323
-422
-332
-238
-373
-413
-271
-328
-401
-264
-236
-395
-372
-219
-315
-369
-251
-325
-425
-323
-276
-327
-306
-251
-328
-351
-239
-318
-390
-264
-314
-425
-277
-223
-357
-353
-223
-305
-364
-168
-219
-391
-298
-186
-184
-193
-114
-132
-237
-98
-105
-205
-4
101
9
57
156
117
-39
-125
-140
-280
-245
-154
-251
-217
-120
-236
-358
-243
-189
-285
-261
-234
-350
-316
-267
-312
-245
-188
-147
-189
-308
-376
-440
-348
156
994
1942
2662
2389
1090
173
-98
-382
-373
-166
-80
-10
57
-53
-195
-47
39
-118
-112
56
3
-63
17
-4
-15
7
-5
1
102
187
96
50
265
332
130
162
302
279
334
493
420
366
609
678
587
735
851
829
950
1083
1049
1031
1211
1262
1142
1290
1346
1071
934
926
742
437
364
319
99
32
-3
-142
-179
-166
-280
-316
-206
-299
-430
-310
-301
-402
-355
-302
-374
-389
-265
-307
-384
-266
-258
-367
-304
-234
-275
-271
-222
-224
-263
-245
-207
-275
-289
-195
-247
-289
-182
-243
-298
-220
-214
-262
-289
-229
-301
-298
-160
-252
-380
-277
-166
-309
-310
-196
-304
-313
-226
-258
-284
-225
-241
-351
-258
-175
-303
-348
-268
-293
-365
-223
-182
-366
-366
-210
-222
-293
-204
-231
-324
-224
-211
-286
-235
-149
-246
-370
-244
-201
-304
-239
-212
-301
-235
-118
-228
-260
-77
-156
-315
-251
-131
-109
-77
14
-48
-85
-41
-2
-10
55
180
92
61
86
-103
-209
-139
-130
-220
-200
-151
-279
-249
-144
-237
-204
-93
-193
-312
-241
-169
-342
-283
-115
-272
-232
-123
-210
-347
-409
-137
484
1392
2333
2748
2189
1028
159
-123
-116
-139
-150
-3
94
2
-6
118
76
-76
14
111
42
55
83
32
55
137
106
93
226
228
120
192
225
191
277
345
315
289
454
515
431
530
655
705
750
863
887
874
1062
1185
1153
1212
1327
1311
1283
1385
1368
1234
1244
1188
944
746
666
507
297
271
193
-13
-2
31
-185
-219
-176
-270
-214
-163
-257
-315
-246
-235
-343
-215
-92
-280
-315
-172
-175
-248
-166
-154
-230
-147
-168
-249
-232
-197
-200
-250
-98
-109
-298
-176
-68
-182
-264
-168
-199
-309
-212
-177
-262
-236
-139
-241
-256
-108
-229
-284
-204
-210
-264
-293
-152
-215
-327
-198
-239
-285
-165
-171
-300
-283
-130
-190
-249
-141
-208
-320
-237
-125
-198
-289
-189
-202
-271
-219
-298
-365
-218
-117
-256
-275
-143
-245
-304
-157
-205
-321
-210
-142
-252
-254
-184
-249
-305
-218
-186
-275
-204
-177
-283
-132
3
-136
-201
-86
-87
-95
96
168
-16
-9
174
-59
-244
-119
-241
-331
-175
-186
-353
-286
-146
-304
-421
-261
-241
-373
-304
-219
-283
-313
-269
-300
-282
-200
-273
-330
-388
-470
-284
367
1395
2278
2758
2355
1018
85
-127
-277
-262
-26
20
-114
-99
33
6
-86
26
60
-164
-122
-3
-84
-53
21
31
-20
-16
44
54
67
74
75
154
197
148
117
218
300
254
399
503
407
505
687
633
665
865
892
889
1046
1187
1163
1205
1325
1246
1148
1259
1197
938
889
819
552
347
352
208
30
105
-96
-271
-237
-276
-316
-327
-236
-324
-454
-351
-282
-381
-340
-258
-378
-356
-266
-298
-368
-332
-279
-384
-337
-229
-308
-302
-249
-290
-335
-286
-254
-320
-260
-196
-283
-338
-247
-289
-298
-187
-338
-374
-248
-248
-249
-316
-366
-304
-323
-280
-224
-344
-327
-222
-354
-386
-222
-333
-365
-193
-275
-252
-177
-337
-343
-265
-224
-268
-354
-238
-182
-269
-283
-247
-302
-292
-155
-236
-341
-186
-154
-295
-249
-140
-242
-292
-155
-190
-245
-143
-192
-275
-213
-156
-232
-262
-175
-177
-188
-179
-182
-186
-97
-6
-116
-82
100
-69
-158
70
64
-10
116
229
116
-59
-44
-101
-245
-176
-137
-254
-200
-101
-185
-280
-283
-245
-282
-226
-193
-282
-163
-93
-236
-225
-149
-199
-263
-195
-212
-408
-158
584
1346
2214
2850
2127
708
88
-91
-241
-196
-42
19
70
134
24
-7
147
60
-87
25
153
130
46
106
82
13
176
185
95
192
181
147
263
300
215
170
330
439
363
415
535
476
452
620
685
662
823
909
913
1014
1052
1121
1153
1182
1210
1178
1288
1248
1032
1002
872
570
501
516
222
5
82
11
-144
-145
-146
-238
-265
-155
-220
-343
-237
-244
-340
-253
-252
-410
-356
-261
-343
-341
-225
-117
-222
-305
-187
-287
-365
-200
-210
-236
-114
-158
-260
-220
-161
-228
-222
-131
-232
-308
-194
-238
-315
-218
-226
-296
-275
-185
-223
-325
-233
-216
-332
-283
-237
-228
-192
-223
-247
-332
-263
-212
-374
-312
-189
-230
-260
-254
-314
-310
-230
-195
-227
-244
-221
-249
-271
-231
-220
-273
-142
-185
-405
-235
-160
-313
-251
-180
-309
-286
-146
-230
-293
-200
-151
-251
-272
-182
-177
-197
-221
-243
-242
-116
-64
-149
-93
-15
-66
-94
14
-25
-79
103
176
93
132
87
-238
-284
-105
-190
-193
-118
-231
-289
-227
-164
-188
-263
-159
-117
-263
-163
-102
-285
-231
-98
-231
-231
-102
-267
-462
-338
33
628
1605
2563
2798
1823
605
126
-139
-249
-180
-94
89
137
5
-31
10
103
74
26
106
50
69
147
45
70
149
102
223
252
126
134
212
255
221
203
308
347
253
419
598
489
596
822
687
748
1044
1014
1045
1197
1238
1269
1403
1436
1339
1419
1539
1445
1306
1280
1199
993
854
733
480
377
409
236
36
87
42
-129
-165
-128
-114
-119
-172
-289
-238
-109
-174
-312
-328
-225
-227
-264
-152
-188
-291
-188
-207
-319
-200
-133
-249
-239
-127
-210
-344
-243
-147
-297
-327
-186
-221
-210
-239
-397
-429
-301
-229
-391
-339
-251
-396
-360
-276
-341
-445
-408
-382
-449
-341
-253
-290
-334
-346
-326
-452
-408
-299
-522
-432
-262
-505
-434
-302
-465
-432
-277
-341
-424
-364
-338
-372
-420
-326
-326
-466
-341
-257
-395
-383
-293
-348
-291
-222
-356
-326
-306
-317
-302
-388
-274
-204
-352
-280
-205
-288
-203
-86
-179
-215
-114
-152
-47
6
-99
-59
71
130
41
151
277
34
-170
-198
-260
-276
-264
-251
-285
-307
-248
-339
-288
-134
-242
-346
-275
-108
-264
-423
-236
-277
-315
-137
-198
-420
-470
-370
-72
697
1827
2655
2758
1881
624
27
-130
-220
-236
-55
66
-116
-163
11
-19
-90
69
39
-167
-92
44
-81
-40
118
-18
-52
110
73
9
86
160
205
145
199
258
192
304
351
316
430
605
556
525
712
736
763
932
1001
1031
1133
1200
1169
1211
1296
1197
1171
1278
1118
880
820
689
502
362
193
15
-93
-55
-113
-282
-210
-185
-379
-432
-296
-322
-424
-285
-303
-482
-374
-258
-378
-383
-252
-325
-399
-295
-339
-459
-292
-179
-331
-329
-242
-283
-362
-227
-86
-244
-259
-199
-348
-392
-225
-257
-360
-310
-312
-368
-328
-244
-338
-414
-351
-342
-351
-252
-323
-482
-330
-244
-366
-340
-145
-169
-366
-344
-267
-290
-352
-382
-500
-537
-374
-456
-569
-466
-508
-546
-513
-564
-702
-673
-510
-588
-602
-461
-493
-633
-586
-497
-649
-650
-413
-435
-547
-474
-484
-541
-429
-390
-526
-465
-310
-298
-364
-267
-169
-354
-231
-64
-220
-113
-8
-114
-94
53
66
-124
-181
-240
-331
-187
-171
-263
-249
-195
-214
-377
-294
-172
-261
-224
-85
-90
-232
-143
-59
-184
-117
6
-38
-109
-167
-276
-11
742
1534
2320
2826
2150
831
171
17
-171
-219
-12
90
24
13
134
82
23
192
109
-59
186
282
97
143
270
196
187
394
330
221
404
374
277
451
440
367
514
538
485
557
670
655
667
764
776
786
855
985
1040
1033
1160
1263
1182
1228
1389
1307
1196
1176
1097
945
865
777
444
322
337
80
-44
12
-172
-337
-222
-224
-355
-291
-268
-383
-310
-227
-440
-474
-340
-388
-430
-383
-281
-373
-398
-298
-377
-348
-300
-384
-338
-249
-266
-369
-407
-294
-286
-311
-262
-264
-299
-260
-228
-348
-313
-211
-298
-287
-236
-293
-382
-362
-253
-331
-376
-285
-354
-403
-298
-301
-403
-304
-257
-429
-437
-285
-319
-393
-276
-325
-430
-286
-203
-280
-346
-251
-216
-381
-345
-321
-383
-329
-272
-266
-345
-248
-206
-351
-262
-266
-382
-261
-187
-296
-296
-132
-157
-241
-194
-232
-221
-141
-106
-89
-110
-79
-133
-155
60
56
-26
112
167
157
114
27
-59
-117
-83
-71
-145
-190
-125
-110
-154
-68
-10
-131
-124
-83
-173
-83
10
-134
2
81
-294
-283
-133
-285
-389
-159
374
1130
2100
2832
2463
1153
354
25
-241
-183
-108
-101
-27
90
43
-108
-18
25
-139
-76
21
-53
-21
103
23
-52
59
56
38
164
131
-35
58
195
122
91
251
236
168
386
401
295
437
638
602
532
802
866
796
1026
1122
1026
1117
1238
1192
1244
1276
1201
1054
1001
985
742
565
450
209
29
97
13
-192
-177
-222
-339
-364
-337
-380
-417
-341
-340
-372
-261
-289
-469
-439
-337
-397
-438
-271
-329
-482
-298
-229
-355
-319
-202
-302
-387
-164
-151
-379
-233
-133
-287
-211
-168
-325
-364
-278
-301
-382
-263
-158
-351
-417
-202
-253
-411
-327
-246
-272
-341
-249
-240
-389
-337
-328
-449
-318
-228
-381
-297
-203
-316
-285
-199
-311
-294
-164
-223
-304
-294
-260
-240
-185
-194
-275
-278
-247
-308
-365
-251
-176
-252
-285
-286
-249
-292
-231
-171
-320
-241
-147
-297
-262
-180
-323
-185
-48
-236
-206
-5
-39
-180
-153
-75
-105
-103
12
52
57
123
101
-93
-228
-151
-186
-275
-145
-182
-312
-228
-278
-335
-250
-260
-301
-298
-257
-234
-303
-283
-166
-335
-340
-110
-306
-477
-424
-326
179
1083
1966
2661
2704
1624
350
-185
-175
-233
-185
63
-4
-92
-9
43
-4
25
77
44
-5
-2
34
-58
-14
147
101
52
112
175
185
223
245
100
110
296
245
178
348
435
393
480
539
509
601
748
804
851
1049
1092
1057
1159
1263
1259
1294
1449
1427
1298
1218
1061
920
881
651
452
436
319
138
32
35
-59
-159
-100
-91
-187
-239
-167
-147
-327
-289
-188
-327
-228
-177
-340
-294
-213
-244
-209
-152
-172
-212
-215
-207
-256
-256
-137
-160
-282
-180
-120
-248
-211
-126
-193
-151
-101
-194
-174
-116
-134
-176
-215
-252
-289
-186
-141
-259
-222
-124
-200
-318
-236
-128
-275
-299
-141
-237
-262
-136
-215
-285
-171
-147
-303
-231
-91
-215
-269
-186
-236
-304
-196
-160
-240
-184
-184
-298
-267
-88
-144
-251
-162
-212
-251
-130
-51
-162
-247
-126
-125
-220
-104
28
-29
-71
35
0
-78
133
118
-37
183
283
116
6
-56
-134
-199
-171
-163
-227
-194
-148
-206
-199
-166
-272
-289
-131
-111
-260
-269
-212
-276
-222
-139
-270
-309
-138
-288
-486
-260
222
959
1827
2599
2433
1167
388
53
-330
-293
-246
-159
-18
-24
-69
-116
-4
-15
-119
-2
12
-81
1
95
-8
-25
132
66
-49
72
165
109
138
216
170
141
246
259
225
395
456
392
546
680
586
652
841
891
969
1111
1133
1069
1179
1327
1228
1263
1420
1284
1150
1096
887
681
659
626
328
129
139
16
-142
-108
-71
-262
-276
-125
-223
-336
-227
-257
-409
-289
-235
-379
-362
-237
-273
-364
-255
-293
-433
-294
-199
-291
-312
-270
-275
-270
-183
-232
-427
-284
-128
-289
-314
-154
-170
-307
-244
-207
-316
-266
-285
-390
-314
-249
-298
-312
-199
-209
-378
-288
-213
-361
-255
-214
-372
-361
-287
-290
-328
-298
-260
-365
-324
-264
-420
-364
-302
-326
-290
-256
-302
-366
-274
-250
-375
-350
-179
-256
-415
-305
-213
-314
-274
-202
-325
-326
-222
-321
-362
-172
-260
-410
-204
-169
-303
-256
-163
-114
-158
-149
-97
-166
-138
14
-23
-97
27
42
6
19
-176
-304
-219
-242
-225
-169
-247
-286
-312
-251
-198
-301
-303
-228
-313
-320
-213
-284
-344
-235
-208
-312
-189
-143
-406
-497
-193
389
1196
2142
2760
2370
1177
317
-101
-253
-230
-158
27
65
13
14
-5
-38
-35
-40
-3
-36
-70
71
86
-25
30
160
93
20
161
168
109
207
191
108
166
258
218
310
493
428
417
628
702
639
728
843
876
989
1084
1193
1345
1409
1369
1259
1314
1423
1328
1228
1150
949
724
635
560
363
204
121
25
-80
-90
-154
-229
-152
-246
-342
-206
-210
-374
-354
-233
-292
-370
-241
-165
-333
-325
-185
-287
-322
-175
-299
-385
-191
-193
-252
-199
-221
-295
-285
-219
-204
-268
-214
-139
-306
-303
-134
-263
-321
-165
-268
-360
-247
-244
-353
-292
-185
-351
-348
-118
-214
-400
-341
-216
-287
-275
-220
-380
-276
-123
-277
-356
-301
-315
-337
-279
-230
-310
-326
-208
-304
-380
-204
-234
-347
-230
-202
-334
-236
-86
-272
-365
-222
-229
-376
-286
-95
-241
-319
-195
-242
-317
-209
-167
-316
-236
-113
-260
-214
-98
-170
-187
-135
-115
-179
-91
50
-25
-12
103
56
17
31
-100
-238
-210
-171
-271
-324
-208
-200
-252
-166
-266
-370
-287
-301
-302
-254
-227
-252
-326
-198
-118
-317
-266
-149
-407
-436
-53
413
1276
2257
2766
2314
1004
112
-172
-328
-243
-71
-40
10
-5
-188
-116
-9
-141
-91
62
23
-41
28
-5
-137
-75
28
-8
-32
97
104
53
204
176
35
58
165
125
165
402
354
309
538
573
491
673
830
757
873
1092
1035
1086
1287
1293
1196
1205
1312
1215
1074
1017
844
742
613
317
122
106
37
-193
-204
-79
-264
-396
-239
-267
-457
-411
-325
-349
-349
-296
-361
-462
-324
-299
-422
-350
-260
-345
-389
-313
-326
-373
-311
-309
-380
-320
-288
-347
-302
-244
-365
-391
-245
-246
-309
-275
-285
-347
-316
-299
-329
-360
-336
-280
-346
-299
-209
-304
-333
-292
-370
-361
-275
-318
-369
-274
-226
-334
-288
-212
-293
-326
-308
-262
-274
-287
-254
-329
-262
-141
-295
-411
-298
-241
-306
-258
-156
-218
-213
-100
-225
-376
-263
-194
-298
-242
-184
-303
-260
-160
-217
-268
-223
-196
-224
-124
-26
-167
-150
2
-111
-158
-21
4
-37
62
156
89
86
80
-148
-285
-235
-234
-241
-248
-217
-226
-327
-284
-237
-261
-267
-300
-279
-262
-281
-304
-322
-212
-215
-306
-189
-224
-445
-401
-99
415
1285
2161
2605
2120
930
112
-252
-317
-195
-166
-89
-11
-27
-13
1
-25
-95
-81
-22
-115
-106
58
-11
-75
49
17
-51
58
146
80
66
153
127
94
244
303
206
286
385
367
407
562
616
601
791
854
753
945
1188
1085
1069
1308
1268
1165
1371
1437
1219
1162
1077
746
635
632
414
157
127
117
-20
-59
-89
-217
-261
-253
-340
-356
-275
-295
-346
-289
-264
-386
-394
-304
-362
-404
-322
-308
-375
-318
-257
-381
-325
-154
-290
-365
-220
-218
-431
-351
-155
-301
-356
-264
-266
-291
-239
-261
-340
-244
-206
-334
-333
-241
-316
-354
-211
-292
-345
-251
-340
-381
-337
-311
-344
-390
-309
-289
-407
-318
-247
-387
-348
-240
-287
-421
-375
-296
-356
-331
-318
-342
-337
-319
-402
-448
-285
-303
-417
-353
-287
-306
-298
-245
-359
-402
-222
-269
-409
-314
-186
-229
-332
-306
-328
-352
-174
-216
-336
-242
-211
-261
-236
-136
-184
-133
-72
-130
-89
-9
34
-119
-93
93
92
128
141
40
-157
-244
-135
-188
-227
-216
-266
-208
-186
-266
-355
-279
-184
-275
-286
-190
-242
-250
-183
-226
-210
-162
-173
-284
-397
-253
21
480
1469
2436
2730
2144
962
130
-168
-238
-237
-110
111
39
-133
-18
58
-111
-81
61
-61
-71
56
-19
-14
63
22
2
68
115
83
99
147
148
118
218
261
128
236
477
369
314
562
529
486
746
833
750
905
1051
973
1056
1257
1249
1175
1341
1434
1343
1321
1246
1037
871
818
641
380
297
245
22
-50
-27
-189
-240
-157
-225
-391
-333
-194
-356
-430
-292
-356
-357
-226
-280
-350
-304
-340
-405
-300
-233
-334
-331
-224
-321
-363
-158
-205
-376
-325
-222
-263
-338
-234
-223
-336
-301
-229
-266
-245
-243
-388
-311
-154
-311
-401
-257
-258
-317
-237
-283
-370
-356
-243
-190
-300
-281
-279
-398
-345
-238
-354
-404
-209
-190
-396
-368
-282
-373
-298
-188
-307
-358
-170
-209
-432
-301
-192
-321
-298
-190
-280
-323
-190
-212
-267
-232
-225
-283
-341
-211
-239
-371
-204
-227
-321
-174
-245
-394
-188
-87
-316
-322
-150
-197
-252
-126
-61
-161
-155
-42
-122
-117
41
4
23
114
55
-20
1
-33
-271
-222
-80
-242
-304
-250
-180
-216
-256
-203
-301
-328
-203
-235
-325
-245
-203
-283
-204
-114
-308
-342
-202
-329
-452
-312
141
871
1795
2601
2497
1347
381
-59
-349
-234
-108
-164
-23
29
-106
-125
-29
-19
-178
-94
43
-82
-69
38
25
27
109
113
9
39
104
50
135
182
113
160
240
203
193
327
414
380
409
591
612
604
792
878
863
1010
1072
1054
1181
1273
1279
1240
1279
1295
1157
1053
956
769
584
503
327
93
106
37
-144
-115
-165
-326
-295
-209
-292
-366
-226
-252
-413
-377
-292
-332
-374
-332
-371
-378
-293
-343
-387
-281
-251
-343
-342
-217
-274
-340
-213
-279
-351
-184
-164
-296
-268
-203
-277
-335
-242
-276
-393
-222
-193
-326
-279
-350
-436
-345
-261
-321
-361
-320
-362
-443
-367
-269
-365
-401
-227
-278
-430
-345
-371
-482
-396
-309
-388
-362
-254
-326
-385
-298
-357
-452
-294
-218
-388
-405
-275
-365
-417
-268
-327
-417
-302
-308
-353
-312
-265
-305
-409
-263
-182
-384
-316
-116
-263
-371
-249
-257
-307
-242
-229
-304
-201
-176
-268
-120
-19
-135
-189
-45
2
-39
47
21
-62
66
135
-88
-218
-144
-198
-339
-246
-127
-217
-288
-229
-219
-331
-232
-136
-355
-373
-196
-273
-319
-202
-234
-295
-218
-204
-347
-375
-298
-217
375
1383
2140
2637
2242
900
53
-186
-272
-303
-207
29
-40
-140
75
74
-124
-32
29
-140
-167
1
10
-48
91
77
-77
47
204
82
52
182
160
112
231
254
178
318
394
321
386
534
627
604
610
700
732
845
983
998
1111
1263
1269
1280
1284
1264
1315
1309
1193
1029
892
846
604
389
390
208
48
52
0
-158
-226
-107
-163
-319
-254
-266
-347
-232
-140
-265
-327
-246
-282
-339
-218
-177
-280
-233
-158
-250
-286
-152
-193
-356
-215
-95
-240
-267
-190
-258
-260
-146
-185
-256
-179
-196
-337
-224
-148
-275
-273
-192
-249
-328
-180
-147
-315
-265
-179
-323
-326
-182
-260
-312
-162
-212
-365
-260
-214
-349
-318
-228
-279
-270
-213
-285
-361
-271
-197
-228
-321
-362
-262
-250
-213
-190
-308
-279
-159
-270
-329
-195
-251
-351
-169
-161
-343
-199
-149
-304
-241
-156
-270
-257
-107
-192
-341
-212
-142
-333
-269
-102
-257
-406
-250
-159
-220
-129
-116
-226
-130
7
-71
-112
32
3
-163
0
140
-27
15
175
105
-28
-92
-166
-303
-254
-85
-198
-302
-217
-232
-239
-146
-213
-394
-336
-217
-354
-424
-221
-259
-389
-238
-246
-332
-273
-334
-502
-315
402
1203
1984
2775
2592
1171
174
-52
-290
-289
-5
64
-44
4
-38
-180
-64
36
-105
-101
67
4
-84
42
13
-91
38
138
58
38
172
160
74
211
172
19
215
378
285
313
407
368
421
624
661
584
794
967
883
991
1209
1238
1216
1343
1429
1320
1332
1423
1293
1077
1070
941
628
566
463
268
188
119
-34
-98
-3
-105
-321
-252
-157
-227
-199
-206
-306
-265
-170
-281
-306
-213
-281
-289
-170
-152
-296
-290
-136
-186
-314
-224
-158
-304
-258
-105
-207
-261
-186
-254
-334
-171
-122
-382
-372
-184
-297
-379
-276
-282
-337
-249
-156
-277
-325
-237
-385
-425
-216
-237
-377
-296
-224
-359
-337
-276
-429
-387
-274
-360
-354
-219
-272
-407
-337
-258
-327
-343
-235
-299
-428
-349
-298
-301
-288
-270
-361
-374
-160
-301
-495
-322
-232
-320
-345
-300
-340
-328
-244
-313
-346
-221
-235
-366
-311
-205
-275
-285
-247
-336
-368
-250
-237
-321
-269
-237
-251
-211
-195
-250
-234
-110
-112
-152
-68
-12
-34
-20
69
14
-187
-200
-224
-344
-263
-255
-402
-306
-139
-249
-401
-352
-265
-331
-341
-244
-371
-390
-234
-319
-348
-241
-272
-305
-284
-305
-437
-338
282
1018
1826
2583
2351
1015
46
-178
-412
-405
-96
-105
-263
-113
-55
-231
-196
-51
-151
-183
82
29
-182
-20
29
-84
16
110
-13
18
216
141
6
131
144
72
250
273
152
283
426
409
451
598
645
680
757
773
815
943
1050
1092
1125
1207
1250
1142
1208
1322
1083
918
984
803
563
505
308
88
80
43
-73
-93
-161
-280
-235
-215
-318
-384
-320
-236
-329
-354
-264
-358
-429
-257
-318
-471
-229
-191
-413
-421
-308
-289
-349
-256
-248
-360
-255
-185
-314
-332
-243
-293
-313
-242
-298
-332
-222
-207
-389
-416
-230
-303
-441
-338
-349
-479
-422
-279
-366
-456
-370
-372
-400
-363
-447
-509
-344
-396
-541
-379
-307
-416
-441
-366
-355
-449
-378
-316
-421
-356
-277
-408
-429
-279
-376
-481
-315
-309
-398
-376
-351
-385
-410
-298
-275
-403
-395
-349
-338
-267
-298
-439
-425
-276
-294
-381
-388
-330
-328
-351
-266
-349
-418
-249
-189
-338
-277
-197
-296
-204
-136
-183
-174
-109
-107
-131
-27
91
36
-39
26
-90
-309
-213
-206
-368
-265
-252
-348
-345
-279
-301
-388
-250
-262
-426
-324
-326
-435
-337
-250
-281
-337
-217
-222
-419
-450
-476
-229
597
1589
2299
2598
1955
690
-26
-214
-272
-300
-106
82
-70
-156
-59
1
-90
-82
11
-104
-106
21
-10
-28
81
51
-48
85
87
-101
15
211
132
57
182
188
122
309
358
223
357
487
409
511
718
721
711
888
986
913
1018
1233
1246
1242
1318
1255
1250
1328
1235
1074
890
668
447
298
328
266
-29
-43
-3
-254
-221
-148
-281
-317
-242
-268
-452
-347
-248
-389
-333
-240
-298
-296
-240
-269
-364
-294
-216
-321
-287
-188
-258
-236
-43
-152
-445
-262
-106
-294
-240
-110
-210
-316
-258
-254
-311
-217
-198
-280
-263
-241
-302
-323
-252
-231
-323
-292
-206
-310
-280
-192
-348
-360
-196
-254
-341
-212
-209
-364
-274
-186
-307
-304
-209
-259
-362
-282
-230
-309
-289
-153
-210
-387
-251
-172
-281
-184
-174
-315
-210
-157
-285
-310
-260
-185
-186
-265
-245
-244
-234
-118
-141
-227
-187
-214
-283
-151
-90
-244
-223
-119
-276
-283
-56
-142
-270
-127
-74
-124
-7
71
-74
-107
43
54
-59
90
198
38
124
248
153
54
-50
-209
-267
-119
-76
-193
-174
-142
-215
-257
-191
-210
-305
-211
-173
-282
-212
-97
-231
-217
-47
-148
-252
-238
-326
-456
-169
570
1420
2277
2955
2427
903
205
-19
-329
-198
66
53
-38
35
1
-85
60
82
-120
-45
124
-66
-103
143
74
-49
62
102
72
87
139
150
155
182
126
113
275
343
266
339
431
438
515
623
615
634
854
974
904
1016
1227
1179
1145
1307
1341
1260
1343
1406
1165
1054
1102
848
622
528
321
138
88
20
-94
-130
-143
-235
-269
-195
-285
-353
-256
-253
-257
-267
-293
-346
-362
-230
-262
-371
-271
-228
-332
-269
-190
-280
-318
-207
-211
-273
-174
-207
-343
-233
-166
-322
-347
-265
-250
-285
-246
-247
-377
-333
-204
-317
-344
-179
-315
-403
-220
-280
-362
-222
-225
-392
-373
-268
-329
-401
-312
-211
-350
-346
-186
-363
-396
-275
-301
-290
-297
-274
-306
-314
-248
-331
-340
-178
-264
-369
-153
-139
-293
-228
-196
-314
-338
-214
-260
-322
-140
-156
-330
-275
-205
-288
-259
-149
-208
-307
-276
-261
-308
-246
-153
-167
-224
-155
-125
-181
-100
-140
-218
-80
-1
-108
-119
79
128
-2
75
172
-5
-151
-134
-222
-351
-249
-209
-294
-199
-194
-292
-243
-264
-370
-306
-185
-257
-342
-240
-249
-331
-209
-145
-234
-248
-261
-415
-410
84
859
1653
2439
2682
1544
245
-26
-109
-304
-215
-38
-116
-11
138
-45
-86
34
26
-38
4
22
-57
-4
85
9
-11
91
83
41
102
116
46
152
303
210
162
287
279
255
450
563
444
527
717
637
710
922
868
869
1061
1136
1077
1210
1373
1226
1191
1288
1180
1059
982
850
642
501
413
215
112
124
-46
-216
-141
-129
-317
-326
-222
-255
-299
-312
-341
-336
-215
-267
-424
-302
-245
-344
-315
-233
-302
-354
-267
-269
-316
-272
-202
-279
-299
-192
-245
-319
-216
-173
-304
-273
-158
-246
-296
-192
-235
-323
-179
-174
-360
-289
-195
-332
-320
-171
-243
-395
-280
-255
-400
-281
-196
-339
-365
-200
-242
-369
-277
-269
-382
-322
-276
-378
-278
-197
-355
-362
-245
-277
-351
-282
-221
-341
-338
-242
-307
-330
-186
-165
-324
-290
-225
-313
-267
-160
-239
-344
-223
-112
-215
-251
-155
-208
-308
-207
-197
-312
-190
-170
-281
-170
-99
-283
-226
-20
-124
-28
55
-59
-45
42
46
-31
76
208
125
-58
-107
-114
-225
-180
-115
-201
-197
-106
-180
-337
-255
-140
-255
-273
-137
-230
-238
-89
-242
-289
-109
-101
-187
-219
-272
-375
-148
582
1432
2278
2907
2303
798
141
61
-272
-265
62
56
-69
50
69
-55
17
76
-10
23
152
111
-35
5
31
3
98
111
97
81
128
182
133
192
216
172
251
361
354
363
489
497
455
600
718
708
823
963
926
1026
1253
1208
1193
1385
1405
1307
1348
1345
1171
1128
1057
793
607
562
482
162
1
69
-56
-168
-121
-189
-243
-187
-271
-330
-224
-186
-356
-380
-266
-323
-328
-237
-257
-332
-273
-236
-319
-286
-185
-267
-339
-186
-173
-301
-229
-173
-286
-277
-125
-187
-318
-229
-268
-409
-229
-161
-413
-275
-114
-345
-380
-245
-280
-323
-259
-310
-403
-354
-277
-304
-353
-295
-284
-387
-286
-191
-348
-283
-172
-318
-348
-271
-366
-406
-244
-246
-323
-220
-188
-307
-379
-249
-222
-364
-279
-277
-382
-253
-223
-358
-293
-158
-270
-357
-233
-207
-304
-252
-151
-250
-252
-147
-232
-272
-175
-159
-278
-224
-116
-194
-176
-193
-239
-221
-137
-82
-170
-116
-36
-90
-88
-29
-7
-9
8
106
102
86
113
-104
-217
-186
-218
-263
-259
-154
-199
-278
-227
-332
-374
-182
-213
-346
-243
-170
-283
-239
-123
-226
-302
-223
-291
-418
-354
-181
335
1310
2311
2796
2288
1013
160
-149
-246
-110
-42
-67
-42
-11
-12
12
-37
-44
41
35
-68
-36
95
12
-33
130
112
-14
128
239
75
117
220
84
103
299
325
276
398
451
402
471
575
558
604
841
845
734
944
1125
1094
1195
1349
1253
1197
1349
1351
1242
1267
1206
958
836
769
534
337
356
284
65
8
15
-96
-151
-96
-203
-283
-166
-203
-337
-252
-159
-267
-219
-103
-255
-272
-152
-223
-240
-141
-144
-190
-165
-116
-196
-240
-75
-112
-251
-168
-130
-205
-214
-140
-140
-151
-99
-166
-220
-232
-278
-252
-251
-241
-208
-217
-153
-230
-378
-226
-185
-316
-273
-229
-293
-324
-206
-252
-335
-220
-207
-313
-271
-153
-251
-322
-254
-282
-328
-234
-193
-307
-249
-166
-294
-273
-133
-192
-295
-171
-140
-268
-242
-168
-262
-331
-179
-247
-376
-146
-146
-308
-196
-156
-257
-216
-96
-171
-258
-142
-151
-285
-111
-9
-186
-128
-6
-82
-117
-1
60
14
40
115
125
83
89
-23
-243
-184
-121
-268
-270
-187
-220
-296
-198
-167
-318
-262
-197
-287
-261
-207
-300
-345
-247
-202
-301
-211
-82
-351
-461
-265
89
900
1863
2512
2358
1293
333
-152
-309
-237
-244
-120
52
-7
-76
-40
-36
-53
-84
-106
-128
-115
-8
-38
-65
63
50
-30
12
66
20
28
179
161
38
172
295
218
237
336
324
376
576
575
543
721
767
782
916
1043
1087
1085
1252
1248
1161
1361
1356
1181
1203
1141
863
715
751
590
295
257
128
-97
16
19
-213
-233
-146
-271
-356
-262
-271
-363
-332
-258
-366
-341
-205
-307
-371
-261
-222
-324
-305
-240
-300
-299
-199
-200
-322
-288
-207
-303
-306
-236
-324
-360
-236
-237
-312
-227
-210
-300
-223
-178
-373
-375
-182
-270
-386
-261
-258
-378
-293
-232
-397
-353
-167
-295
-389
-274
-280
-368
-293
-255
-378
-314
-287
-380
-335
-290
-365
-453
-322
-227
-330
-320
-239
-287
-389
-319
-233
-380
-402
-255
-342
-343
-193
-224
-281
-251
-249
-322
-278
-176
-222
-253
-217
-226
-248
-171
-166
-278
-211
-140
-256
-218
-127
-215
-257
-205
-210
-266
-114
-18
-186
-167
-64
-110
-108
14
39
-13
112
197
93
38
12
-160
-257
-212
-183
-237
-198
-96
-242
-276
-158
-252
-274
-133
-159
-279
-221
-122
-208
-233
-174
-241
-247
-183
-247
-427
-297
194
863
1888
2760
2700
1587
457
-25
-229
-196
-25
57
87
97
-21
-92
53
62
-101
-1
153
7
-36
190
125
-18
105
72
20
134
209
167
128
289
254
135
330
312
182
351
483
443
518
658
633
632
830
906
890
1035
1117
1103
1198
1337
1331
1301
1408
1430
1218
1126
1108
883
768
684
437
271
235
117
-99
-72
-16
-242
-280
-86
-216
-320
-191
-266
-395
-339
-262
-369
-380
-237
-316
-347
-188
-266
-390
-252
-233
-332
-258
-206
-310
-308
-176
-204
-261
-200
-196
-345
-336
-148
-264
-379
-203
-276
-393
-197
-188
-360
-279
-187
-375
-408
-226
-301
-383
-267
-258
-327
-292
-280
-399
-363
-238
-296
-352
-278
-247
-369
-380
-227
-279
-318
-242
-328
-362
-252
-189
-323
-347
-194
-301
-357
-240
-331
-373
-189
-201
-399
-356
-234
-322
-336
-177
-217
-289
-207
-205
-271
-226
-241
-346
-286
-201
-213
-242
-218
-241
-264
-176
-142
-216
-274
-155
-163
-238
-64
-37
-122
-54
-6
-128
-127
75
91
58
165
177
67
13
-128
-256
-136
-85
-214
-291
-203
-172
-258
-192
-150
-284
-303
-139
-162
-307
-200
-123
-241
-192
-102
-213
-211
-148
-280
-371
-83
642
1520
2360
2850
1996
640
102
-240
-397
-216
-61
-61
7
92
-37
-52
28
-39
-54
83
60
-46
63
106
0
34
147
117
50
129
223
146
176
276
147
207
388
291
260
431
479
422
544
678
661
711
816
893
977
1136
1167
1079
1228
1358
1276
1253
1350
1311
1145
1069
967
755
614
528
358
305
288
81
-78
-98
-120
-212
-207
-138
-275
-316
-199
-251
-336
-338
-308
-269
-324
-298
-246
-253
-177
-232
-294
-254
-255
-266
-185
-126
-196
-179
-147
-229
-249
-184
-210
-284
-210
-161
-243
-206
-157
-231
-263
-140
-115
-336
-306
-128
-250
-320
-215
-299
-372
-282
-272
-333
-273
-241
-304
-293
-227
-269
-362
-252
-214
-299
-210
-175
-278
-264
-188
-262
-287
-138
-175
-335
-213
-53
-174
-246
-170
-240
-305
-162
-132
-281
-223
-161
-307
-254
-93
-164
-214
-167
-171
-186
-167
-130
-174
-158
-149
-199
-211
-177
-92
-147
-118
-20
-120
-82
30
-76
-85
91
91
-14
83
230
157
121
90
-128
-202
-82
-143
-239
-122
-151
-245
-204
-173
-207
-221
-184
-239
-313
-229
-149
-202
-211
-156
-208
-233
-139
-222
-366
-356
-191
292
1157
2119
2647
2168
1006
184
-174
-239
-198
-233
-58
179
67
-112
-17
14
-111
-20
59
-69
6
101
41
67
62
35
2
72
204
125
89
240
227
182
286
264
232
368
453
379
415
602
603
597
805
866
802
994
1111
977
1095
1297
1228
1231
1400
1380
1232
1202
1099
879
774
709
518
280
254
183
-69
-40
-3
-228
-245
-140
-273
-327
-160
-197
-356
-320
-278
-342
-303
-213
-278
-297
-177
-228
-306
-198
-187
-234
-230
-188
-173
-240
-186
-212
-293
-194
-150
-265
-267
-137
-214
-238
-160
-239
-293
-236
-210
-309
-296
-181
-266
-311
-175
-215
-310
-246
-237
-298
-286
-262
-316
-298
-222
-263
-315
-247
-248
-335
-236
-171
-310
-361
-235
-233
-381
-293
-167
-320
-286
-155
-319
-333
-185
-264
-314
-189
-195
-300
-282
-227
-253
-232
-204
-257
-260
-225
-272
-310
-200
-163
-297
-331
-179
-167
-297
-237
-195
-290
-221
-164
-249
-216
-117
-155
-203
-86
-24
-180
-179
15
-59
-52
115
0
-10
192
145
-94
-143
-147
-290
-269
-125
-181
-293
-196
-195
-340
-266
-168
-246
-309
-260
-277
-323
-221
-279
-321
-165
-220
-381
-420
-397
-394
-88
630
1511
2386
2809
2059
686
39
-126
-375
-264
106
19
-113
16
10
-104
-76
31
-75
-107
26
10
-1
37
17
-22
43
129
57
-3
136
166
27
162
287
185
237
341
277
267
447
504
465
601
692
680
796
1006
1021
966
1115
1214
1211
1253
1319
1293
1253
1330
1188
984
962
745
555
477
292
157
79
20
-39
-156
-224
-226
-311
-261
-232
-335
-311
-284
-377
-370
-231
-295
-374
-273
-273
-380
-300
-211
-316
-326
-235
-272
-330
-188
-99
-348
-375
-109
-260
-358
-123
-242
-370
-202
-227
-287
-211
-192
-289
-373
-228
-235
-371
-222
-162
-317
-333
-258
-331
-343
-188
-213
-276
-203
-228
-384
-330
-174
-283
-366
-242
-230
-318
-249
-282
-360
-274
-252
-329
-299
-185
-242
-327
-257
-205
-284
-317
-189
-223
-293
-164
-199
-334
-264
-168
-304
-263
-116
-245
-289
-192
-221
-282
-185
-153
-283
-270
-187
-223
-223
-176
-235
-289
-195
-129
-232
-256
-130
-150
-214
-115
-27
-112
-143
-17
-2
59
141
15
14
38
-156
-231
-140
-183
-320
-256
-151
-292
-344
-175
-158
-310
-272
-191
-296
-296
-212
-297
-379
-291
-206
-226
-203
-187
-379
-476
-267
197
1106
2129
2639
2283
1168
252
-148
-290
-229
-193
-96
10
1
-10
-7
-12
-58
-34
8
-29
26
95
48
-16
62
84
39
148
146
66
119
229
198
124
280
299
137
291
407
327
442
578
566
576
747
846
805
930
1051
991
1096
1271
1203
1155
1334
1363
1181
1178
1166
925
747
698
524
346
287
167
-1
-70
-78
-150
-158
-165
-255
-271
-209
-215
-351
-346
-227
-313
-357
-214
-266
-452
-267
-117
-334
-270
-145
-334
-275
-65
-241
-360
-160
-108
-259
-266
-182
-252
-260
-137
-230
-317
-153
-168
-275
-153
-162
-287
-279
-260
-268
-299
-238
-287
-334
-209
-295
-386
-303
-222
-302
-414
-293
-273
-402
-307
-217
-318
-345
-279
-287
-318
-240
-224
-386
-357
-242
-344
-303
-171
-338
-439
-217
-122
-311
-372
-255
-316
-362
-158
-216
-408
-251
-209
-335
-249
-203
-305
-287
-231
-289
-335
-227
-210
-281
-187
-163
-299
-263
-117
-149
-187
-89
-35
-142
-97
30
-2
32
76
54
32
39
-46
-231
-224
-165
-228
-223
-245
-304
-207
-155
-288
-396
-284
-254
-383
-343
-201
-205
-337
-272
-248
-329
-185
-159
-363
-449
-372
-120
544
1566
2403
2577
1855
688
-40
-189
-258
-342
-144
20
-15
-51
-26
35
-77
-99
81
40
-47
82
46
-25
120
146
31
26
148
104
81
210
172
109
236
323
259
320
420
406
495
590
563
627
747
811
829
892
1077
1109
1037
1241
1313
1209
1349
1381
1242
1261
1264
1054
931
895
634
427
392
267
63
-30
-2
-88
-165
-99
-172
-282
-192
-175
-311
-261
-174
-270
-305
-219
-236
-311
-219
-179
-330
-329
-159
-241
-294
-122
-137
-272
-214
-168
-254
-188
-52
-168
-260
-149
-204
-245
-164
-196
-261
-213
-149
-261
-339
-189
-202
-319
-227
-176
-284
-340
-243
-257
-240
-167
-240
-320
-278
-177
-374
-400
-250
-406
-362
-209
-304
-338
-237
-282
-360
-202
-160
-407
-406
-229
-326
-390
-254
-228
-335
-311
-227
-297
-329
-216
-284
-372
-185
-181
-357
-299
-107
-167
-293
-172
-251
-363
-156
-154
-388
-281
-143
-229
-248
-193
-198
-270
-179
-133
-224
-150
-58
-155
-142
-13
-94
-126
44
79
20
86
137
45
-45
-66
-197
-290
-164
-133
-269
-251
-134
-247
-310
-181
-285
-352
-238
-274
-317
-248
-193
-245
-302
-238
-251
-304
-234
-338
-539
-291
289
1015
2045
2866
2606
1329
332
-9
-297
-281
-32
-42
-41
68
23
-117
-98
-23
-71
-10
0
-90
-19
15
-13
-11
41
41
-22
131
207
85
79
167
159
108
239
300
221
348
460
440
533
615
612
630
783
901
915
1034
1164
1130
1166
1348
1331
1290
1429
1380
1203
1252
1107
767
682
625
457
282
171
80
-67
-76
-36
-224
-319
-212
-284
-347
-191
-219
-373
-318
-233
-292
-314
-253
-283
-279
-198
-231
-321
-300
-225
-246
-266
-221
-249
-327
-267
-216
-287
-249
-229
-325
-273
-186
-245
-318
-248
-209
-381
-341
-207
-321
-271
-198
-311
-248
-205
-316
-388
-328
-261
-346
-294
-181
-325
-396
-261
-256
-318
-284
-277
-329
-286
-241
-358
-363
-222
-236
-397
-353
-215
-316
-339
-215
-306
-395
-267
-238
-350
-298
-216
-296
-367
-312
-223
-272
-240
-219
-357
-304
-217
-354
-330
-148
-222
-299
-182
-201
-307
-239
-200
-257
-254
-199
-241
-221
-106
-143
-223
-110
-31
-153
-63
36
-2
91
145
56
-25
-91
-196
-294
-255
-177
-264
-318
-210
-228
-344
-253
-152
-293
-342
-139
-193
-381
-230
-114
-260
-246
-198
-267
-222
-212
-367
-353
171
949
1699
2490
2598
1373
319
81
-222
-325
-92
-6
-23
73
100
-48
-36
80
-2
-7
129
77
-8
119
190
90
55
92
72
100
259
261
136
246
244
103
271
424
338
367
520
476
447
633
721
684
841
988
922
996
1210
1226
1154
1318
1390
1299
1355
1348
1182
1077
1077
909
683
650
491
234
194
135
-51
-100
-29
-110
-247
-182
-138
-297
-314
-199
-256
-289
-217
-262
-338
-259
-259
-382
-306
-186
-209
-212
-240
-355
-329
-218
-213
-255
-224
-168
-260
-271
-168
-183
-276
-223
-125
-287
-282
-142
-335
-350
-130
-221
-325
-185
-215
-380
-272
-206
-375
-362
-229
-317
-410
-280
-280
-338
-244
-214
-337
-378
-240
-283
-376
-271
-286
-391
-347
-278
-322
-343
-258
-300
-357
-208
-182
-331
-299
-179
-356
-395
-131
-229
-348
-237
-191
-254
-264
-148
-229
-319
-207
-198
-246
-153
-170
-300
-210
-130
-235
-205
-99
-210
-253
-92
-90
-175
-105
5
-56
-111
26
-14
-59
160
167
57
124
178
-12
-198
-124
-98
-211
-196
-168
-266
-174
-172
-369
-289
-118
-190
-288
-196
-229
-289
-180
-189
-253
-147
-64
-158
-276
-318
-395
-329
308
1244
2054
2709
2475
1188
175
-97
-262
-370
-90
100
-69
-95
110
39
-127
23
-1
-115
-8
-9
-98
-25
100
36
-3
80
85
39
70
149
76
127
326
261
167
264
263
285
445
502
466
458
606
674
703
903
920
862
1007
1113
1114
1185
1334
1251
1149
1273
1238
1037
903
761
556
460
400
198
25
-3
-102
-259
-205
-165
-344
-366
-307
-422
-441
-311
-324
-429
-357
-318
-429
-423
-309
-390
-417
-247
-302
-396
-333
-257
-313
-372
-268
-273
-358
-284
-273
-377
-300
-196
-298
-285
-184
-298
-347
-253
-240
-309
-266
-188
-325
-387
-307
-342
-344
-265
-251
-328
-267
-179
-368
-404
-197
-256
-363
-272
-255
-321
-306
-310
-363
-287
-224
-309
-368
-285
-307
-413
-292
-245
-363
-314
-205
-307
-392
-200
-222
-373
-218
-229
-423
-317
-150
-301
-371
-202
-220
-318
-280
-249
-342
-311
-200
-323
-334
-199
-255
-350
-254
-205
-309
-234
-175
-301
-313
-111
-77
-247
-155
-64
-194
-162
2
-43
-89
27
82
46
61
26
-225
-278
-88
-207
-400
-260
-199
-285
-207
-191
-346
-302
-145
-282
-396
-266
-273
-336
-230
-217
-309
-235
-167
-344
-462
-344
-189
295
1342
2297
2752
2437
1169
103
-164
-179
-213
-139
73
75
-72
-47
72
-22
-139
-13
18
-100
20
96
-99
-26
117
12
-15
88
107
32
159
263
74
140
321
212
213
395
417
366
486
556
542
690
825
786
846
1012
1089
1051
1124
1281
1227
1244
1347
1308
1247
1272
1166
952
825
734
534
375
323
88
16
90
-73
-208
-153
-144
-249
-241
-204
-320
-337
-224
-248
-313
-250
-250
-323
-255
-230
-302
-250
-206
-276
-283
-176
-192
-278
-203
-197
-272
-236
-228
-241
-237
-187
-168
-246
-196
-174
-348
-295
-116
-273
-320
-157
-243
-321
-244
-238
-306
-291
-194
-244
-350
-283
-263
-344
-276
-231
-312
-287
-196
-277
-344
-234
-230
-274
-226
-266
-369
-318
-207
-261
-354
-286
-199
-255
-295
-250
-249
-256
-234
-258
-293
-209
-198
-310
-270
-122
-184
-275
-139
-217
-361
-202
-163
-302
-169
-93
-318
-283
-140
-229
-301
-233
-166
-208
-147
-53
-178
-181
-17
-42
-78
76
86
-15
84
142
18
-28
-34
-185
-298
-223
-172
-264
-216
-135
-269
-275
-135
-228
-318
-200
-215
-310
-208
-153
-270
-206
-131
-285
-301
-188
-258
-426
-290
319
1050
1850
2620
2343
1084
298
-23
-328
-271
-39
-54
-53
144
47
-131
12
66
-55
28
161
57
24
141
72
41
152
83
46
160
170
66
82
251
238
147
299
376
253
368
561
452
435
634
677
655
820
907
875
999
1128
1159
1215
1288
1240
1200
1335
1350
1172
1105
1081
802
642
668
403
172
216
140
-83
-75
-22
-209
-262
-167
-241
-277
-230
-271
-346
-299
-215
-315
-305
-248
-336
-334
-195
-150
-303
-322
-209
-253
-288
-156
-171
-268
-175
-203
-289
-227
-184
-213
-222
-136
-201
-279
-114
-194
-338
-185
-207
-324
-247
-203
-279
-301
-229
-238
-294
-261
-201
-341
-369
-171
-225
-286
-186
-194
-260
-258
-202
-235
-334
-285
-267
-317
-220
-218
-321
-240
-190
-296
-227
-153
-269
-278
-141
-160
-335
-270
-212
-351
-292
-179
-267
-311
-193
-165
-233
-184
-139
-284
-259
-105
-239
-341
-229
-215
-273
-211
-199
-308
-290
-152
-136
-182
-107
-54
-138
-89
17
-103
-62
76
-41
10
186
157
30
14
-62
-265
-202
-100
-171
-235
-157
-111
-239
-182
-101
-316
-349
-176
-274
-344
-169
-170
-317
-139
-57
-306
-255
-141
-315
-427
-359
-74
664
1700
2480
2686
1886
671
64
-187
-272
-186
-54
62
46
-77
-1
43
-87
-71
25
15
-68
24
83
43
94
95
11
8
99
105
133
218
193
118
207
351
274
236
348
356
346
494
605
572
606
780
831
828
1026
1037
972
1121
1255
1262
1290
1387
1256
1124
1154
1052
875
754
681
424
250
290
65
-94
-39
-133
-241
-213
-183
-322
-364
-254
-363
-439
-305
-314
-374
-313
-285
-367
-383
-232
-316
-429
-258
-263
-306
-141
-181
-396
-329
-229
-309
-303
-203
-220
-361
-252
-177
-386
-369
-253
-330
-361
-242
-298
-412
-291
-254
-373
-318
-293
-402
-304
-235
-365
-391
-286
-287
-348
-279
-234
-321
-364
-292
-292
-380
-286
-260
-381
-296
-198
-312
-396
-260
-253
-374
-247
-194
-362
-348
-200
-242
-317
-198
-245
-376
-238
-207
-313
-272
-201
-324
-405
-251
-288
-367
-249
-241
-275
-262
-231
-279
-294
-169
-226
-322
-234
-245
-348
-211
-100
-196
-163
-69
-116
-158
12
-29
-206
13
136
-25
8
129
-6
-126
-114
-245
-368
-296
-187
-257
-301
-168
-250
-375
-276
-247
-324
-267
-189
-332
-350
-227
-332
-353
-197
-189
-313
-389
-409
-498
-237
604
1430
2198
2846
2247
762
68
-95
-348
-303
-16
5
-124
-13
27
-79
-79
-77
-97
-36
1
-100
-132
13
12
-136
-32
47
-67
-14
100
44
-1
139
195
100
177
290
203
212
358
345
382
616
579
475
731
897
836
885
1037
1069
1051
1240
1275
1098
1184
1245
1065
960
910
752
536
446
322
24
63
122
-119
-156
-128
-245
-281
-190
-243
-354
-283
-203
-359
-429
-239
-298
-436
-267
-207
-354
-345
-273
-274
-224
-181
-248
-334
-257
-207
-302
-230
-148
-226
-243
-169
-225
-286
-161
-166
-286
-232
-210
-305
-263
-188
-234
-277
-182
-185
-370
-221
-87
-320
-293
-150
-262
-328
-228
-195
-309
-298
-230
-308
-277
-204
-286
-330
-257
-281
-307
-182
-198
-316
-266
-221
-254
-287
-232
-183
-252
-201
-168
-265
-208
-71
-201
-344
-147
-119
-325
-199
-125
-278
-231
-176
-252
-264
-131
-166
-317
-199
-147
-272
-202
-69
-143
-145
-10
-58
-164
-64
31
-45
-4
130
107
103
205
200
42
-58
-65
-178
-208
-106
-218
-263
-126
-183
-279
-182
-127
-264
-295
-171
-215
-325
-185
-115
-246
-198
-150
-268
-245
-206
-378
-384
96
889
1711
2447
2506
1364
338
9
-304
-352
-144
-88
-108
-39
14
-17
-60
-17
-22
-70
17
0
-79
48
133
43
21
115
93
54
159
133
69
190
230
154
272
345
266
304
402
441
402
541
685
626
753
880
850
941
1057
1061
1065
1186
1208
1121
1239
1324
1128
1030
1046
848
642
556
375
196
165
144
-35
-162
-95
-182
-337
-248
-220
-350
-306
-245
-354
-325
-228
-284
-362
-280
-247
-410
-338
-180
-308
-292
-165
-279
-326
-224
-207
-275
-247
-185
-233
-230
-160
-178
-257
-196
-168
-295
-300
-256
-304
-243
-179
-281
-328
-246
-211
-332
-329
-231
-318
-308
-173
-269
-358
-205
-218
-420
-311
-138
-312
-389
-246
-305
-359
-216
-203
-323
-336
-255
-312
-347
-230
-317
-382
-205
-244
-409
-301
-227
-380
-329
-205
-384
-422
-236
-270
-402
-337
-216
-305
-369
-280
-290
-360
-246
-240
-442
-299
-162
-371
-441
-318
-268
-309
-234
-205
-328
-272
-151
-177
-185
-100
-171
-270
-107
-7
-53
-47
27
1
-34
-31
-209
-321
-223
-211
-359
-302
-190
-348
-353
-188
-302
-379
-272
-294
-278
-209
-259
-336
-283
-201
-303
-372
-222
-212
-418
-451
-238
174
1018
2072
2642
2449
1512
444
-145
-276
-201
-122
-13
60
-29
-85
56
51
-111
12
96
-70
-40
116
91
40
156
161
7
100
219
96
136
297
272
233
331
401
320
304
460
524
463
553
637
689
850
926
874
948
1169
1110
1140
1370
1326
1307
1434
1451
1351
1333
1298
1062
914
886
647
426
433
379
157
37
18
-71
-44
-35
-219
-273
-115
-157
-280
-175
-206
-341
-223
-144
-283
-254
-150
-255
-293
-184
-150
-236
-243
-118
-190
-261
-95
-105
-269
-183
-103
-229
-173
-53
-164
-216
-143
-147
-204
-183
-125
-241
-294
-179
-220
-241
-153
-204
-317
-250
-209
-355
-331
-186
-255
-368
-241
-207
-328
-253
-214
-308
-303
-221
-285
-349
-204
-177
-316
-235
-159
-324
-304
-152
-255
-338
-170
-180
-336
-219
-91
-251
-347
-193
-176
-318
-262
-195
-264
-204
-141
-231
-265
-152
-200
-338
-195
-91
-217
-216
-171
-278
-218
-60
-206
-285
-108
-110
-169
-43
-35
-141
-62
42
-13
16
141
105
66
112
86
-109
-210
-113
-219
-255
-79
-190
-321
-191
-214
-336
-224
-168
-269
-268
-167
-192
-293
-164
-115
-285
-276
-163
-227
-316
-303
-338
-102
724
1687
2433
2757
1956
585
-16
-118
-321
-323
-12
102
-37
-46
22
-32
-71
37
43
-106
-13
82
-70
-26
144
40
-20
167
119
8
123
140
74
160
248
166
156
330
374
335
500
540
406
523
699
719
846
931
897
929
1029
1147
1125
1150
1279
1228
1183
1291
1172
881
852
798
517
355
353
255
14
-30
-56
-195
-138
-177
-333
-246
-151
-300
-338
-279
-284
-337
-361
-280
-325
-310
-217
-304
-314
-161
-233
-357
-197
-188
-345
-286
-169
-261
-312
-112
-171
-323
-233
-208
-278
-275
-215
-267
-305
-209
-255
-391
-281
-215
-320
-278
-174
-320
-397
-237
-312
-430
-280
-233
-364
-317
-230
-357
-393
-228
-248
-358
-286
-304
-368
-261
-256
-377
-376
-277
-300
-409
-311
-254
-376
-305
-249
-390
-385
-276
-308
-375
-288
-252
-338
-301
-272
-351
-313
-235
-343
-390
-286
-274
-394
-406
-285
-327
-279
-189
-289
-295
-195
-142
-200
-172
-59
-98
-119
-52
-11
-71
-45
76
14
-5
-28
-271
-323
-202
-249
-279
-227
-245
-333
-279
-197
-283
-297
-251
-342
-354
-199
-167
-304
-347
-236
-279
-290
-151
-298
-505
-375
-149
324
1309
2286
2649
2024
864
53
-261
-264
-262
-215
-7
55
-64
-90
21
-4
-118
-31
18
-80
-6
78
-26
17
170
84
4
120
155
74
178
228
55
156
380
286
223
420
421
323
488
617
576
618
814
888
813
922
1060
1028
1099
1244
1193
1179
1351
1370
1205
1127
1107
902
766
761
508
304
297
106
-24
5
-115
-218
-149
-157
-305
-271
-178
-274
-351
-279
-277
-343
-287
-259
-347
-334
-188
-238
-374
-200
-66
-270
-306
-162
-232
-226
-160
-266
-286
-145
-157
-278
-201
-156
-269
-284
-187
-231
-263
-167
-221
-303
-224
-169
-281
-311
-196
-280
-374
-247
-265
-349
-257
-217
-359
-378
-248
-308
-398
-234
-209
-403
-299
-207
-330
-301
-240
-308
-364
-222
-229
-359
-224
-204
-342
-318
-235
-291
-329
-254
-267
-328
-256
-215
-314
-328
-243
-245
-282
-247
-256
-363
-265
-163
-305
-255
-118
-218
-292
-151
-193
-360
-243
-131
-293
-270
-114
-238
-205
-20
-105
-218
-113
-43
-164
-156
17
21
-7
167
159
53
131
62
-172
-279
-180
-232
-316
-223
-231
-291
-235
-233
-309
-251
-214
-308
-255
-166
-239
-282
-242
-145
-214
-239
-151
-286
-377
-334
-124
464
1420
2321
2765
2233
941
109
-194
-246
-153
-65
31
22
-37
-19
34
41
-85
-43
54
-74
32
134
-68
-14
202
112
-11
59
128
68
108
176
92
175
280
245
260
311
304
306
465
605
538
614
828
832
790
929
1023
1011
1159
1244
1165
1265
1421
1332
1188
1207
1183
993
854
699
474
369
297
163
11
32
-26
-223
-95
-99
-366
-267
-153
-339
-323
-166
-271
-391
-261
-248
-353
-286
-220
-282
-369
-283
-205
-277
-267
-282
-289
-250
-177
-169
-309
-267
-231
-299
-213
-229
-371
-281
-186
-286
-327
-231
-263
-351
-239
-264
-371
-242
-135
-229
-313
-262
-252
-310
-215
-191
-355
-321
-224
-318
-338
-229
-281
-352
-261
-254
-306
-265
-257
-325
-328
-267
-282
-306
-181
-174
-301
-229
-189
-248
-225
-202
-276
-339
-220
-154
-287
-328
-210
-229
-259
-167
-207
-235
-173
-211
-296
-212
-114
-236
-242
-111
-195
-268
-142
-84
-235
-276
-159
-246
-280
-125
-127
-149
-6
-1
-177
-116
40
-7
-5
106
138
106
170
143
-91
-163
-105
-235
-212
-13
-186
-336
-173
-155
-255
-229
-180
-269
-292
-94
-116
-286
-163
-126
-225
-184
-148
-185
-245
-244
-361
-408
156
1008
1754
2509
2662
1505
353
49
-162
-278
-173
18
46
-4
83
40
2
58
-34
-57
70
29
-36
73
121
71
76
140
132
66
146
184
146
234
272
225
237
349
284
226
453
492
427
551
704
674
656
884
970
899
1022
1157
1123
1207
1322
1230
1246
1293
1180
1114
1098
944
639
484
453
260
154
194
30
-92
-27
-129
-227
-181
-165
-181
-249
-216
-247
-340
-218
-279
-392
-270
-209
-262
-343
-258
-179
-290
-242
-172
-278
-208
-105
-219
-220
-100
-224
-316
-147
-124
-273
-246
-127
-226
-288
-150
-269
-407
-227
-239
-409
-303
-216
-322
-326
-219
-224
-374
-323
-273
-411
-311
-235
-362
-348
-252
-280
-409
-319
-269
-462
-357
-222
-373
-385
-305
-359
-328
-225
-278
-360
-323
-306
-363
-327
-246
-295
-339
-280
-306
-326
-239
-295
-392
-323
-246
-308
-351
-203
-151
-319
-276
-178
-334
-259
-129
-312
-365
-219
-178
-252
-223
-138
-256
-271
-92
-168
-184
-28
-119
-211
-23
95
-69
12
205
34
-101
-82
-208
-347
-252
-212
-303
-258
-190
-273
-368
-225
-246
-439
-318
-228
-344
-301
-178
-316
-425
-252
-265
-403
-204
-222
-508
-436
-147
449
1326
2162
2636
1992
824
174
-245
-393
-207
-121
-98
-1
-18
-124
-57
-10
-109
-73
-1
-79
-147
8
59
-67
22
83
-23
47
150
19
36
221
202
153
230
250
123
224
459
400
385
556
562
501
671
834
830
910
1054
992
1008
1223
1232
1179
1250
1253
1160
1091
1078
936
747
663
493
289
248
177
8
-37
-50
-187
-235
-172
-169
-260
-354
-335
-330
-332
-254
-291
-402
-262
-216
-399
-325
-219
-295
-288
-204
-266
-333
-204
-184
-310
-223
-178
-342
-275
-138
-274
-288
-171
-218
-300
-266
-229
-340
-281
-120
-302
-405
-222
-270
-356
-267
-216
-295
-361
-302
-315
-392
-296
-319
-497
-282
-199
-406
-346
-259
-364
-393
-282
-318
-389
-282
-226
-380
-339
-211
-368
-359
-227
-283
-363
-274
-181
-378
-351
-237
-391
-327
-223
-292
-325
-229
-248
-382
-275
-168
-365
-370
-147
-266
-437
-306
-235
-341
-282
-208
-320
-324
-219
-262
-338
-243
-150
-272
-302
-149
-220
-204
-29
-149
-202
-59
-43
-80
-2
60
-43
-30
136
123
4
-76
-126
-205
-276
-206
-267
-319
-194
-231
-292
-196
-220
-341
-267
-159
-305
-377
-195
-203
-289
-178
-167
-247
-189
-219
-439
-444
-19
625
1492
2432
2842
2115
852
236
-122
-365
-117
31
-82
18
101
-64
21
145
-110
-147
76
24
-15
90
83
16
63
167
107
81
165
167
163
190
198
214
301
318
244
353
511
432
445
628
657
621
758
894
890
965
1120
1133
1143
1283
1285
1242
1338
1440
1300
1190
1236
1068
820
708
596
359
273
225
39
-20
-18
-113
-175
-90
-130
-262
-109
-40
-257
-263
-141
-176
-236
-171
-129
-207
-125
-41
-190
-162
-33
-129
-143
-16
-45
-125
-17
40
-38
-72
-72
-140
-204
-58
0
-194
-212
-96
-161
-197
-96
-182
-254
-131
-166
-263
-205
-136
-209
-225
-158
-249
-203
-132
-250
-279
-219
-203
-332
-294
-127
-208
-296
-196
-135
-278
-281
-152
-303
-320
-133
-202
-275
-200
-225
-249
-154
-202
-251
-161
-147
-191
-254
-189
-159
-248
-193
-128
-244
-309
-162
-203
-314
-150
-110
-312
-272
-74
-199
-304
-135
-157
-304
-145
-60
-275
-215
-84
-131
-71
-43
-113
-82
-8
-30
-31
122
160
45
112
207
74
-87
-94
-136
-215
-154
-85
-207
-268
-203
-280
-301
-156
-190
-351
-239
-160
-270
-252
-249
-332
-322
-192
-161
-257
-251
-257
-402
-328
161
896
1759
2558
2520
1295
295
-33
-315
-348
-162
-67
-66
27
91
-10
-34
23
-61
-39
45
-1
-9
45
41
33
112
108
32
79
223
153
57
196
244
167
239
329
285
361
497
395
366
579
600
600
764
837
819
890
1011
1046
1097
1224
1295
1207
1206
1305
1147
1025
1069
817
551
514
376
214
155
87
-78
-186
-103
-157
-314
-208
-225
-453
-295
-157
-369
-401
-271
-284
-390
-299
-231
-389
-345
-235
-335
-326
-211
-312
-383
-237
-207
-306
-268
-207
-301
-302
-164
-202
-333
-267
-269
-360
-263
-241
-328
-319
-246
-309
-406
-287
-262
-405
-331
-221
-337
-351
-266
-329
-337
-265
-303
-368
-336
-296
-359
-309
-249
-361
-365
-287
-298
-371
-348
-296
-385
-352
-239
-272
-325
-320
-290
-375
-361
-300
-436
-379
-255
-295
-354
-299
-233
-347
-290
-212
-354
-316
-198
-280
-313
-267
-305
-309
-208
-244
-383
-290
-194
-316
-370
-231
-209
-329
-220
-204
-361
-179
-21
-189
-230
-57
-65
-194
-44
68
-58
17
110
66
120
22
-173
-227
-247
-196
-246
-273
-165
-245
-295
-231
-212
-250
-240
-229
-302
-283
-245
-287
-301
-212
-169
-227
-177
-177
-389
-445
-277
65
778
1806
2566
2620
1783
562
-67
-204
-242
-193
-66
100
63
-126
-36
56
15
40
66
39
-29
72
71
-42
90
141
30
100
241
105
91
260
125
120
326
336
210
255
423
350
314
588
685
529
660
828
745
816
1037
1023
1004
1217
1285
1219
1280
1360
1310
1230
1250
1095
868
864
708
413
301
276
118
6
69
-89
-233
-112
-154
-278
-244
-237
-358
-302
-185
-290
-315
-208
-281
-339
-188
-209
-331
-250
-150
-201
-265
-164
-162
-254
-157
-124
-267
-224
-134
-271
-218
-77
-212
-318
-212
-176
-297
-258
-121
-267
-317
-103
-278
-427
-238
-227
-325
-318
-230
-301
-332
-208
-283
-384
-276
-242
-313
-250
-256
-351
-334
-269
-216
-253
-308
-306
-360
-297
-175
-312
-355
-139
-208
-382
-256
-251
-316
-204
-196
-274
-295
-180
-175
-323
-180
-146
-351
-238
-130
-259
-270
-144
-189
-261
-145
-161
-282
-217
-109
-168
-181
-108
-162
-230
-175
-154
-233
-126
14
-106
-148
-18
35
-27
-11
67
73
102
179
142
107
241
93
-195
-129
-133
-285
-174
-89
-277
-254
-127
-233
-286
-227
-193
-254
-231
-150
-242
-250
-122
-157
-276
-211
-161
-302
-313
-281
-240
280
1258
2151
2725
2585
1338
233
-37
-167
-248
-60
141
31
-66
80
99
-84
-57
50
13
65
130
25
-37
112
155
-6
33
173
100
117
254
230
179
241
278
229
306
374
291
394
536
497
510
718
830
779
870
968
962
1001
1205
1251
1149
1298
1350
1247
1324
1305
1080
990
996
729
425
464
439
180
122
121
-59
-94
-58
-173
-275
-193
-159
-326
-287
-177
-332
-276
-127
-280
-336
-196
-182
-280
-220
-147
-281
-231
-76
-230
-328
-200
-174
-222
-186
-160
-220
-220
-152
-219
-264
-159
-196
-250
-178
-196
-263
-273
-215
-229
-315
-220
-134
-286
-265
-166
-312
-324
-196
-247
-264
-155
-267
-379
-252
-274
-360
-232
-190
-305
-305
-276
-277
-285
-240
-169
-284
-229
-151
-318
-351
-236
-280
-382
-250
-199
-316
-297
-193
-231
-332
-251
-206
-347
-308
-140
-252
-308
-188
-280
-362
-251
-234
-316
-276
-238
-249
-243
-264
-265
-254
-223
-186
-203
-160
-107
-152
-106
-21
-10
2
57
84
5
35
55
-156
-262
-168
-236
-335
-208
-177
-301
-285
-232
-303
-296
-217
-263
-300
-249
-263
-309
-246
-168
-251
-258
-176
-230
-318
-401
-389
-74
689
1593
2279
2528
1674
464
21
-132
-319
-327
-36
109
-68
-6
70
-107
-120
42
97
-36
-64
14
-32
-23
108
45
-50
124
109
-17
123
222
157
189
300
225
214
388
376
301
459
552
456
547
686
612
709
974
969
934
1108
1199
1135
1209
1353
1276
1230
1265
1097
941
948
840
582
505
430
134
30
88
-39
-175
-110
-102
-298
-329
-215
-264
-332
-259
-279
-383
-281
-222
-353
-337
-255
-330
-330
-195
-250
-374
-292
-213
-259
-270
-185
-231
-298
-158
-202
-349
-244
-140
-296
-306
-92
-229
-344
-191
-311
-433
-251
-249
-395
-315
-244
-378
-412
-304
-290
-333
-303
-288
-404
-388
-250
-327
-358
-276
-347
-365
-280
-314
-395
-339
-223
-285
-402
-291
-222
-333
-290
-191
-317
-362
-270
-312
-315
-235
-262
-373
-364
-263
-330
-321
-199
-292
-357
-235
-246
-357
-283
-208
-308
-303
-201
-277
-314
-117
-84
-306
-215
-93
-282
-244
-79
-113
-146
-45
-55
-118
-31
-28
-25
82
90
78
120
154
16
-145
-57
-136
-390
-254
-57
-238
-308
-187
-208
-318
-260
-212
-358
-282
-129
-221
-301
-259
-258
-294
-161
-89
-277
-365
-347
-279
209
1230
2213
2704
2485
1258
140
-58
-160
-342
-180
56
-4
-89
-19
33
-29
-44
-3
-62
-52
70
81
-32
49
188
55
-2
124
86
21
167
162
63
186
268
208
260
380
325
314
473
509
492
599
713
728
828
965
884
914
1083
1114
1113
1214
1302
1216
1171
1218
1072
893
851
667
420
372
227
12
27
-8
-232
-275
-183
-260
-354
-319
-247
-345
-386
-275
-366
-386
-270
-345
-440
-350
-237
-326
-359
-223
-267
-348
-239
-229
-324
-239
-218
-331
-273
-175
-265
-326
-214
-268
-349
-217
-154
-243
-272
-252
-359
-387
-259
-270
-330
-277
-284
-362
-335
-243
-301
-339
-224
-263
-427
-326
-247
-399
-370
-252
-317
-338
-243
-336
-421
-283
-236
-383
-349
-238
-388
-391
-239
-320
-351
-270
-284
-350
-358
-301
-357
-362
-240
-271
-359
-294
-257
-319
-273
-256
-349
-279
-211
-327
-321
-200
-255
-349
-253
-179
-337
-403
-244
-259
-375
-186
-104
-259
-137
-48
-223
-204
-4
-8
-64
99
127
1
43
-52
-289
-285
-156
-244
-315
-185
-198
-283
-237
-166
-244
-373
-269
-212
-342
-287
-227
-306
-210
-146
-290
-316
-199
-286
-461
-397
-189
267
1237
2198
2626
2191
1063
163
-215
-235
-287
-224
8
-3
-82
-76
-1
-39
-145
5
10
-142
-14
91
-7
-9
97
13
-15
111
61
74
208
150
92
191
264
209
171
311
369
328
455
499
426
537
733
723
725
974
1066
957
1029
1197
1145
1140
1295
1235
1119
1163
1080
874
779
654
439
331
292
107
-48
-53
-140
-231
-126
-129
-327
-292
-250
-368
-368
-245
-257
-388
-294
-228
-342
-306
-220
-306
-364
-252
-237
-313
-192
-127
-268
-288
-201
-197
-201
-193
-226
-283
-204
-155
-294
-235
-128
-230
-302
-263
-195
-252
-276
-193
-303
-313
-177
-295
-404
-273
-220
-332
-290
-196
-325
-365
-199
-237
-312
-200
-265
-359
-230
-254
-376
-335
-237
-241
-365
-301
-247
-382
-276
-180
-310
-280
-191
-304
-354
-198
-188
-313
-232
-169
-265
-230
-146
-232
-316
-212
-178
-273
-241
-170
-218
-236
-168
-217
-293
-192
-148
-225
-148
-22
-128
-144
31
-64
-80
88
38
-60
44
197
141
52
-27
-177
-229
-150
-150
-241
-206
-144
-235
-237
-97
-209
-329
-159
-152
-266
-202
-109
-176
-235
-123
-206
-289
-161
-259
-434
-337
89
789
1684
2539
2658
1668
544
24
-242
-274
-112
-80
10
121
9
-25
50
-7
-73
14
66
41
77
112
43
40
192
184
36
131
222
89
138
315
263
169
261
318
291
354
449
431
502
627
599
668
812
851
859
965
1138
1134
1155
1294
1258
1228
1327
1337
1186
1116
1062
829
696
675
453
251
228
74
-88
-58
-102
-249
-223
-130
-233
-360
-258
-214
-363
-326
-229
-342
-346
-272
-367
-388
-304
-279
-305
-281
-256
-331
-303
-198
-312
-360
-181
-238
-360
-218
-183
-306
-245
-163
-253
-300
-258
-287
-328
-260
-246
-307
-312
-237
-279
-391
-250
-261
-445
-346
-219
-265
-319
-290
-355
-382
-231
-236
-329
-262
-197
-344
-364
-191
-290
-382
-232
-237
-338
-275
-237
-317
-298
-213
-303
-371
-254
-298
-398
-230
-185
-349
-267
-199
-357
-363
-213
-263
-359
-210
-201
-341
-329
-214
-231
-317
-207
-228
-370
-274
-196
-272
-196
-35
-98
-148
-64
-140
-198
-73
21
-61
-2
168
129
137
49
-204
-309
-188
-134
-294
-233
-145
-298
-286
-176
-235
-306
-248
-285
-398
-290
-202
-320
-320
-194
-230
-306
-226
-264
-493
-455
10
632
1447
2401
2854
2108
826
190
-136
-307
-140
-52
-41
48
44
-69
-22
74
-33
-57
34
17
-28
46
44
-52
79
194
75
-2
95
106
63
214
216
101
275
380
229
303
418
350
403
571
635
595
709
845
870
950
1037
1066
1106
1270
1292
1230
1375
1359
1199
1167
1084
912
747
634
481
293
231
133
-40
-113
-94
-130
-280
-239
-209
-372
-312
-265
-348
-281
-253
-359
-347
-235
-307
-390
-231
-225
-374
-254
-194
-363
-330
-189
-265
-340
-194
-171
-349
-270
-145
-291
-338
-214
-271
-376
-234
-196
-327
-316
-243
-329
-373
-179
-263
-413
-205
-215
-349
-255
-218
-250
-314
-317
-280
-347
-353
-285
-307
-285
-208
-309
-380
-261
-274
-363
-221
-160
-352
-371
-229
-267
-303
-213
-234
-338
-296
-252
-354
-310
-212
-279
-247
-169
-319
-395
-244
-207
-304
-311
-198
-261
-332
-189
-215
-379
-246
-102
-265
-248
-106
-202
-229
-101
-123
-209
-86
28
-50
36
141
17
18
-12
-236
-330
-231
-190
-316
-241
-94
-275
-391
-227
-218
-401
-320
-240
-365
-288
-218
-353
-305
-149
-282
-397
-243
-240
-445
-443
-146
357
1237
2242
2603
1891
828
191
-209
-285
-238
-260
-93
29
-37
-69
-13
-13
-100
-44
76
-15
-59
66
62
12
89
53
-19
83
227
170
101
201
151
108
275
321
253
370
501
382
360
595
652
609
764
862
875
992
1104
1088
1089
1251
1259
1252
1412
1337
1170
1175
1114
838
725
684
385
215
229
145
-25
-60
-71
-251
-287
-183
-259
-321
-239
-254
-337
-301
-208
-309
-346
-233
-305
-336
-221
-221
-336
-266
-156
-299
-313
-161
-227
-298
-147
-180
-286
-160
-210
-301
-259
-236
-276
-317
-219
-222
-299
-274
-237
-303
-330
-239
-270
-337
-310
-280
-333
-362
-259
-307
-357
-220
-321
-411
-306
-333
-412
-350
-242
-325
-386
-217
-275
-438
-314
-320
-422
-322
-247
-387
-363
-239
-364
-381
-188
-225
-365
-297
-280
-331
-333
-248
-253
-355
-291
-258
-275
-222
-200
-286
-353
-253
-269
-338
-185
-186
-244
-93
-98
-201
-126
-58
-99
-60
59
40
-44
33
83
28
-72
-194
-274
-291
-182
-151
-312
-251
-135
-318
-363
-262
-310
-316
-176
-212
-318
-221
-211
-266
-236
-210
-300
-316
-133
-292
-533
-105
698
1508
2350
2758
1863
548
121
-109
-335
-126
12
-13
51
15
-110
-106
45
32
-96
8
95
-18
-18
52
-16
-16
107
90
-3
90
188
103
78
255
290
186
268
308
227
345
543
494
506
671
699
755
923
961
933
1108
1325
1277
1205
1321
1377
1322
1357
1325
1103
1040
1000
737
621
560
300
168
191
76
-125
-116
-61
-223
-280
-186
-266
-357
-233
-201
-339
-298
-193
-271
-256
-187
-331
-354
-215
-217
-272
-265
-229
-289
-331
-185
-177
-259
-209
-253
-328
-231
-167
-275
-269
-173
-278
-309
-173
-237
-293
-256
-299
-365
-350
-277
-350
-357
-208
-272
-384
-315
-313
-375
-333
-302
-385
-404
-310
-326
-397
-323
-255
-383
-441
-303
-357
-404
-325
-381
-426
-331
-264
-415
-439
-298
-381
-441
-316
-306
-362
-307
-310
-404
-375
-261
-324
-397
-238
-233
-397
-332
-282
-371
-306
-196
-278
-354
-268
-254
-273
-149
-116
-251
-225
-98
-120
-151
-66
-56
-122
29
131
34
-51
-165
-260
-294
-224
-258
-351
-203
-214
-375
-289
-241
-343
-349
-237
-267
-374
-278
-278
-415
-333
-233
-315
-287
-265
-445
-525
-204
453
1194
2074
2745
2284
971
163
-131
-401
-298
-38
-66
-78
-24
-143
-153
-12
-82
-202
-43
5
-168
-100
0
-103
-140
-14
14
-63
36
87
5
74
103
46
66
106
145
162
226
336
368
416
506
531
612
763
826
820
940
1099
1049
1097
1283
1267
1239
1331
1263
1076
1030
938
694
553
480
237
59
154
81
-189
-140
-104
-282
-262
-202
-335
-368
-257
-289
-358
-302
-214
-322
-391
-279
-308
-360
-288
-287
-312
-197
-207
-331
-321
-259
-244
-278
-250
-246
-304
-256
-217
-297
-299
-208
-263
-310
-181
-211
-359
-235
-176
-322
-272
-227
-326
-336
-241
-256
-337
-262
-236
-355
-334
-251
-337
-376
-219
-226
-379
-284
-228
-351
-334
-250
-282
-297
-240
-292
-326
-173
-194
-414
-319
-158
-267
-259
-214
-331
-282
-147
-228
-344
-209
-157
-335
-282
-197
-295
-268
-175
-194
-314
-269
-122
-202
-238
-41
-38
-237
-136
-78
-161
50
140
35
112
153
30
-106
-130
-167
-256
-218
-179
-273
-286
-172
-267
-371
-211
-183
-313
-245
-191
-323
-306
-181
-248
-331
-244
-226
-331
-331
-289
-413
-315
369
1208
1930
2568
2238
871
80
-98
-330
-345
-87
-6
-132
-25
-6
-137
-69
-32
-110
-110
-44
-67
-92
-2
46
-53
-36
63
-10
-28
93
104
62
162
215
121
122
205
138
190
392
377
410
582
593
580
722
898
895
935
1111
1053
1034
1246
1287
1180
1195
1193
1047
941
893
658
394
353
284
67
-23
-25
-149
-244
-215
-243
-319
-291
-224
-307
-338
-241
-386
-426
-260
-374
-422
-247
-314
-457
-343
-209
-344
-420
-251
-237
-322
-223
-164
-271
-248
-138
-265
-356
-199
-171
-286
-292
-223
-282
-282
-154
-298
-366
-189
-254
-362
-229
-195
-345
-326
-240
-322
-320
-204
-265
-349
-282
-311
-355
-263
-248
-357
-371
-216
-263
-348
-214
-252
-356
-255
-220
-332
-287
-186
-276
-329
-224
-193
-260
-226
-168
-277
-223
-54
-211
-314
-145
-113
-189
-195
-182
-216
-203
-102
-126
-198
-135
-89
-205
-181
-11
-105
-68
76
-53
-24
106
21
-4
145
182
98
167
264
91
-132
-99
-103
-265
-171
-83
-246
-240
-112
-199
-287
-185
-169
-244
-171
-139
-264
-216
-114
-220
-224
-73
-142
-301
-345
-379
-250
410
1438
2232
2693
2343
1034
107
-23
-111
-267
-85
134
17
-88
38
67
-74
-17
69
-9
8
69
43
-5
40
109
38
56
121
50
68
204
192
133
236
257
214
301
372
342
386
526
540
526
697
782
750
915
1010
972
1064
1203
1229
1246
1407
1412
1294
1307
1250
1089
964
858
631
423
404
245
32
67
-29
-197
-172
-138
-181
-358
-344
-278
-388
-260
-201
-360
-369
-290
-332
-397
-295
-289
-375
-278
-207
-372
-361
-209
-326
-328
-253
-353
-382
-236
-192
-360
-331
-185
-284
-353
-267
-284
-323
-291
-244
-289
-319
-273
-390
-424
-260
-305
-440
-318
-268
-399
-381
-240
-278
-338
-271
-359
-402
-257
-194
-370
-413
-245
-309
-356
-270
-297
-352
-327
-291
-395
-404
-235
-278
-393
-283
-246
-348
-309
-270
-348
-336
-231
-288
-346
-218
-224
-383
-334
-218
-361
-384
-216
-275
-359
-240
-236
-355
-297
-244
-348
-257
-87
-188
-227
-72
-95
-207
-97
2
-35
15
77
48
85
121
-149
-321
-192
-192
-301
-280
-200
-304
-319
-167
-269
-367
-247
-291
-394
-266
-194
-363
-332
-200
-300
-346
-261
-238
-366
-457
-314
58
834
1843
2534
2462
1480
369
-146
-253
-306
-266
-124
-20
-62
-158
-57
-43
-151
-105
-48
-71
3
12
-110
-97
-41
-52
-105
-32
84
-16
-66
79
104
30
146
215
164
279
386
335
319
480
542
478
630
766
771
898
973
931
1007
1180
1209
1168
1259
1271
1183
1208
1148
856
686
665
443
226
254
135
-77
-111
-112
-201
-272
-244
-284
-380
-311
-257
-357
-335
-229
-322
-394
-226
-272
-398
-299
-257
-318
-303
-229
-257
-309
-290
-297
-351
-294
-240
-338
-294
-200
-344
-351
-240
-337
-383
-267
-231
-318
-371
-295
-353
-424
-255
-302
-444
-320
-296
-407
-353
-308
-391
-365
-285
-387
-417
-267
-301
-416
-367
-320
-351
-354
-355
-398
-389
-316
-355
-466
-389
-268
-352
-414
-312
-339
-420
-347
-313
-367
-317
-232
-367
-381
-213
-289
-364
-279
-304
-397
-329
-219
-306
-336
-242
-327
-419
-271
-174
-250
-167
-117
-224
-166
-39
-44
-172
-53
73
-96
19
156
-89
-228
-154
-206
-341
-370
-298
-289
-292
-266
-353
-375
-273
-278
-353
-317
-324
-400
-333
-289
-364
-320
-235
-306
-381
-359
-421
-494
-122
676
1510
2289
2606
1623
340
-61
-308
-526
-353
-86
-117
-161
-35
-109
-237
-155
-91
-118
-117
-88
-146
-145
46
12
-138
-30
11
-64
6
84
36
41
183
172
115
226
251
205
311
453
420
491
691
613
587
815
840
826
1039
1145
1076
1140
1322
1281
1176
1307
1238
981
958
885
603
456
424
240
103
89
-25
-176
-161
-168
-333
-356
-246
-294
-366
-250
-281
-393
-264
-269
-407
-315
-241
-351
-351
-197
-219
-340
-240
-202
-331
-279
-139
-261
-349
-192
-185
-300
-205
-98
-245
-237
-121
-282
-284
-108
-171
-314
-204
-164
-323
-242
-148
-279
-357
-230
-213
-310
-250
-232
-336
-326
-218
-278
-305
-218
-239
-253
-227
-261
-350
-336
-238
-236
-285
-258
-281
-332
-233
-186
-324
-290
-142
-280
-353
-211
-242
-326
-195
-168
-286
-236
-166
-239
-300
-185
-119
-231
-253
-178
-213
-253
-147
-150
-266
-182
-144
-249
-169
-64
-140
-98
38
-71
-162
-29
-29
-104
35
144
90
98
218
130
-28
-85
-176
-131
-158
-253
-262
-211
-78
-155
-281
-221
-229
-273
-224
-198
-297
-213
-79
-230
-227
-146
-154
-143
-267
-365
-405
-128
728
1626
2394
2910
2142
702
134
-52
-253
-137
113
49
-83
69
55
-90
-29
9
-52
17
103
-23
-86
95
114
-18
91
155
11
45
140
73
103
273
236
118
254
374
341
404
498
476
499
616
720
785
874
935
899
1002
1164
1155
1230
1368
1291
1259
1339
1280
1125
1033
961
768
545
467
342
112
138
84
-146
-152
-123
-261
-328
-154
-221
-370
-261
-262
-375
-313
-219
-313
-335
-251
-278
-341
-230
-194
-367
-296
-163
-232
-249
-192
-205
-269
-234
-214
-280
-265
-225
-280
-299
-146
-193
-350
-249
-230
-317
-256
-189
-326
-370
-227
-291
-384
-244
-196
-313
-325
-281
-356
-395
-237
-252
-390
-278
-260
-370
-302
-258
-332
-339
-278
-280
-306
-217
-190
-351
-361
-218
-296
-342
-182
-224
-346
-244
-215
-348
-300
-218
-294
-290
-143
-197
-396
-289
-161
-316
-317
-153
-260
-342
-202
-220
-278
-202
-149
-215
-182
-42
-176
-225
-54
-95
-106
5
-8
-60
37
166
162
142
172
86
-125
-134
-66
-223
-245
-161
-255
-261
-186
-208
-226
-166
-207
-311
-250
-174
-252
-268
-174
-170
-220
-206
-125
-194
-315
-270
-313
-62
862
1761
2383
2548
1515
313
-4
-98
-296
-276
-45
5
-62
-6
16
-71
12
57
-80
-57
82
67
-1
59
63
-9
61
141
73
95
187
131
154
258
202
229
310
312
317
402
537
487
515
687
685
669
884
1017
880
976
1149
1113
1167
1283
1297
1219
1222
1237
1061
911
896
693
413
385
288
88
66
11
-125
-125
-45
-172
-358
-260
-192
-300
-300
-255
-330
-341
-235
-272
-343
-249
-230
-292
-203
-146
-230
-253
-201
-229
-316
-264
-223
-306
-228
-90
-173
-273
-183
-195
-284
-210
-203
-285
-194
-116
-210
-242
-199
-261
-334
-175
-170
-332
-269
-241
-349
-329
-188
-241
-353
-274
-302
-390
-258
-210
-345
-350
-269
-327
-389
-282
-271
-358
-258
-227
-333
-262
-172
-268
-368
-267
-224
-342
-324
-251
-282
-291
-213
-262
-340
-264
-257
-330
-241
-206
-320
-289
-212
-206
-266
-213
-175
-318
-233
-84
-253
-280
-101
-141
-178
-69
-100
-133
-18
31
-29
-9
117
88
27
54
-93
-248
-160
-112
-244
-285
-179
-240
-297
-154
-182
-297
-252
-208
-284
-270
-158
-245
-311
-168
-198
-250
-124
-198
-380
-382
-104
398
1204
2217
2770
2250
1064
250
-180
-278
-130
-92
-18
90
72
-52
-29
115
33
-35
74
1
-80
82
108
-13
66
132
26
52
255
212
82
164
175
133
256
343
251
297
468
440
386
540
617
616
791
874
772
895
1120
1100
1088
1250
1295
1243
1378
1373
1205
1194
1133
919
752
698
499
285
279
206
-13
-61
-3
-158
-260
-153
-214
-297
-195
-228
-364
-292
-145
-270
-336
-130
-202
-386
-264
-198
-318
-259
-129
-219
-264
-130
-156
-290
-180
-123
-231
-188
-104
-144
-224
-145
-157
-255
-137
-156
-308
-259
-139
-212
-316
-202
-194
-323
-265
-230
-311
-289
-192
-276
-344
-227
-241
-327
-235
-162
-330
-289
-110
-249
-324
-185
-253
-343
-240
-270
-360
-314
-256
-279
-273
-201
-239
-326
-232
-207
-328
-211
-155
-308
-274
-185
-226
-296
-220
-202
-332
-251
-140
-238
-318
-246
-213
-291
-213
-110
-233
-212
-79
-213
-309
-155
-99
-187
-71
25
-106
-66
65
-50
-69
153
87
10
241
265
81
47
12
-184
-213
-96
-138
-176
-130
-120
-209
-232
-106
-174
-314
-182
-139
-233
-133
-120
-239
-187
-79
-157
-256
-230
-366
-408
94
800
1625
2623
2989
1883
491
90
-96
-303
-104
89
37
34
82
-31
-83
57
57
-61
-44
60
-9
-27
81
56
12
87
83
42
164
180
104
148
207
230
308
316
223
230
367
397
365
522
677
628
661
873
913
898
1039
1090
1058
1197
1294
1236
1226
1321
1260
1045
1040
950
703
586
442
171
53
104
-13
-179
-120
-121
-296
-249
-191
-332
-341
-265
-289
-290
-268
-297
-363
-350
-286
-341
-324
-218
-267
-342
-250
-259
-402
-333
-205
-276
-339
-261
-274
-309
-244
-267
-318
-242
-195
-298
-301
-166
-256
-359
-251
-356
-427
-274
-244
-315
-326
-286
-359
-405
-288
-258
-367
-340
-275
-351
-316
-262
-383
-413
-263
-212
-342
-338
-274
-400
-376
-246
-322
-398
-315
-291
-401
-315
-207
-313
-298
-239
-356
-397
-252
-238
-364
-336
-259
-321
-337
-211
-286
-371
-235
-269
-349
-235
-222
-342
-334
-238
-297
-326
-184
-243
-251
-69
-117
-254
-211
-79
-77
-86
7
58
34
60
122
-76
-252
-156
-218
-332
-179
-129
-274
-287
-250
-298
-284
-253
-319
-318
-228
-211
-297
-276
-221
-308
-262
-147
-253
-379
-327
-298
-147
528
1407
2080
2502
1897
579
-31
-126
-272
-354
-167
35
-96
-135
32
-26
-71
44
44
-19
-20
14
-55
-56
94
-13
-35
160
88
38
98
88
50
105
231
192
172
301
353
316
405
469
443
584
728
677
653
831
912
896
1052
1163
1117
1162
1289
1248
1192
1213
1103
949
866
772
563
394
344
181
8
-16
-80
-203
-196
-145
-241
-330
-256
-303
-376
-251
-252
