0
0
0
0
0
0
0
0
0
0
0
0
0
0
0
0
0
0
0
0
0
0
0
0
0
0
0
0
0
0
0
0
0
0
0
0
0
0
0
0
0
0
0
0
0
0
0
0
0
0
0
0
0
0
0
0
0
0
0
0
0
0
0
0
0
0
0
0
0
0
0
0
0
0
0
0
0
0
0
0
0
0
0
0
0
0
0
0
0
0
0
0
0
0
0
0
0
0
0
0
0
0
0
0
0
0
0
0
0
0
0
0
0
0
0
0
0
0
0
0
0
0
0
0
0
0
0
0
0
0
0
0
0
0
0
0
0
0
0
0
0
0
0
0
0
0
0
0
0
0
0
0
0
0
0
0
0
0
0
0
0
0
0
0
0
0
0
0
0
0
0
0
0
0
0
0
0
0
0
0
0
0
0
0
0
0
0
0
0
0
0
0
0
0
0
0
0
0
0
0
-1085
-1376
-747
-762
-1313
-1048
-681
-1084
-1027
-588
-966
-1384
-855
-625
-1201
-848
-473
-1253
-1252
-432
-827
-1303
-621
-734
-1246
-767
-681
-1222
-879
-187
-610
-926
-410
-507
-918
-534
-144
-594
-531
-14
-601
-783
40
-57
-682
-420
-97
-600
-639
-237
-1065
-1371
-260
-390
-1083
-660
-503
-1029
-837
-415
-806
-868
-104
29
-501
26
988
1420
2296
2974
2143
930
758
306
-529
-277
-294
-1083
-872
-444
-1229
-1267
-158
-487
-1392
-716
-301
-1117
-1049
-359
-778
-1136
-577
-617
-1116
-711
-414
-1081
-1007
-357
-753
-1055
-453
-473
-955
-769
-683
-873
-572
-145
-499
-754
-186
-317
-786
-316
58
-317
-273
204
-120
-456
166
318
-212
64
285
-283
-65
393
-232
-463
101
-12
-780
-762
-75
-345
-588
-58
-426
-799
-175
-341
-954
-488
-91
-634
-584
-23
-600
-1067
-288
-294
-960
-302
64
-722
-634
-94
-546
-731
-145
-223
-486
225
692
516
1067
1888
1583
1152
1882
1899
1288
1799
1839
1023
1123
1533
1072
710
924
416
-486
-193
39
-818
-831
-204
-732
-1044
-574
-854
-1206
-734
-208
-718
-967
-353
-1034
-1503
-564
-680
-1424
-990
-651
-1259
-1260
-697
-1021
-1301
-656
-696
-1375
-1018
-588
-1022
-986
-515
-766
-1048
-560
-636
-1160
-596
-122
-868
-1000
-101
-238
-819
-532
-377
-691
-386
-139
-827
-877
-155
-609
-1126
-321
-426
-1096
-604
-155
-789
-924
-326
-831
-1245
-354
-215
-1039
-615
-253
-1133
-1012
-258
-624
-930
-390
-555
-1154
-797
-508
-860
-674
-268
-744
-1096
-524
-379
-239
17
-332
-414
-36
-206
-493
-164
-184
-550
-266
34
-341
-460
-84
-244
-410
32
125
-127
197
627
703
1140
1767
1729
1546
1968
2068
1745
1998
2080
1566
1578
1939
1702
1382
1496
1155
148
-108
240
-268
-630
-291
-494
-876
-617
-501
-918
-696
-277
-643
-736
-410
-552
-747
-465
-475
-920
-842
-620
-974
-1073
-630
-756
-1082
-703
-583
-1020
-822
-457
-772
-758
-350
-551
-881
-462
-332
-723
-449
-143
-550
-684
-151
-222
-644
-224
-194
-611
-226
24
-360
-336
-19
-286
-489
-156
-133
-482
-275
51
-328
-446
-142
-237
-434
-237
-167
-490
-325
-39
-383
-401
-22
-317
-584
-107
-61
-442
-289
-79
-415
-477
-25
-162
-496
-189
-127
-590
-460
-118
-352
-353
-34
-250
-533
-231
-172
-505
-280
-13
-383
-409
2
-223
-519
-117
-81
-468
-252
-111
-457
-366
-11
-194
-388
-64
-109
-479
-206
27
-386
-377
54
-181
-518
-116
11
-398
-257
-14
-321
-351
-38
-208
-388
-46
0
-382
-198
33
-328
-239
142
-134
-391
-46
10
-392
-232
98
-228
-299
84
-91
-363
-8
58
-349
-112
197
-135
-139
153
14
-83
272
332
-36
142
436
132
59
426
387
151
419
452
37
191
385
-83
-219
100
-160
-514
-70
54
-397
-182
39
-283
-176
238
189
129
533
852
1423
2807
3570
3024
2447
1867
974
438
467
288
-251
-213
-82
-549
-605
-179
-344
-653
-336
-226
-677
-510
-78
-481
-625
-159
-322
-663
-285
-124
-604
-431
-84
-509
-534
-75
-227
-562
-205
-100
-483
-251
-15
-313
-220
122
-85
-230
163
198
-164
67
379
156
170
536
337
92
587
647
273
572
838
374
329
791
485
166
508
338
-32
323
460
33
-29
210
76
-188
65
184
-266
-162
175
-167
-266
64
-60
-332
-170
5
-234
-186
143
-109
-178
223
-93
-364
87
18
-325
-64
155
-197
-332
82
40
-310
0
125
-291
-119
96
-245
-182
201
46
-182
165
275
-70
54
294
43
119
514
251
23
417
406
23
162
367
-30
-372
-26
-46
-382
-99
-83
-474
-318
-4
-408
-484
10
-143
-344
102
252
-69
280
1105
1889
2773
3127
2461
1488
1223
839
50
135
139
-490
-458
-89
-353
-691
-436
-293
-616
-504
-152
-516
-635
-114
-343
-742
-273
-166
-613
-398
-38
-488
-728
-157
-186
-587
-212
-88
-486
-257
-16
-434
-320
4
-336
-375
93
141
-389
-113
422
-1
25
525
310
-100
194
533
246
186
387
231
272
552
128
-226
258
277
-137
44
184
-291
-299
164
-148
-493
-20
50
-365
-203
12
-338
-334
72
-179
-485
-72
18
-381
-259
-15
-321
-370
88
-121
-426
47
4
-528
-195
229
-140
-262
44
-58
-324
-75
26
-351
-197
76
-290
-326
-18
-293
-315
182
165
-254
-7
286
-190
-59
408
164
-6
207
248
39
267
584
178
57
418
162
0
376
273
-223
-218
-74
-397
-330
90
-169
-456
-66
5
-429
-317
173
63
21
466
433
636
2054
3142
2930
2755
2270
987
595
767
200
-274
-63
-154
-626
-330
-17
-488
-551
-128
-299
-662
-318
-92
-444
-373
-177
-457
-412
-91
-324
-582
-207
-161
-621
-380
3
-340
-392
-8
-275
-537
-40
17
-421
-141
223
-155
-226
135
94
-23
164
314
194
271
485
295
262
617
466
120
367
490
241
393
547
58
-18
431
236
-149
113
259
-189
-90
241
-208
-367
114
48
-264
5
71
-310
-179
145
-173
-268
110
-22
-285
-14
68
-526
-333
322
-108
-219
213
-34
-353
-194
-51
-228
-56
253
-123
-277
15
-162
-315
35
21
-342
-176
103
-187
-235
177
84
-117
129
178
-18
151
233
20
191
459
262
82
442
529
121
165
414
193
18
241
-2
-410
-131
-107
-492
-270
46
-284
-525
-103
-55
-339
102
358
53
306
877
1289
2454
3617
3346
2462
1893
1350
667
421
381
-120
-432
-147
-215
-564
-362
-264
-591
-384
-189
-558
-428
-110
-360
-522
-190
-165
-533
-374
-119
-433
-483
-141
-391
-618
-118
-24
-438
-282
18
-334
-416
36
-71
-273
49
156
-99
56
252
1
139
533
287
-27
399
615
280
434
652
278
115
529
495
80
286
284
-157
18
254
-63
-86
189
-71
-344
4
83
-305
-126
123
-250
-389
-61
-118
-436
-120
105
-299
-211
129
-230
-347
68
-72
-290
17
26
-279
-105
108
-239
-304
63
-127
-528
-120
166
-268
-207
149
-140
-283
172
-12
-422
33
186
-239
30
330
-50
-77
319
221
-30
264
414
102
303
578
183
116
420
238
-28
216
171
-330
-227
19
-291
-385
-33
-194
-488
-65
67
-337
-178
276
93
-37
537
1101
2009
3232
3340
2537
1796
1410
908
424
408
12
-428
-193
-252
-689
-469
-162
-502
-550
-173
-340
-605
-310
-295
-591
-377
-179
-534
-551
-133
-303
-645
-360
-222
-510
-370
-126
-416
-524
-207
-169
-350
-127
-16
-400
-297
118
-116
-257
210
154
-194
213
409
-22
131
458
105
93
539
380
2
320
450
-109
82
424
-38
-187
119
-59
-306
-13
15
-387
-333
-49
-347
-392
-16
-260
-541
-160
-41
-442
-398
-155
-322
-378
-98
-232
-536
-169
31
-434
-383
41
-307
-469
9
-115
-415
-115
-206
-578
-228
42
-356
-378
38
-158
-460
-128
-75
-453
-289
-27
-317
-388
64
44
-262
74
190
-201
-88
153
-40
11
306
127
-34
342
241
-240
53
228
-129
-185
26
-237
-607
-265
-143
-494
-325
-66
-370
-511
-133
-97
-246
280
299
-84
703
2006
2695
2887
2926
2019
886
796
541
-146
-132
64
-481
-660
-219
-352
-643
-313
-204
-620
-481
-199
-501
-661
-297
-281
-619
-319
-275
-739
-486
-105
-436
-629
-262
-328
-532
-189
-155
-526
-349
-14
-326
-349
53
-63
-365
-140
162
-54
60
441
27
-288
393
607
175
480
577
142
361
631
236
95
422
253
-37
273
280
-234
-57
340
-4
-190
160
47
-358
-73
57
-379
-199
164
-138
-298
10
-135
-419
-25
138
-267
-160
136
-231
-331
93
-56
-312
79
148
-141
203
703
702
931
1622
1743
1703
2141
2204
1940
2053
2145
1872
1923
2241
1988
1616
1809
1620
812
491
476
72
-281
-148
-307
-675
-402
-219
-689
-703
-175
-400
-586
-200
-505
-896
-507
-313
-617
-555
-393
-764
-869
-557
-614
-850
-607
-412
-787
-694
-319
-669
-873
-378
-416
-703
-305
-214
-570
-378
-111
-467
-474
-22
-151
-536
-244
47
-422
-365
116
-181
-338
34
-7
-311
-75
141
-309
-295
125
-173
-339
38
-71
-422
-110
39
-473
-294
159
-201
-308
-4
-227
-379
22
90
-305
-243
-36
-254
-222
100
-76
-425
-96
44
-312
-127
128
-227
-352
35
-93
-372
-20
102
-386
-410
65
-47
-211
81
-107
-456
-79
147
-238
-190
150
-153
-315
81
-31
-349
-24
91
-338
-217
93
-234
-379
-94
-66
-230
-20
125
-325
-378
53
-105
-228
168
27
-323
-8
108
-314
-187
121
-199
-251
-65
-320
-297
77
142
-241
-293
117
-118
-299
112
-42
-383
-62
169
-141
-7
277
-99
-59
428
191
-104
284
368
67
318
615
260
108
464
197
-133
356
367
-194
-102
135
-244
-331
21
-204
-458
-101
15
-294
-173
265
168
160
633
976
1874
3280
3700
2938
2056
1642
1020
380
447
186
-372
-207
-119
-511
-498
-279
-497
-486
-172
-365
-631
-287
-113
-547
-528
-194
-525
-653
-162
-347
-731
-294
-166
-592
-508
-147
-322
-486
-85
-100
-469
-269
-87
-393
-231
231
-26
-175
177
89
-110
180
338
139
283
549
284
246
688
585
269
584
682
225
350
710
398
186
431
397
175
323
320
-20
103
322
-36
-222
72
13
-212
66
141
-279
-135
204
-185
-286
170
-47
-395
-52
16
-256
-33
164
-365
-393
183
-88
-337
80
125
-265
-224
5
-248
-289
14
-177
-358
23
127
-256
-114
175
-180
-177
224
83
-86
218
277
3
109
336
173
113
398
229
-63
140
-59
-411
-149
-15
-334
-441
-287
-339
-419
-157
-86
-484
-401
-56
-184
-126
207
204
438
1808
2860
2613
2381
1993
985
539
602
44
-507
-306
-157
-491
-546
-357
-596
-660
-292
-382
-674
-366
-208
-638
-594
-240
-603
-785
-265
-316
-628
-399
-378
-609
-390
-173
-537
-624
-189
-232
-522
-234
-119
-443
-284
-34
-251
-298
44
-15
-223
183
279
-170
66
485
55
-44
484
333
15
340
355
-70
8
241
27
-76
49
-145
-267
0
7
-387
-350
-7
-194
-382
-164
-212
-413
-122
-27
-494
-350
8
-341
-413
-101
-273
-403
-184
-193
-351
-141
49
-299
-381
-40
-189
-525
-271
-14
-340
-321
53
-217
-410
-40
-177
-542
-126
-1
-425
-258
-32
-326
-372
4
10
-202
41
174
-189
-65
328
47
-122
341
268
-91
323
387
-110
20
358
128
-190
-25
-62
-420
-211
-100
-461
-304
-14
-367
-460
-32
-127
-373
85
378
-18
207
1276
2132
2729
3155
2662
1579
1143
750
76
-92
33
-262
-466
-134
-328
-672
-342
-305
-650
-414
-123
-496
-583
-145
-303
-627
-356
-322
-603
-362
-69
-425
-526
-288
-551
-542
-106
-110
-464
-424
-21
-173
-333
20
-100
-315
95
207
-178
-55
315
150
69
429
326
63
370
450
123
263
570
316
222
601
430
22
350
404
-137
-67
213
35
-220
-68
73
-175
53
102
-359
-139
119
-218
-237
108
-42
-372
-106
69
-374
-296
153
-173
-423
-7
27
-307
-88
91
-246
-149
109
-195
-261
-70
-226
-251
24
-45
-404
-118
226
-182
-375
-60
-160
-381
-1
135
-228
-73
219
-88
-151
229
158
-183
107
351
28
92
393
234
152
453
240
-147
160
236
-277
-224
95
-334
-468
-56
-223
-480
-176
-55
-462
-394
63
-63
-13
460
417
414
1675
3099
3149
3038
2655
1369
762
834
340
-246
-77
-74
-576
-547
-218
-503
-630
-200
-340
-659
-412
-409
-670
-446
-165
-347
-483
-279
-391
-647
-346
-181
-526
-411
-155
-470
-513
-111
-315
-677
-142
82
-431
-295
71
-138
-112
251
36
-206
264
364
-82
197
578
223
169
599
476
116
443
577
142
160
339
1
-71
316
86
-246
73
27
-413
-223
99
-240
-325
64
-134
-403
-171
-306
-555
-148
109
-308
-396
-62
-190
-398
-203
-101
-277
-146
46
-293
-415
-111
-206
-446
-89
30
-356
-161
-106
-508
-256
84
-125
-437
-276
18
-298
-182
207
-142
-218
124
21
-145
121
207
-85
-27
297
138
0
414
287
-115
251
432
31
67
218
-273
-439
-111
-268
-474
-72
-100
-549
-212
-83
-499
-352
3
61
-56
65
317
583
1918
3252
2991
2466
2148
1292
607
638
365
-250
-240
-77
-480
-664
-238
-354
-829
-535
-340
-620
-382
-222
-564
-509
-168
-331
-672
-463
-193
-498
-439
-209
-797
-758
-7
-261
-580
-115
-121
-533
-352
-90
-310
-321
4
-77
-375
-33
-31
-458
175
564
49
38
463
318
58
372
456
150
277
519
154
20
291
-244
-552
159
281
-111
7
173
-187
-315
39
-106
-425
-126
-22
-413
-307
28
-313
-599
-306
-302
-404
27
174
-252
-182
120
-202
-330
24
-122
-411
-63
27
-718
-816
131
170
-262
82
-12
-381
-88
6
-341
-247
15
-274
-354
11
-171
-385
-517
-407
89
24
124
205
38
288
183
-99
243
367
-9
155
464
107
-19
348
216
-122
-61
-180
-591
-541
-9
-90
-400
-106
-230
-556
-170
-66
-463
-230
41
-7
241
569
1204
2227
3155
3243
2381
1602
1189
524
61
190
-111
-657
-572
-339
-666
-569
18
-323
-562
-185
-372
-709
-392
-227
-605
-497
-223
-439
-459
-267
-350
-471
-249
-161
-545
-445
-74
-396
-531
-182
-313
-469
-70
106
-268
-269
135
-91
-130
396
190
-123
370
418
-32
239
538
243
217
636
460
77
472
555
51
203
498
5
-104
243
-43
-320
68
188
-288
-171
168
-238
-351
150
-13
-328
-16
16
-356
-281
-65
-322
-281
130
-143
-442
-28
-26
-342
11
351
80
106
620
668
822
1696
2020
1681
1876
2115
1904
2069
2351
2019
1800
2162
1992
1571
1705
1473
661
233
414
150
-481
-387
-227
-582
-542
-328
-669
-687
-242
-449
-755
-341
-256
-731
-583
-266
-629
-761
-500
-745
-943
-587
-616
-901
-718
-401
-591
-740
-382
-552
-899
-478
-225
-613
-481
-64
-478
-659
-110
-302
-529
19
26
-453
-395
15
-156
-427
-30
-36
-396
-42
86
-362
-178
151
-211
-243
159
-90
-502
-201
66
-251
-211
85
-226
-446
-10
-12
-394
-96
110
-331
-438
-23
-114
-277
22
-68
-429
-209
70
-289
-321
-24
-238
-375
-121
-202
-310
96
108
-333
-166
75
-281
-279
138
-90
-511
-238
-13
-249
-84
185
-180
-392
-50
-70
-323
0
52
-307
-191
-70
-204
-138
112
-44
-316
-32
77
-655
-697
265
90
-230
208
-49
-376
-54
-111
-394
-38
195
-202
-241
142
-76
-247
-314
-538
-152
167
183
-92
-236
117
-47
-328
44
105
-340
-129
169
-194
-311
48
148
-18
276
341
-63
111
256
-23
102
503
320
72
428
475
40
143
424
49
-88
214
-36
-328
-18
14
-374
-297
-49
-283
-305
54
-104
-184
373
418
175
1136
2650
3168
3237
3170
2003
878
879
645
-2
-23
122
-343
-621
-242
-295
-663
-312
-166
-675
-382
10
-427
-564
-292
-361
-648
-343
-208
-786
-432
4
-553
-484
-50
-354
-574
-194
-125
-419
-206
-26
-368
-314
89
-41
-401
-170
104
-124
81
346
20
55
444
302
107
549
653
296
298
462
500
393
492
605
373
567
647
70
127
506
129
-120
287
170
-263
95
107
-417
-94
241
-167
-235
158
-56
-457
-107
-76
-450
-77
102
-333
-303
108
-55
-407
-74
68
-341
-221
-30
-390
-287
100
-231
-516
-80
-52
-472
-358
-76
-274
-447
-43
10
-398
-265
36
-173
-241
94
-82
-153
252
-66
-333
126
142
-254
-5
322
-241
-544
-117
-250
-757
-467
-201
-717
-704
-334
-720
-818
-291
-425
-726
-168
160
-301
-118
788
1519
2260
2834
2337
1218
872
612
-211
-462
-248
-590
-682
-303
-619
-884
-604
-585
-862
-794
-373
-592
-809
-400
-632
-995
-544
-404
-821
-598
-289
-693
-734
-384
-601
-805
-318
-279
-723
-465
-209
-551
-499
-135
-312
-471
-179
-203
-486
-230
151
-51
-189
80
165
20
206
390
-3
90
494
-40
-204
436
95
-348
132
252
-504
-494
267
-156
-408
-7
-397
-540
-72
-37
-392
-434
-327
-466
-491
-207
-161
-466
-205
-110
-545
-384
4
-443
-585
83
-102
-517
-199
-123
-601
-485
11
-207
-430
-11
20
-424
-215
-8
-433
-250
97
-376
-441
0
-209
-479
-64
36
-395
-193
269
-101
-374
367
213
-528
193
436
-148
135
499
203
-124
275
490
15
187
260
-286
-184
-74
-604
-578
-31
-74
-469
-411
-257
-342
-32
323
-44
-124
422
398
730
2464
3361
2667
2390
2062
929
447
592
55
-487
-58
16
-554
-491
-174
-438
-454
3
-241
-663
-273
-192
-604
-280
19
-543
-590
67
-177
-457
32
-12
-465
-241
-35
-545
-307
357
-174
-664
51
290
-257
104
388
-221
-94
583
320
-20
331
435
231
433
685
196
146
792
653
297
458
631
370
310
657
246
-45
518
297
-213
111
175
-140
15
139
-178
7
367
45
-247
-48
38
-192
-37
194
-144
-226
150
-43
-335
199
170
-433
-84
352
71
-20
478
609
541
1235
1752
1531
1781
2225
1948
1932
2300
2030
1581
1872
1900
1340
1569
1760
1125
793
553
7
-68
125
-124
-509
-302
-79
-466
-564
-184
-275
-481
-238
-306
-563
-347
-193
-691
-872
-351
-637
-1107
-445
-262
-871
-690
-365
-851
-786
-314
-717
-845
-261
-222
-625
-460
-263
-540
-364
19
-278
-543
-190
-162
-466
-125
202
-387
-638
90
87
-269
103
105
-384
-274
149
-136
-268
88
-123
-414
-114
-161
-715
-354
220
-229
-387
-142
-479
-526
85
67
-434
-237
-16
-484
-374
169
-179
-449
-134
-167
-362
-183
-23
-425
-399
65
-294
-491
-29
-48
-360
-220
-53
-340
-324
95
-114
-423
18
-41
-620
-232
168
-317
-444
-31
-180
-393
49
116
-319
-171
47
-389
-323
124
-165
-401
-77
9
-395
-390
-74
-222
-176
29
-277
-421
24
54
-341
-77
-80
-537
-202
61
-201
-234
51
39
-508
-269
235
-237
-325
165
-89
-578
-90
309
-133
16
286
-182
-65
462
237
-88
168
350
71
207
556
203
126
333
41
-29
270
91
-353
-201
-36
-347
-391
-22
-130
-432
-220
-168
-361
-33
270
-64
42
917
1613
2263
2916
2726
1650
1015
898
125
-172
190
-171
-482
-171
-225
-611
-349
-242
-762
-473
19
-428
-526
-169
-385
-432
-102
-100
-430
-549
-235
-236
-506
-149
-62
-536
-206
78
-436
-442
-115
-252
-388
-137
-46
-304
-193
-54
-188
-48
76
-96
-82
166
277
15
183
600
227
132
415
303
125
401
603
241
349
527
121
202
433
64
-131
16
59
-23
112
229
-100
-240
57
-95
-286
192
143
-265
-26
122
-78
40
266
49
-87
317
350
86
304
367
27
188
535
252
110
511
501
167
461
607
51
33
393
154
-148
89
222
-84
-3
249
58
-1
185
27
-158
290
382
-68
118
360
128
152
366
172
-15
221
86
-408
-226
17
-412
-479
2
-249
-705
-209
-12
-394
-67
311
31
64
439
248
699
2398
2980
2547
2426
1717
650
494
682
100
-257
99
-46
-473
-209
-23
-397
-342
-83
-241
-251
-28
-190
-527
-495
-135
-191
-371
98
-9
-416
-87
-100
-290
71
161
-221
-252
157
92
-209
168
447
192
283
504
150
346
955
567
404
855
731
476
778
1048
624
518
1020
821
669
1105
922
531
829
928
539
596
811
630
343
567
650
199
437
798
412
334
585
384
318
638
481
66
336
636
310
149
465
336
104
421
361
29
275
469
136
167
478
90
-85
503
472
21
274
587
229
198
548
249
37
431
510
223
352
444
129
394
761
380
166
590
762
528
740
852
349
418
883
688
435
698
645
277
232
216
-37
-42
390
226
-198
64
386
489
631
654
399
342
780
783
512
1101
1855
2518
3313
3243
2248
1501
1314
794
262
255
17
-270
-195
-100
-120
-144
-41
-216
-530
-262
-144
-475
-299
-131
-542
-494
-106
-338
-583
-354
-308
-558
-409
-195
-515
-480
-239
-490
-516
-200
-306
-559
-230
-50
-371
-205
176
-189
-400
65
48
-179
131
292
29
-22
320
338
133
402
433
-43
-105
300
238
76
209
23
-79
114
21
-334
-224
53
-235
-249
126
-171
-470
-209
-258
-477
-290
-218
-464
-323
0
-214
-344
-156
-236
-343
-110
43
-232
-270
-90
-340
-409
-30
-147
-545
-327
-80
-417
-504
-188
-331
-501
-266
-137
-231
-147
70
-100
-165
80
-184
-283
209
168
-213
78
376
13
22
385
51
-261
207
198
-338
-315
-181
-402
-332
-112
-477
-636
-201
-229
-534
-319
-170
-492
-438
119
83
-112
448
1303
2102
2787
2849
1869
1062
996
504
-60
-31
-229
-663
-484
-387
-767
-688
-385
-579
-775
-444
-394
-687
-509
-356
-729
-668
-361
-585
-602
-306
-417
-690
-449
-265
-577
-555
-200
-277
-422
-212
-338
-462
-33
45
-339
-336
-88
-164
-134
203
71
-142
244
296
52
253
422
299
188
438
583
184
171
355
132
186
242
-72
-135
135
34
-364
-104
101
-447
-444
64
-219
-405
-40
-309
-565
-129
-62
-400
-311
-166
-382
-432
-48
-15
-515
-298
106
-300
-350
-76
-336
-440
-88
-176
-476
-134
38
-344
-364
-158
-264
-372
-283
-178
-258
-92
79
-314
-229
130
-90
-141
155
85
-186
49
234
-48
15
296
90
-89
178
135
-115
164
269
-324
-322
175
-219
-491
-198
-420
-614
-204
-161
-622
-401
9
-398
-563
131
212
-181
528
1533
2144
2808
2834
1769
913
882
306
-310
-68
-266
-602
-342
-208
-550
-688
-317
-490
-861
-371
-138
-667
-599
-213
-521
-677
-343
-497
-801
-504
-356
-723
-555
-55
-452
-737
-248
-231
-458
-253
-174
-490
-362
54
-233
-326
153
-63
-371
102
319
9
145
492
167
62
513
540
250
370
488
136
199
509
215
-43
170
189
-111
32
151
-240
-183
105
-160
-440
-142
-83
-382
-35
81
-460
-333
-5
-253
-274
-21
-139
-360
-133
-29
-300
-263
-60
-162
-266
-1
-77
-439
-161
-48
-399
-156
86
-350
-369
71
-96
-413
-163
-38
-410
-253
123
-210
-289
167
-2
-352
137
223
-200
-40
242
136
45
307
220
22
389
463
-38
11
487
186
-198
23
-101
-420
-250
-94
-478
-589
-108
-190
-436
-41
-59
-324
162
387
-39
122
1029
2040
2780
3179
2757
1543
1053
938
208
5
142
-351
-536
-157
-299
-635
-303
-123
-509
-547
-316
-446
-475
-179
-291
-572
-306
-202
-597
-587
-292
-428
-548
-98
-162
-627
-265
-68
-460
-257
100
-299
-340
90
-115
-308
83
163
-158
92
407
68
130
527
296
87
470
605
248
370
712
431
315
551
290
43
211
228
-93
-83
249
-101
-367
106
17
-372
-50
-40
-473
-164
178
-234
-392
30
-85
-496
-216
-59
-396
-254
15
-350
-474
-38
-85
-350
-85
-89
-501
-238
153
-378
-529
54
-42
-350
-38
-8
-433
-290
33
-192
-291
12
-67
-298
-129
67
1
38
311
26
-210
237
192
-56
237
335
41
189
500
120
-10
405
162
-151
154
110
-355
-323
-9
-346
-500
-93
-314
-526
-213
-272
-448
-61
325
87
-32
476
969
1712
2960
3350
2643
1922
1420
781
444
491
-115
-728
-236
-31
-562
-388
-76
-483
-581
-208
-358
-661
-457
-224
-380
-478
-213
-296
-460
-179
-276
-575
-300
-136
-499
-367
-91
-439
-486
-151
-282
-505
-106
-26
-493
-307
62
-176
-194
106
-77
-144
313
415
52
102
446
292
215
526
351
40
373
542
108
38
203
-77
-177
157
4
-534
-134
158
-407
-341
-123
-470
-460
-14
-192
-563
-202
-142
-546
-365
-176
-456
-442
-68
-275
-689
-322
-179
-531
-334
-86
-322
-286
24
-95
-400
-148
61
-351
-71
400
-4
-26
434
265
25
425
445
183
444
592
384
460
905
725
250
504
529
76
234
578
297
126
419
306
87
376
587
797
1146
939
187
-71
371
345
47
373
498
-66
-196
53
-231
-281
274
347
345
1035
1150
1085
2062
2783
2572
2372
2196
1302
478
640
652
75
140
469
132
12
345
205
9
302
361
39
143
454
64
-149
337
195
-103
377
412
-141
98
548
97
-140
122
21
-212
84
222
-246
-23
394
15
-46
366
155
-303
59
361
10
206
543
216
146
551
442
171
537
662
228
173
400
84
-141
253
-15
-520
-73
62
-421
-365
-168
-474
-447
-47
-439
-705
-140
-140
-575
-355
-116
-539
-598
-306
-430
-563
-230
-193
-618
-474
-229
-569
-674
-296
-353
-652
-433
-374
-692
-537
-242
-538
-680
-282
-441
-811
-450
-271
-630
-574
-385
-608
-587
-320
-407
-553
-318
-182
-397
-226
110
-162
-317
133
28
-272
102
219
-129
28
374
65
-3
290
107
-127
12
-69
-485
-520
-283
-613
-864
-308
-371
-835
-623
-568
-807
-525
-157
-618
-654
162
698
1542
2462
2373
1508
741
461
16
-503
-545
-631
-828
-695
-697
-990
-1005
-739
-802
-853
-586
-802
-1055
-676
-526
-833
-668
-466
-874
-907
-458
-544
-727
-528
-561
-778
-507
-198
-642
-635
-103
-379
-736
-240
-90
-583
-296
118
-247
-253
178
-62
-286
283
428
90
281
507
141
68
598
393
7
449
488
-33
9
186
-120
-183
133
-178
-571
-19
105
-485
-277
-24
-308
-377
-195
-135
-320
-176
-102
-454
-336
-99
-500
-458
37
-325
-563
-9
-12
-522
-381
12
-251
-550
-169
-73
-426
-117
-57
-556
-268
20
-424
-333
81
-202
-554
-289
44
-135
-31
231
-182
-220
252
115
-220
130
353
-192
-9
525
167
77
455
293
-162
41
311
-160
-311
-43
-319
-431
-97
-263
-596
-288
-113
-391
-208
8
-240
-167
224
104
-41
797
2076
2762
3035
2979
1903
943
972
589
-5
-3
-261
-559
-258
-145
-572
-601
-243
-341
-484
-257
-189
-464
-416
-262
-461
-423
-114
-286
-563
-240
-103
-500
-417
-107
-414
-483
-137
-277
-584
-303
-28
-271
-102
142
-226
-379
14
156
-23
254
356
44
228
415
218
304
562
438
213
380
367
169
439
617
115
-144
293
173
-141
96
-37
-323
-25
128
-235
-232
-23
-277
-384
-120
-204
-364
-75
-119
-695
-473
187
-128
-500
-84
20
-481
-305
105
-278
-358
56
-186
-509
-30
-29
-560
-240
46
-430
-459
75
-69
-398
-51
-27
-367
-80
132
-225
-121
299
79
-290
-4
283
3
77
353
-60
-87
454
304
-27
142
148
-127
-20
64
-333
-443
-196
-381
-558
-198
-116
-480
-514
-187
-327
-383
144
38
-260
10
367
1113
2223
2865
2553
1804
1341
744
171
95
-167
-565
-406
-201
-587
-610
-281
-574
-717
-337
-379
-706
-486
-310
-673
-642
-265
-471
-677
-417
-514
-772
-423
-186
-552
-560
-208
-388
-848
-596
-114
-390
-374
-28
-329
-323
-12
-256
-298
116
148
-146
59
367
96
120
499
328
81
397
547
109
114
461
134
35
329
-167
-459
241
341
-198
-76
91
-283
-325
14
-174
-474
-130
-64
-410
-274
-113
-467
-460
27
-337
-587
-45
-151
-397
-10
170
-192
-43
681
847
934
1450
1587
1207
1319
1855
1667
1586
1880
1507
1175
1447
1373
829
844
964
274
-190
73
-181
-609
-321
-314
-644
-506
-332
-485
-490
-242
-420
-638
-263
-156
-537
-467
-255
-632
-719
-443
-728
-860
-411
-427
-790
-494
-230
-753
-798
-223
-328
-524
-185
-163
-472
-303
-16
-282
-300
76
-155
-433
7
95
-286
-46
217
-129
-152
96
-104
-266
18
76
-247
-159
47
-307
-354
35
-288
-468
72
33
-395
-276
-55
-334
-381
59
-182
-503
-64
15
-363
-219
100
-236
-416
-56
-149
-360
-37
12
-292
-305
-126
-335
-375
72
-172
-396
32
-74
-393
-131
27
-304
-340
-44
-150
-276
8
27
-352
-374
-119
-200
-230
21
-122
-367
-97
2
-297
-192
75
-211
-303
108
-218
-498
71
92
-302
-107
68
-405
-464
111
34
-321
8
132
-301
-197
76
-236
-265
74
-30
-221
-74
-77
-279
-154
40
-152
-178
121
-101
-413
-77
60
-234
-62
203
-66
-108
164
81
-53
253
305
7
244
514
190
153
542
414
154
400
395
71
259
357
-141
-257
61
-121
-347
-14
70
-305
-192
53
-229
-157
306
356
172
366
743
1356
2684
3509
3034
2225
1659
944
360
456
258
-297
-258
-121
-437
-466
-118
-272
-626
-351
-165
-429
-263
-98
-469
-481
-62
-247
-503
-153
-147
-471
-242
-59
-383
-334
-1
-204
-444
-49
7
-413
-149
162
-158
-238
139
69
-186
223
377
69
252
517
318
316
659
532
374
723
703
450
712
884
540
502
719
453
257
593
568
94
242
408
-23
0
355
171
-155
60
131
-227
-7
211
-197
-202
155
-57
-313
40
48
-312
-66
191
-144
-234
78
-13
-226
98
100
-395
-167
203
-235
-282
210
-11
-260
24
-92
-327
20
248
-71
-59
253
-70
-185
321
337
-11
179
452
87
-41
408
286
-42
284
286
-131
23
-15
-613
-508
-62
-333
-566
-205
-171
-525
-362
-60
-401
-484
-38
-26
-79
293
726
1468
2556
3000
2475
1564
1050
624
46
76
-26
-634
-544
-277
-643
-672
-290
-434
-708
-391
-364
-813
-550
-222
-654
-686
-276
-553
-764
-363
-356
-699
-542
-209
-561
-632
-138
-388
-666
-298
-360
-637
-314
-53
-344
-403
-23
-224
-501
55
210
-210
15
322
-5
20
324
17
-21
505
454
34
217
416
35
-7
176
-191
-363
-55
-68
-366
-215
-5
-347
-422
-128
-299
-499
-285
-331
-572
-449
-241
-403
-479
-137
-303
-579
-196
-228
-610
-347
-122
-477
-489
-124
-260
-528
-271
-150
-508
-393
-100
-514
-478
20
-283
-564
-184
-163
-541
-353
-145
-450
-383
-57
-168
-253
13
37
-291
-286
40
7
-55
268
167
-139
75
129
-99
97
234
-102
-197
-31
-221
-626
-527
-239
-523
-427
-74
-414
-486
-148
-305
-479
-71
128
-172
-125
480
1148
2106
2955
2721
1744
1137
718
110
81
102
-391
-595
-326
-438
-662
-364
-357
-704
-484
-222
-647
-733
-293
-457
-704
-348
-264
-645
-614
-340
-519
-564
-248
-447
-720
-280
-177
-634
-423
-46
-374
-426
11
-193
-409
15
51
-183
12
219
26
15
437
288
-54
354
498
150
276
608
252
107
577
332
14
328
298
-140
-109
211
-35
-176
171
-73
-414
-81
-16
-308
-168
35
-281
-387
-24
-267
-623
-166
-23
-400
-273
56
-295
-536
-114
-171
-386
-81
11
-456
-399
24
-232
-306
27
-149
-419
-117
-1
-334
-224
61
-285
-272
143
-371
-577
111
137
-212
54
300
-184
-173
390
156
-130
293
425
80
261
457
149
156
427
276
71
254
221
-246
-349
-42
-225
-334
-20
-168
-391
-233
-226
-397
-170
173
17
42
408
343
667
2183
3175
2934
2799
2200
1000
608
670
229
-247
-49
-151
-603
-269
-22
-508
-570
-37
-219
-584
-174
-120
-471
-309
-144
-380
-390
-76
-231
-510
-199
-97
-396
-287
-57
-258
-303
37
-78
-321
-58
-27
-175
11
223
-44
-44
414
160
-25
430
460
147
377
743
428
297
679
534
337
708
661
212
426
604
115
69
444
221
-76
226
188
-269
-86
236
-71
-167
152
-29
-265
26
116
-214
-102
126
-202
-213
153
-79
-354
17
43
-292
-49
198
-144
-214
57
-95
-293
-35
42
-259
-109
129
-180
-229
145
-39
-300
75
150
-195
-110
176
-19
-110
294
225
-46
251
322
27
260
539
88
18
631
530
36
246
360
15
121
264
-128
-246
68
-99
-393
-42
72
-390
-309
60
-208
-251
201
166
35
352
564
936
2292
3316
3022
2537
1892
1070
645
574
328
-311
-372
-32
-373
-469
-92
-280
-549
-291
-195
-514
-368
-110
-432
-433
-29
-314
-608
-207
-208
-558
-353
-101
-420
-575
-185
-159
-462
-248
-70
-361
-243
36
-261
-342
90
58
-251
90
240
-107
110
412
122
96
455
334
152
513
535
202
335
450
175
103
338
197
-61
-36
-15
-173
-118
88
-158
-370
-95
-128
-438
-118
-67
-533
-375
-44
-286
-443
-82
-120
-452
-221
-54
-421
-356
-15
-292
-412
-39
-178
-461
-92
-80
-514
-234
89
-339
-417
-1
-152
-428
-146
-77
-396
-314
-73
-336
-457
-82
-42
-273
-119
-44
-280
-72
216
-127
-133
232
-121
-418
-47
44
-310
-200
31
-360
-402
-97
-421
-788
-518
-445
-891
-745
-400
-737
-921
-480
-442
-812
-534
-335
-596
-276
40
-219
271
1687
2402
2262
2173
1491
511
267
118
-390
-639
-406
-574
-868
-591
-641
-951
-694
-497
-777
-831
-508
-543
-949
-732
-461
-823
-723
-412
-742
-838
-482
-571
-776
-503
-395
-790
-695
-338
-604
-649
-272
-402
-618
-309
-217
-530
-369
-40
-307
-291
155
19
-209
210
351
-7
74
379
191
55
317
214
1
186
130
-176
-100
99
-169
-385
-63
-183
-574
-215
-116
-531
-322
-76
-417
-488
-239
-383
-543
-217
-192
-532
-352
-272
-499
-342
4
-79
-266
197
558
454
915
1557
1366
1266
1726
1667
1460
1754
1624
1241
1443
1567
1125
881
1060
595
-210
-138
-75
-606
-662
-420
-690
-756
-400
-559
-842
-534
-465
-883
-612
-327
-808
-661
-147
-349
-704
-539
-497
-897
-740
-374
-689
-832
-382
-424
-719
-441
-314
-608
-530
-324
-453
-398
-49
-129
-397
-186
-51
-278
-185
121
-103
-249
132
-125
-511
60
168
-290
-126
168
-126
-334
42
-68
-381
-41
1
-341
-287
-78
-194
-301
-66
-108
-301
-66
-16
-319
-200
19
-257
-300
32
-137
-357
-22
-50
-371
-194
-10
-229
-257
56
-59
-341
-70
13
-333
-168
112
-187
-267
17
-113
-358
-33
75
-354
-152
229
-244
-372
118
-31
-334
5
57
-338
-80
232
-111
-242
57
5
-209
82
147
-267
-135
179
-131
-204
186
47
-215
99
125
-269
-77
201
-131
-198
203
64
-207
75
142
-135
-61
221
-26
-168
155
25
-152
143
132
-198
-64
194
-86
-205
192
91
-241
93
311
-105
-28
432
195
69
373
281
112
398
483
188
335
627
419
322
661
536
158
429
547
50
47
309
-79
-235
187
95
-308
-99
73
-224
-50
304
159
247
596
558
850
2324
3413
3267
3022
2324
1181
685
729
421
-121
-15
57
-407
-307
68
-281
-393
6
-136
-415
-124
-37
-396
-187
58
-329
-411
-76
-130
-332
-161
-84
-354
-215
68
-193
-238
95
-26
-301
20
177
-213
-43
326
-7
-22
279
169
121
382
499
217
336
682
422
378
795
740
447
656
813
569
693
869
548
465
795
613
214
525
554
79
235
437
45
-36
356
225
-165
119
254
-147
-99
218
31
-153
185
164
-187
8
145
-168
-92
193
-78
-193
227
-1
-337
77
133
-206
-56
237
-85
-284
110
56
-227
33
154
-216
8
335
-214
-196
371
216
-63
191
333
16
53
426
204
47
444
395
8
178
348
-105
-222
-3
-262
-420
-93
-197
-547
-264
-87
-405
-378
-140
-302
-398
80
219
-104
459
1537
2271
2861
2943
1964
957
926
648
-78
-138
-132
-535
-523
-217
-536
-763
-275
-344
-731
-450
-315
-675
-562
-184
-467
-657
-317
-418
-721
-410
-202
-559
-491
-159
-480
-636
-232
-293
-562
-266
-136
-469
-389
-38
-239
-383
13
-22
-280
51
169
-179
-20
320
55
27
407
267
28
288
431
73
15
304
41
-141
143
-2
-329
-92
13
-488
-404
28
-320
-487
-149
-330
-555
-235
-151
-443
-391
-217
-485
-514
-71
-210
-581
-248
-54
-403
-346
9
-287
-559
-120
-127
-490
-246
-89
-434
-350
-37
-372
-518
-85
-165
-487
-248
-168
-490
-306
-3
-324
-431
30
-26
-357
-31
110
-247
-143
169
-49
-157
195
155
-174
122
360
-42
-22
241
-42
-159
36
-181
-470
-251
-216
-625
-492
-113
-361
-572
-231
-213
-457
-166
138
-13
-122
248
957
1991
2899
2738
1930
1347
915
254
-60
102
-309
-634
-275
-388
-737
-444
-323
-684
-603
-366
-593
-651
-299
-413
-690
-375
-254
-595
-529
-208
-467
-577
-189
-376
-679
-333
-185
-519
-388
-35
-378
-506
8
-27
-435
-114
146
-162
-47
247
8
-64
376
296
-37
280
528
218
296
625
328
120
438
377
40
214
276
-121
-36
203
-122
-227
33
-110
-381
-108
64
-379
-306
-9
-410
-420
26
-123
-467
-152
27
-473
-370
15
-297
-395
-76
-133
-373
-222
-74
-329
-252
87
-191
-386
-35
-135
-398
-167
-16
-282
-257
76
-184
-432
-49
-55
-362
-83
85
-197
-150
193
42
-182
156
154
-134
162
284
-77
91
446
163
61
443
296
-46
200
333
-79
-168
77
-225
-473
-127
-116
-437
-217
-37
-401
-395
-23
-163
-213
376
284
-207
551
1587
2151
2811
2975
2068
1068
898
548
-105
-55
21
-438
-461
-124
-359
-566
-209
-230
-576
-340
-143
-478
-463
-138
-344
-528
-193
-165
-493
-356
-139
-379
-361
-83
-340
-544
-141
-143
-443
-92
107
-258
-172
181
-18
-157
214
197
-88
213
465
162
197
500
275
253
688
612
267
525
729
313
306
601
293
44
358
322
-146
23
252
-147
-114
207
-94
-282
40
29
-242
-120
26
-172
-174
61
-137
-318
-11
-135
-412
-100
62
-269
-245
119
-128
-252
81
-92
-349
-47
124
-266
-185
155
-116
-293
-48
-60
-302
-27
188
-220
-163
145
-192
-332
97
85
-194
125
322
-71
-33
377
56
-139
370
381
78
294
511
203
169
474
260
41
322
218
-291
-160
13
-364
-301
26
-247
-419
1
-85
-440
-89
69
-85
218
480
316
753
2231
3176
3044
2872
2213
1093
752
742
228
-162
-64
-85
-420
-373
-91
-424
-465
-65
-279
-494
-250
-231
-454
-229
-60
-399
-352
-29
-247
-415
-75
-79
-405
-194
10
-305
-278
46
-128
-354
-21
79
-214
65
342
-30
-71
316
203
27
404
500
232
457
595
299
451
802
531
402
729
525
187
431
557
74
4
381
119
-156
158
79
-376
-155
132
-216
-239
96
-136
-374
-67
-69
-373
-144
60
-303
-342
35
-157
-407
-67
-12
-360
-216
-10
-355
-372
108
-92
-459
-64
-41
-400
-177
44
-264
-267
52
-190
-411
-51
-85
-420
-144
26
-279
-190
167
13
-206
141
184
-274
6
416
11
23
426
211
147
323
81
-97
205
340
-147
-301
-53
-290
-491
-168
-140
-553
-383
-114
-403
-389
-111
-278
-373
177
259
-132
325
1435
2288
2749
2936
2119
1041
952
614
-91
-154
-157
-501
-519
-206
-430
-751
-405
-321
-657
-472
-285
-570
-667
-402
-501
-648
-349
-452
-724
-462
-236
-553
-580
-254
-457
-638
-312
-269
-589
-341
-73
-429
-409
21
-211
-489
-70
-51
-280
53
313
-19
-40
364
178
102
443
419
165
300
538
171
89
376
76
-105
213
158
-277
-141
111
-309
-361
46
-215
-480
-157
-174
-555
-348
-66
-401
-416
-50
-262
-477
-172
-202
-470
-275
-73
-388
-488
-115
-260
-473
-97
-235
-532
-166
-43
-422
-371
-104
-369
-450
-132
-216
-466
-246
-72
-404
-427
-59
-275
-534
-189
-174
-443
-228
-44
-233
-155
55
-155
-261
68
92
-175
41
256
-65
-49
308
59
-152
158
100
-200
-50
41
-369
-513
-215
-369
-633
-331
-337
-685
-382
-156
-510
-441
-70
-90
-131
118
273
757
2017
2844
2612
2175
1615
774
303
179
-115
-454
-390
-277
-619
-641
-345
-601
-762
-395
-393
-719
-514
-299
-705
-699
-266
-520
-707
-307
-389
-757
-509
-329
-631
-537
-176
-447
-670
-229
-231
-601
-328
-73
-427
-404
1
-242
-456
4
79
-218
5
272
11
37
449
278
102
399
314
20
247
427
65
15
310
64
-255
58
70
-382
-189
-10
-372
-363
-106
-267
-421
-167
-284
-525
-232
-89
-370
-406
-168
-283
-425
-185
-220
-480
-264
-78
-401
-459
-125
-293
-461
-123
-78
-451
-385
-9
-279
-365
-9
-216
-405
-102
-93
-388
-192
-5
-341
-312
20
-280
-544
-102
-16
-322
-137
124
-89
-187
151
55
-165
181
160
-146
111
241
-38
107
440
186
-47
210
202
-166
-99
70
-349
-445
-69
-277
-498
-120
-184
-583
-329
-51
-368
-332
200
189
-15
352
1077
1952
2954
3331
2585
1704
1194
627
165
191
-39
-622
-412
-146
-581
-574
-197
-461
-726
-322
-315
-694
-477
-305
-616
-594
-224
-374
-668
-408
-321
-640
-451
-183
-596
-544
-90
-372
-554
-168
-189
-518
-271
29
-301
-306
125
-8
-223
129
189
-133
130
458
157
154
581
419
129
469
534
176
369
586
199
8
243
112
-147
112
85
-303
-121
73
-263
-356
32
-107
-518
-189
-12
-382
-275
19
-356
-487
-88
-260
-456
-89
-82
-470
-273
9
-329
-320
2
-217
-399
-22
-9
-475
-241
100
-272
-352
55
-107
-385
10
61
-406
-200
144
-234
-320
101
-62
-325
-59
-100
-355
-97
142
-158
-104
296
29
-155
264
249
-63
222
507
128
65
484
297
41
348
275
-60
112
71
-406
-388
-20
-208
-495
-173
-106
-449
-301
3
-316
-391
183
128
-126
258
611
1194
2518
3312
2834
2123
1634
974
380
275
93
-331
-282
-99
-432
-547
-246
-408
-648
-314
-244
-573
-405
-225
-529
-519
-190
-390
-601
-219
-206
-628
-404
-96
-463
-457
-162
-415
-537
-234
-199
-495
-235
71
-352
-347
97
-47
-247
85
160
-91
107
333
27
35
471
310
114
499
510
185
337
477
195
96
309
96
-149
145
24
-378
-150
113
-338
-434
31
-185
-488
-71
-42
-505
-255
48
-335
-433
-79
-228
-482
-89
-80
-499
-261
-19
-274
-334
-123
-223
-392
-87
-20
-418
-251
34
-380
-380
-23
-260
-392
-36
-59
-408
-196
-8
-371
-342
13
-206
-399
-38
-80
-447
-215
44
-322
-288
113
-85
-209
96
121
-141
29
329
31
-78
376
288
-14
369
443
39
212
393
36
-77
134
-101
-549
-203
0
-453
-244
-6
-391
-377
-8
-151
-330
150
348
34
198
746
1391
2370
3125
2924
2089
1490
1047
330
167
199
-285
-408
-154
-284
-545
-287
-189
-614
-482
-182
-469
-510
-195
-333
-625
-308
-160
-534
-391
-122
-417
-446
-105
-288
-502
-149
-74
-454
-374
-49
-274
-288
49
-173
-344
104
198
-189
38
362
43
41
456
369
182
578
604
240
469
636
359
347
615
424
132
409
369
-50
99
298
-73
-175
178
-10
-301
26
61
-357
-183
82
-284
-294
40
-167
-365
-39
-11
-362
-195
24
-350
-386
62
-137
-415
-19
11
-330
-196
-48
-278
-307
-11
-99
-387
-87
43
-335
-184
65
-287
-364
47
-49
-398
-81
43
-461
-305
45
-324
-352
63
-113
-402
-68
25
-259
-44
188
-118
-98
224
44
-130
174
262
-27
97
420
187
84
414
203
-73
210
60
-401
-193
-63
-526
-415
23
-262
-481
-202
-263
-503
-182
137
-6
77
407
334
705
2280
3217
2930
2818
2176
993
633
609
127
-288
-50
-56
-574
-438
-108
-440
-468
-146
-381
-567
-249
-207
-496
-360
-150
-438
-462
-120
-304
-555
-184
-153
-579
-286
63
-343
-405
14
-144
-392
-74
9
-295
-113
273
-5
-98
266
182
-9
204
401
222
320
600
377
362
706
559
332
624
642
274
386
534
203
174
320
-29
-230
151
173
-217
-80
143
-203
-295
117
-39
-347
-20
5
-342
-156
79
-320
-420
38
-40
-316
15
178
-95
177
637
692
1051
1690
1816
1730
2157
2323
1902
2114
2435
1910
1758
2044
1679
1275
1401
1219
445
82
145
-334
-637
-302
-584
-979
-627
-576
-970
-763
-511
-797
-736
-460
-582
-670
-332
-270
-608
-512
-396
-756
-747
-436
-620
-760
-422
-442
-787
-554
-292
-605
-628
-271
-396
-572
-213
-185
-528
-294
-73
-370
-331
23
-79
-337
-37
108
-283
-135
179
-54
-187
102
53
-243
48
176
-238
-142
202
-144
-218
195
-112
-367
22
57
-294
-169
151
-164
-276
191
78
-295
-35
-38
-391
-81
216
-145
-330
63
-5
-363
-2
70
-355
-156
93
-252
-267
33
-209
-406
-35
20
-305
-174
-5
-295
-344
11
-94
-421
-158
-21
-425
-319
18
-276
-378
3
-104
-429
-112
-15
-459
-288
104
-307
-413
79
-183
-586
-150
9
-450
-289
-15
-355
-365
-29
-221
-486
-154
-55
-389
-273
-68
-319
-305
25
-246
-464
-100
-189
-457
-208
-1
-300
-386
40
-109
-493
-191
-57
-363
-232
29
-268
-345
6
-213
-518
-125
21
-365
-203
23
-384
-304
149
6
-222
76
190
-127
-22
268
97
-3
333
233
-72
259
373
-33
54
397
45
-216
54
-128
-461
-191
-119
-559
-349
21
-353
-504
-97
-152
-245
177
152
-85
556
1871
2546
2713
2714
1848
856
645
425
-169
-393
-200
-460
-660
-292
-457
-782
-441
-413
-802
-535
-286
-669
-638
-265
-464
-731
-448
-290
-751
-703
-265
-540
-629
-250
-407
-752
-416
-232
-568
-403
-129
-423
-434
-122
-273
-416
-45
92
-237
-86
225
-28
-51
353
291
53
367
551
210
199
521
339
261
703
502
114
499
587
141
229
473
136
-51
220
70
-275
60
173
-307
-188
106
-225
-316
6
-173
-382
-70
17
-314
-316
31
-248
-420
64
-133
-436
30
176
-138
29
303
45
92
610
510
175
488
645
303
419
725
389
236
636
551
280
560
725
336
312
754
557
434
831
745
479
663
829
595
751
1074
797
696
1039
939
607
849
956
615
738
875
379
182
563
464
138
452
516
198
286
411
229
219
586
631
483
704
864
1048
2331
3584
3417
3018
2574
1658
1001
912
661
145
152
335
7
-58
278
70
-177
151
247
-79
-52
173
-16
-94
272
167
-218
48
237
-80
15
260
4
-99
181
137
-72
189
322
-42
87
437
38
-48
467
367
126
474
593
304
405
693
461
421
899
717
422
827
879
492
655
909
559
426
751
529
151
422
506
149
237
479
133
-35
359
295
-75
168
343
-122
-58
365
69
-82
245
88
-207
139
226
-161
9
285
4
-95
208
91
-198
75
233
-165
-115
294
-15
-210
211
56
-258
90
166
-268
-107
275
-70
-207
226
88
-266
71
172
-208
-47
284
36
-81
273
197
-63
246
357
31
174
400
121
157
574
375
68
335
344
37
32
136
-173
-338
-36
-153
-398
-163
-78
-430
-402
-89
-270
-317
67
151
18
267
628
1187
2564
3428
2953
2315
1819
1057
455
428
182
-413
-381
-134
-515
-579
-187
-422
-699
-376
-273
-603
-517
-233
-531
-656
-246
-384
-693
-342
-264
-632
-461
-278
-565
-577
-242
-315
-625
-305
-182
-531
-332
-59
-327
-308
86
-109
-352
75
205
-98
67
352
83
31
463
307
119
442
399
122
262
472
138
-16
339
184
-220
11
107
-296
-182
19
-375
-405
-70
-260
-494
-190
-139
-585
-436
-110
-347
-441
-328
-422
-555
-296
-97
-403
-373
-92
-379
-510
-131
-232
-517
-209
-216
-571
-320
-94
-338
-434
-173
-319
-604
-264
-173
-484
-310
-36
-333
-456
-128
-248
-513
-136
-35
-417
-274
84
-152
-345
91
56
-276
101
229
-195
-25
278
-33
-158
127
70
-287
-203
-163
-557
-545
-289
-571
-675
-264
-414
-723
-387
-293
-628
-438
-32
-149
-236
200
831
1775
2756
2851
1897
1162
1085
391
-193
-63
-391
-801
-532
-508
-840
-680
-486
-768
-854
-528
-635
-947
-637
-462
-866
-756
-416
-798
-920
-388
-491
-877
-528
-411
-796
-674
-488
-740
-701
-341
-463
-745
-418
-260
-645
-378
-7
-399
-397
6
-202
-351
74
113
-144
2
218
7
-65
353
212
-101
157
189
-99
-40
149
-232
-385
30
-208
-548
-242
-216
-558
-499
-186
-390
-611
-264
-347
-665
-353
-285
-604
-529
-344
-514
-623
-285
-331
-623
-341
-274
-579
-394
-153
-519
-649
-209
-248
-604
-296
-178
-606
-493
-182
-483
-566
-189
-330
-622
-357
-213
-576
-519
-199
-426
-492
-139
-263
-529
-144
8
-392
-236
101
-204
-258
159
25
-308
-74
125
-108
10
286
-30
-131
205
-4
-441
-230
-155
-641
-567
-316
-568
-628
-304
-441
-753
-376
-251
-468
-111
169
-189
-42
1137
2154
2493
2732
2389
1192
673
599
-9
-408
-315
-443
-722
-429
-383
-787
-648
-372
-624
-769
-468
-561
-825
-546
-410
-823
-718
-298
-648
-799
-416
-551
-762
-396
-328
-698
-523
-246
-561
-633
-256
-299
-548
-192
-45
-557
-317
127
-221
-256
126
-10
-177
252
371
14
210
527
207
151
492
312
18
284
363
9
50
220
-102
-208
58
-134
-299
-61
-121
-423
-266
-4
-303
-428
-109
-230
-462
-167
-142
-485
-353
-85
-368
-474
-81
-224
-529
-248
-100
-325
-183
154
18
32
640
975
1030
1600
1847
1494
1683
1962
1832
1832
1955
1761
1495
1662
1599
1150
1072
959
152
-312
-7
-307
-768
-454
-459
-866
-671
-416
-753
-860
-488
-637
-849
-451
-348
-644
-543
-333
-686
-982
-645
-620
-916
-626
-533
-902
-711
-437
-773
-796
-400
-521
-776
-443
-362
-720
-509
-160
-406
-510
-91
-150
-480
-210
-84
-415
-260
73
-226
-359
39
-41
-315
-25
38
-272
-201
22
-229
-278
47
-181
-395
-73
-80
-407
-182
68
-264
-329
-109
-233
-358
-43
1
-413
-190
99
-333
-408
39
-187
-550
-145
-1
-380
-336
-69
-273
-375
-37
-156
-484
-116
26
-475
-336
38
-291
-365
12
-201
-535
-124
1
-421
-242
60
-264
-411
-88
-146
-411
-149
-57
-331
-174
55
-242
-341
1
-97
-396
-119
4
-341
-194
114
-243
-398
113
-106
-459
-27
-89
-419
-122
135
-213
-303
43
-148
-412
-47
32
-358
-192
110
-184
-231
99
-162
-430
-8
83
-291
-93
182
-210
-444
-84
-27
-224
102
245
-74
14
295
61
-1
395
280
17
442
496
-49
205
543
152
90
424
239
-154
41
89
-325
-205
50
-272
-355
-65
-198
-393
-45
71
-177
188
531
190
513
1929
2902
3100
3140
2438
1273
893
806
210
-132
-38
-364
-576
-229
-239
-580
-502
-264
-467
-537
-228
-403
-610
-276
-258
-586
-379
-176
-559
-585
-217
-350
-577
-300
-216
-594
-445
-7
-405
-525
-68
-278
-426
-32
-55
-322
-116
153
-121
-211
249
187
-114
266
472
92
183
517
227
147
611
484
206
575
509
177
432
515
152
167
497
179
-163
212
146
-330
-61
155
-244
-219
108
-80
-354
-33
91
-330
-145
128
-289
-348
79
-68
-351
-41
3
-341
-171
103
-251
-308
95
-85
-370
-52
25
-384
-259
53
-314
-389
30
-163
-399
-142
-72
-316
-217
79
-191
-184
246
34
-183
148
264
-82
22
368
49
17
440
241
-53
151
230
-3
-5
-8
-360
-406
-206
-349
-466
-181
-265
-669
-374
-76
-490
-435
78
15
-149
164
683
1399
2569
3109
2404
1667
1357
725
40
28
-147
-568
-436
-283
-576
-598
-304
-587
-871
-419
-366
-759
-517
-295
-637
-622
-236
-424
-663
-312
-289
-682
-521
-243
-557
-553
-146
-393
-645
-270
-316
-566
-270
-82
-272
-361
-105
-86
-213
119
180
-140
34
345
137
48
363
337
141
383
468
123
252
452
97
72
316
57
-222
1
83
-216
-153
69
-200
-337
-54
-242
-480
-100
-127
-478
-280
-119
-395
-402
-39
-184
-467
-150
-123
-489
-306
-120
-412
-424
-80
-216
-476
-131
-153
-493
-247
-91
-406
-407
12
-269
-588
-103
-102
-472
-253
-41
-401
-428
-67
-261
-530
-172
-88
-392
-140
58
-274
-240
173
-1
-210
115
51
-159
137
199
-76
66
410
173
-133
223
164
-389
-274
-101
-449
-496
-140
-347
-625
-224
-206
-568
-299
-34
-318
-116
319
10
10
1086
2293
2672
2675
2602
1602
800
779
212
-309
-134
-279
-645
-390
-259
-678
-626
-220
-489
-708
-342
-400
-694
-458
-264
-575
-603
-239
-432
-681
-315
-304
-677
-442
-190
-552
-601
-218
-332
-486
-120
-97
-441
-265
-8
-249
-191
214
-31
-306
188
265
-117
191
473
96
172
594
374
162
465
471
144
352
527
28
-13
419
106
-278
136
168
-256
-73
42
-296
-202
115
-153
-395
-102
-89
-420
-175
124
-262
-294
76
-208
-415
54
37
-405
-164
191
-159
-131
357
243
299
987
1326
1407
1914
2181
1910
2078
2412
2022
1794
2227
2118
1553
1652
1772
1197
941
892
113
-260
104
-195
-684
-421
-296
-626
-580
-237
-474
-796
-385
-327
-747
-476
-166
-548
-619
-331
-692
-891
-456
-533
-901
-644
-417
-760
-719
-404
-660
-790
-306
-316
-718
-402
-143
-571
-508
-50
-256
-473
-96
-27
-399
-126
113
-327
-240
140
-89
-246
115
98
-345
-152
130
-217
-188
148
-134
-389
-64
-95
-379
-104
24
-394
-363
35
-200
-380
20
-86
-343
-161
-182
-305
-199
52
-189
-332
54
-160
-450
-92
42
-339
-389
18
-155
-360
-18
-145
-433
-198
-42
-340
-265
73
-193
-380
-48
-116
-425
-135
26
-337
-276
30
-279
-447
23
0
-437
-210
27
-360
-293
83
-162
-324
14
-57
-418
-105
42
-379
-275
53
-249
-352
55
-71
-394
-164
-25
-345
-233
87
-222
-355
61
-42
-437
-118
73
-316
-237
70
-182
-317
12
-73
-377
-119
86
-326
-290
179
-114
-276
191
142
-194
71
273
-126
-48
390
85
-56
414
340
-62
255
499
-12
4
348
-16
-248
51
-145
-495
-192
-109
-419
-322
-101
-343
-438
-65
6
-116
162
308
239
1103
2591
2991
2656
2426
1457
482
465
311
-309
-384
-125
-442
-649
-282
-412
-712
-358
-251
-601
-517
-267
-548
-626
-261
-419
-669
-369
-262
-600
-544
-224
-477
-585
-280
-430
-624
-291
-191
-435
-439
-319
-338
-337
-58
-94
-369
-51
139
-200
-118
247
45
-218
212
323
35
319
420
80
187
518
342
195
540
399
64
361
407
53
98
290
-22
-186
186
10
-358
9
79
-284
-237
-137
-279
-219
54
-127
-399
-121
-51
-397
-334
30
-145
-326
0
-12
-353
-138
66
-428
-328
101
-218
-309
37
-115
-434
-147
7
-375
-388
-33
-178
-352
-2
-92
-428
-96
138
-208
-135
235
-50
-244
174
147
-102
207
308
13
150
466
109
-112
310
182
-245
-53
25
-422
-498
-175
-344
-505
-139
-268
-613
-235
-64
-425
-194
217
-78
-161
544
1386
2249
3043
3001
2001
1224
1055
484
-75
-24
-310
-609
-302
-285
-598
-563
-391
-570
-654
-284
-379
-668
-369
-384
-663
-437
-246
-534
-589
-348
-498
-666
-399
-252
-560
-455
-158
-503
-572
-152
-260
-503
-164
-84
-422
-233
93
-135
-226
150
77
-127
233
307
34
165
456
254
63
412
414
126
340
368
-42
76
293
-138
-188
181
-20
-291
-70
43
-281
-213
102
-198
-354
-73
-165
-445
-222
-46
-392
-309
20
-321
-455
-26
-129
-448
-138
-60
-472
-343
-33
-288
-479
-126
-138
-425
-150
-115
-425
-266
-4
-302
-427
-24
-112
-422
-150
-64
-433
-276
28
-240
-328
-8
-57
-278
25
152
-228
-44
316
-95
-201
271
146
-70
189
295
50
110
374
55
-109
131
-130
-428
-151
-135
-476
-312
-9
-292
-478
-52
-74
-367
-22
238
78
173
446
730
1916
3318
3293
2608
2125
1507
682
384
471
-53
-365
-49
-235
-603
-271
-145
-652
-493
-129
-519
-617
-228
-386
-696
-369
-248
-528
-387
-129
-380
-445
-87
-265
-652
-308
-41
-384
-393
-42
-260
-368
146
-18
-313
78
96
-230
9
257
-30
-61
310
278
16
248
443
206
312
535
210
190
537
364
171
448
425
52
192
344
65
33
207
88
-84
179
182
-151
3
127
-201
-307
37
-79
-332
-16
-26
-376
-252
-28
-251
-257
-23
-280
-370
65
60
-290
-19
386
164
302
1115
1400
1383
1793
2056
1884
2044
2295
2042
1885
2053
1789
1402
1690
1619
960
860
815
259
90
258
86
-187
0
128
-283
-200
159
-224
-443
-14
-56
-440
-236
-190
-724
-650
-307
-716
-868
-445
-648
-1074
-657
-416
-1003
-825
-136
-641
-851
-254
-505
-725
-298
-254
-611
-475
-188
-482
-514
-156
-295
-514
-196
-94
-500
-374
47
-219
-329
-24
-166
-408
-179
-76
-408
-252
5
-359
-404
-55
-215
-460
-168
-111
-473
-307
-19
-355
-485
-159
-318
-555
-175
-95
-451
-238
23
-514
-641
-138
-399
-766
-564
-786
-1269
-1095
-770
-977
-868
-377
-452
-642
-336
-213
-573
-460
-151
-504
-561
-160
-407
-710
-389
-318
-610
-511
-326
-565
-562
-215
-427
-686
-323
-304
-699
-582
-472
-803
-741
-374
-455
-437
-108
-115
-237
-26
126
-246
-278
117
-97
-411
-118
-85
-482
-321
-90
-432
-462
-88
-210
-416
-101
-62
-475
-292
11
-375
-370
89
-77
-269
129
133
-144
90
272
3
-17
393
215
-88
262
295
-62
144
330
-82
-88
174
-183
-403
-128
-205
-526
-461
-256
-521
-521
-141
-310
-354
59
191
-30
178
863
1594
2574
3285
2897
1892
1405
1033
395
369
585
278
339
844
639
241
589
681
265
487
730
264
285
880
755
547
806
521
-63
99
173
-426
-369
17
-396
-640
-193
-215
-660
-474
-234
-675
-635
-172
-491
-718
-291
-302
-731
-413
-16
-341
-318
103
-58
-334
78
82
-419
-100
213
-115
-146
78
-157
-426
-109
-280
-1024
-1599
-2531
-2870
-1511
-129
-52
-278
-4
91
-101
94
199
-106
-97
116
26
-77
114
124
-121
43
139
-159
-61
207
-43
-91
287
184
-152
30
297
64
16
252
53
-30
164
49
-91
171
375
82
38
393
313
148
487
433
30
248
558
298
304
707
498
301
747
778
397
665
847
376
272
519
263
-178
85
161
-249
-27
143
-256
-226
142
-138
-309
209
297
12
225
681
1315
2588
3418
2982
2235
1692
1087
520
383
177
-253
-413
-260
-486
-929
-748
-594
-654
-348
-35
-216
-303
-99
-222
-288
-4
-91
-368
-233
-51
-272
-265
47
-117
-194
134
128
-129
255
610
271
393
783
525
381
705
562
333
702
687
249
402
750
464
190
584
714
274
404
724
342
285
678
426
65
267
209
-30
138
203
-101
-170
67
-76
-247
75
23
-446
-259
-54
-514
-668
-597
-959
-1008
-604
-609
-649
-154
50
-238
-190
22
-67
-166
35
64
-169
37
251
-88
-126
160
-143
-231
258
109
-296
24
251
-142
-94
440
223
-100
304
232
-33
330
482
53
-2
529
412
124
669
573
-18
346
622
119
-149
76
42
-146
-141
-73
-218
-89
80
-259
-217
25
-136
-175
277
392
198
562
1194
2195
3116
3311
2939
1950
1463
996
118
273
259
-452
-355
-64
-478
-568
-106
-254
-720
-434
-210
-653
-624
-264
-530
-657
-329
-427
-675
-470
-335
-715
-718
-353
-574
-979
-1013
-771
-495
-193
-74
-324
-306
15
-169
-329
42
40
-185
35
163
-52
105
440
190
145
517
417
210
459
563
224
186
432
271
42
310
204
-236
89
273
-92
-133
-49
-74
-117
-13
-26
-309
-233
28
-267
-324
100
-107
-264
85
-86
-405
-64
2
-359
-256
47
-75
-316
-38
-106
-441
-75
176
-139
-132
106
-187
-391
44
60
-284
-52
20
-373
-280
209
102
-16
272
195
-93
49
270
37
174
476
56
-53
362
354
115
268
383
-3
21
319
-66
-301
36
-171
-507
-161
-67
-369
-222
15
-311
-417
-23
83
-26
141
380
605
1608
2901
2971
2442
2031
1082
300
410
331
-225
-315
-71
-446
-740
-183
-122
-523
-349
-183
-452
-487
-184
-396
-476
83
-22
-333
-60
33
-177
-16
299
-31
-235
140
41
-239
48
134
-247
-139
238
-62
-185
192
-284
-467
265
247
-70
146
378
161
80
456
394
61
329
526
201
260
467
113
-64
202
198
-207
-322
-229
-544
-672
-333
-422
-558
-137
-114
-456
-209
95
-231
-170
83
-311
-266
100
-72
-217
-123
-144
-293
-225
7
-183
-291
48
-30
-200
83
108
-269
-159
135
-174
-278
88
11
-294
-161
13
-159
-45
185
-119
-189
136
-13
-164
258
283
-57
99
358
125
83
397
246
6
299
553
86
115
518
-102
-85
516
59
-383
10
151
-357
-338
-36
-317
-341
-62
-236
-305
58
157
8
170
385
457
1305
2879
3355
2939
2540
1635
821
649
587
67
-235
23
-262
-476
-146
-215
-433
-245
-91
-317
-339
-262
-426
-320
13
26
-382
-290
49
-293
-342
117
-62
-398
85
290
-215
-172
163
-97
-263
77
-55
-399
-7
142
-193
61
317
-19
-4
427
282
-52
309
532
235
387
610
264
109
386
334
106
179
64
-345
-365
79
58
-132
124
-13
-308
-72
39
-211
-87
111
-300
-293
157
-50
-308
-15
-12
-381
-218
113
-118
-274
34
-113
-401
-52
55
-273
-101
4
-369
-173
248
-71
-364
-16
-74
-472
-51
252
-185
-194
6
-174
-225
110
152
-258
-89
307
107
-3
116
9
-15
246
307
28
160
362
38
98
427
176
-77
-58
-138
-424
-370
21
-228
-454
-207
-275
-418
-152
-174
-462
-196
109
-24
35
378
631
1536
2847
3152
2754
2188
1458
790
391
224
-73
-294
-189
-204
-516
-493
-328
-595
-546
-194
-346
-598
-335
-188
-600
-525
-196
-558
-639
-234
-273
-474
-344
-412
-608
-312
-64
-395
-453
-99
-301
-517
-182
-152
-359
-169
114
-190
-458
166
245
-105
266
363
31
180
398
248
338
667
462
67
315
410
142
240
351
-66
-188
208
-7
-309
-18
-31
-477
-449
-43
-221
-397
-56
-244
-451
-253
-387
-441
-190
-90
-346
-466
-267
-285
-424
-188
-139
-458
-317
-51
-438
-808
-279
-7
-342
-171
-17
-545
-608
12
-209
-479
-118
-245
-493
-199
-92
-501
-359
-25
-288
-268
31
-122
-351
-60
140
-180
-82
174
-88
-62
41
-124
10
308
218
-87
94
95
-338
-233
-1
-296
-536
-439
-386
-453
-364
-188
-417
-529
-202
-250
-522
-188
310
-22
-23
951
1760
2388
2762
2409
1565
1070
696
12
-182
-90
-371
-480
-280
-470
-700
-400
-352
-698
-478
-202
-548
-624
-312
-486
-646
-248
-373
-873
-541
-176
-440
-474
-287
-464
-562
-204
-179
-515
-449
-230
-369
-317
28
-166
-372
-35
-8
-377
-112
338
88
-1
210
128
70
420
491
86
432
528
-104
176
645
270
-81
186
231
-146
-57
101
-186
-229
47
-86
-323
-70
-56
-376
-204
11
-354
-438
-76
-197
-543
-232
-56
-409
-281
-84
-404
-489
-62
-121
-402
-89
-96
-503
-308
-1
-273
-403
-61
-178
-462
-130
-80
-486
-464
-97
-112
-373
-172
-103
-362
-123
-54
-363
-209
-32
-288
-244
124
-47
-201
154
69
-213
71
233
-90
-14
333
187
68
304
286
-190
-148
285
-67
-308
-17
-295
-658
-271
-29
-395
-317
-49
-402
-494
-52
-139
-276
262
342
-11
646
2073
2815
3031
3088
2022
918
871
613
-161
-398
-64
-305
-511
-146
-361
-599
-407
-575
-616
-310
-198
-485
-528
-234
-435
-604
-426
-377
-515
-461
-268
-481
-607
-450
-539
-548
-161
-198
-524
-291
-177
-517
-453
-25
-208
-376
88
119
-235
-27
198
-17
79
437
257
58
454
474
139
382
532
111
101
322
186
103
178
64
-140
23
141
-201
-260
-22
-261
-427
-80
-23
-326
-232
-26
-414
-564
-13
-126
-497
-216
-280
-512
-306
-95
-285
-378
-46
-96
-257
6
-18
-377
-288
-58
-269
-284
-15
-163
-463
-277
-84
-306
-187
-13
-343
-514
-171
-153
-305
20
-8
-367
-85
217
-217
-181
268
54
-122
230
205
-176
38
363
209
180
437
372
-218
-86
442
66
-26
95
-282
-408
-160
-251
-453
-142
-60
-348
-166
-20
-325
-271
75
149
94
397
988
1699
2677
3278
2884
1968
1328
897
511
363
-77
-438
-231
-212
-538
-495
-183
-373
-570
-361
-406
-608
-306
-123
-493
-522
-241
-375
-597
-443
-363
-425
-211
-108
-451
-418
-69
-310
-451
-121
-168
-428
-140
81
-237
-222
106
-29
-251
87
304
-63
137
533
181
297
563
191
242
711
604
242
452
538
-24
-63
505
288
-107
245
116
-317
-39
117
-235
-201
23
-207
-313
-186
-269
-389
-122
20
-319
-300
-5
-305
-470
25
-60
-451
-201
-40
-338
-395
-233
-241
-190
4
-65
-355
-261
-160
-381
-218
97
-220
-415
-26
-173
-511
-108
26
-366
-289
-18
-301
-522
-113
-23
-252
52
215
-100
-225
83
94
-93
235
217
-112
150
350
3
13
312
11
-111
236
59
-363
-246
-63
-401
-452
-146
-406
-662
-275
-152
-474
-254
-24
-239
-148
88
62
314
1465
2513
2639
2523
2067
1174
743
603
69
-320
-222
-435
-740
-382
-221
-613
-570
-279
-538
-701
-512
-508
-596
-418
-312
-697
-679
-218
-452
-825
-405
-277
-833
-551
-121
-568
-561
-196
-430
-610
-252
-204
-562
-395
-7
-287
-435
-8
-122
-277
85
66
-55
228
351
73
95
417
237
140
510
395
10
250
434
6
1
254
-115
-318
50
-47
-460
-125
62
-389
-347
-102
-256
-302
-96
-199
-421
-128
-42
-533
-464
-66
-220
-307
41
-28
-302
283
691
648
1208
1638
1404
1309
1680
1858
1600
1651
1801
1472
1430
1456
979
834
972
504
-223
-211
-111
-698
-764
-407
-797
-1033
-620
-666
-1030
-815
-630
-917
-843
-384
-572
-906
-382
-200
-643
-537
-519
-927
-724
-315
-657
-882
-400
-369
-821
-595
-316
-578
-483
-148
-354
-516
-144
-154
-434
-269
-228
-365
-130
166
-92
-331
43
21
-296
16
105
-343
-236
123
-156
-263
81
-132
-446
-128
52
-351
-413
-53
-164
-303
13
-136
-588
-272
-5
-267
-199
42
-241
-461
-142
-150
-348
-95
-79
-441
-245
10
-337
-347
46
-95
-405
-228
-112
-426
-368
3
-251
-411
-168
-219
-332
-210
-219
-421
-275
-31
-329
-514
-124
-227
-549
-149
-99
-500
-303
-26
-309
-381
-26
-144
-442
-197
-73
-439
-365
40
-191
-418
-80
-298
-676
-95
94
-449
-319
66
-247
-450
-33
-70
-390
-152
-96
-439
-314
-20
-254
-358
-54
-148
-448
-173
5
-380
-322
-101
-357
-337
-98
-177
-250
-58
19
-274
-242
69
-217
-410
-39
-80
-349
-78
52
-234
-127
215
-34
-206
274
187
-103
274
358
85
200
384
191
97
386
266
-76
281
312
-238
-243
-40
-282
-410
-34
-83
-479
-219
55
-330
-311
210
86
-47
451
900
1633
2974
3514
2883
2168
1585
802
370
513
105
-391
-282
-320
-641
-466
-13
-435
-612
-101
-339
-682
-337
-149
-475
-490
-199
-429
-566
-182
-300
-631
-382
-276
-504
-415
-216
-356
-444
-76
-125
-527
-122
117
-320
-276
82
-47
-167
221
188
-108
254
466
84
219
634
354
184
591
619
362
606
628
319
597
882
476
263
633
490
85
306
432
1
-31
268
5
-143
121
89
-185
-23
191
-202
-178
156
-147
-335
72
79
-302
-47
152
-256
-184
243
-89
-322
165
153
-274
-43
145
-215
-93
152
-207
-236
148
-47
-309
-19
86
-201
-261
50
39
-91
185
118
-123
205
359
-40
97
386
36
65
443
246
-66
208
323
-14
-193
-73
-279
-530
-202
-304
-583
-281
-177
-533
-384
-129
-510
-454
116
18
-322
68
722
1307
2217
2868
2385
1483
1148
662
-97
-76
-46
-501
-510
-356
-609
-689
-398
-490
-728
-439
-370
-742
-553
-214
-554
-668
-265
-379
-722
-506
-366
-576
-473
-205
-442
-716
-340
-332
-565
-189
-152
-557
-378
-76
-424
-435
56
-56
-344
-9
205
-141
-131
203
171
105
368
357
44
340
487
0
106
449
84
-45
329
143
-262
-51
75
-324
-285
49
-231
-477
-152
-185
-481
-104
-100
-659
-336
21
-451
-510
-48
-164
-488
-299
-164
-382
-316
-18
-352
-592
-106
-183
-420
-66
-47
-450
-381
-7
-271
-437
-28
-134
-419
-201
-244
-483
-217
71
-228
-396
-77
-166
-458
-95
3
-348
-116
188
-10
-150
157
-16
-308
208
369
-58
77
460
153
-34
335
252
-142
-31
33
-384
-338
-15
-380
-496
-115
-400
-633
-213
-136
-403
-240
112
16
-100
290
560
1227
2630
3000
2361
1890
1398
625
198
277
-42
-481
-313
-224
-584
-588
-298
-523
-776
-357
-302
-659
-341
-222
-627
-598
-260
-426
-622
-316
-360
-667
-404
-214
-568
-527
-280
-508
-549
-232
-255
-536
-282
-66
-407
-246
117
-199
-240
220
48
-204
191
278
0
200
469
224
115
517
480
71
316
469
77
135
435
140
-60
290
141
-248
-39
56
-267
-146
151
-134
-287
-18
-104
-344
-60
86
-323
-207
131
-270
-363
61
-114
-412
-89
67
-397
-352
24
-268
-421
-131
-119
-294
-125
-60
-324
-326
-83
-207
-309
36
-133
-424
-207
-245
-435
-150
100
-254
-352
39
-63
-248
99
143
-228
-50
271
-8
-45
354
256
-8
279
367
-34
19
269
-49
-311
-45
-196
-527
-290
-215
-456
-296
-55
-330
-419
-71
-169
-383
122
273
-174
128
1232
2228
2833
3213
2607
1235
1013
1044
136
-100
-28
-449
-435
-170
-353
-641
-475
-318
-474
-433
-251
-518
-739
-352
-321
-649
-391
-255
-554
-438
-237
-447
-535
-239
-285
-540
-254
-90
-295
-197
40
-140
-302
52
99
-150
158
284
-62
97
382
162
144
432
309
45
286
426
190
375
643
299
133
456
253
-129
150
241
-178
-177
-1
-249
-325
-60
-171
-497
-329
-180
-414
-294
-53
-315
-391
-72
-207
-454
-188
-54
-338
-237
20
-371
-362
162
-48
-361
-85
3
-230
-242
-46
-180
-294
94
24
-312
-116
-43
-278
-172
73
-193
-283
28
-149
-316
121
219
-206
-4
312
-78
-96
292
-25
-245
284
405
21
83
320
49
-41
207
-24
-267
-112
-173
-552
-379
-22
-354
-481
-139
-293
-671
-283
-14
-349
-133
271
-46
-92
836
1777
2394
2893
2634
1514
990
791
163
-89
11
-157
-552
-374
-207
-577
-483
-200
-501
-584
-243
-395
-653
-391
-253
-509
-415
-145
-396
-551
-212
-287
-601
-342
-219
-487
-279
35
-344
-478
-25
-105
-422
-89
61
-285
-106
230
10
-94
204
96
-109
328
468
154
342
623
367
256
565
496
223
462
510
73
172
399
86
-58
258
128
-296
55
211
-354
-267
110
-188
-201
140
-64
-287
18
105
-250
-149
129
-177
-245
139
20
-297
-93
86
-182
-317
-6
76
-238
-22
144
-179
37
150
-258
-134
207
-108
-211
198
3
-336
-28
92
-254
-246
104
16
-50
320
181
-111
240
467
20
-15
465
287
129
473
386
150
431
509
53
86
365
-21
-255
47
15
-293
-93
-17
-366
-200
117
-170
-373
53
105
-61
347
330
-45
776
2371
2830
2662
2750
1870
752
706
563
-78
-225
2
-234
-481
-194
-279
-601
-300
-174
-523
-355
-75
-418
-515
-176
-230
-571
-405
-135
-433
-385
-19
-424
-562
-47
-212
-459
-138
-36
-323
-272
21
-166
-228
163
62
-269
89
278
-128
33
445
272
164
400
422
256
449
633
357
385
699
406
187
543
462
26
186
448
59
-48
251
61
-182
94
122
-391
-173
253
-204
-245
182
-89
-284
99
33
-328
-86
136
-264
-329
34
-100
-229
47
-27
-270
-5
222
-104
-145
166
-133
-327
112
86
-232
116
198
-453
-281
261
-8
-172
139
123
-189
-13
238
-17
89
394
126
-8
198
224
117
312
481
189
149
443
287
166
570
428
-14
187
176
-397
-448
-146
-486
-653
-246
-352
-673
-404
-211
-524
-474
-83
-288
-323
230
194
263
1599
2905
2954
2689
2283
1202
578
592
121
-401
-303
-294
-596
-531
-322
-580
-699
-394
-460
-763
-530
-296
-611
-604
-309
-566
-645
-337
-530
-699
-383
-289
-564
-663
-422
-420
-563
-217
-193
-573
-327
-149
-407
-253
60
-133
-242
152
126
-134
204
409
119
158
304
241
304
522
595
362
458
672
361
303
527
278
98
365
321
-25
125
265
-37
25
285
20
-172
165
167
-140
43
220
-70
-106
208
40
-59
259
131
-133
102
272
5
18
289
86
-8
333
213
-54
211
358
107
18
221
157
34
377
357
0
259
417
34
71
419
262
150
511
468
211
477
657
416
486
797
574
350
787
893
578
755
933
602
552
825
527
236
509
457
145
366
544
211
292
487
95
192
780
706
484
905
1078
888
1425
2751
3502
3425
3428
2656
1532
1353
1159
487
260
385
20
-193
204
149
-251
-103
89
-166
-190
138
-178
-495
-86
-69
-469
-303
-23
-310
-286
-5
-265
-441
-116
-138
-473
-251
-2
-375
-379
0
-237
-397
-60
-40
-347
-183
91
-94
-1
313
111
-6
361
331
42
359
530
95
210
632
306
44
373
241
-172
26
221
-134
-202
45
-192
-380
-126
-180
-446
-197
3
-362
-509
-131
-195
-484
-214
-176
-484
-291
-150
-475
-438
-40
-157
-369
103
401
412
956
1399
1266
1352
1655
1543
1492
1805
1678
1294
1586
1728
1081
951
1160
629
58
-17
-186
-559
-631
-507
-793
-873
-557
-794
-945
-561
-621
-1004
-847
-545
-785
-718
-305
-599
-887
-483
-547
-1025
-822
-639
-965
-934
-509
-594
-817
-544
-482
-781
-601
-325
-586
-567
-283
-432
-685
-426
-160
-421
-275
20
-398
-522
-80
-199
-376
-44
-143
-445
-198
-108
-410
-330
-23
-245
-497
-176
-168
-475
-337
-209
-444
-424
-144
-330
-490
-269
-351
-537
-327
-218
-486
-485
-329
-466
-485
-177
-225
-524
-416
-330
-455
-390
-149
-290
-533
-281
-241
-499
-338
-142
-488
-579
-181
-345
-594
-158
-147
-667
-481
-88
-355
-564
-168
-301
-634
-176
-144
-555
-375
-165
-504
-564
-179
-309
-509
-195
-245
-505
-305
-165
-377
-458
-150
-204
-474
-312
-239
-461
-313
28
-310
-384
19
-291
-549
-122
-65
-423
-303
-10
-253
-361
-9
-134
-328
-44
-47
-347
-403
-157
-117
-98
195
13
-216
-6
-39
-214
1
217
-39
-17
298
162
28
271
335
101
300
581
312
268
599
480
227
491
514
124
208
397
63
-69
167
-49
-215
133
202
-82
-34
223
77
63
622
577
199
839
1820
2668
3466
3642
2788
1785
1388
822
409
563
360
-155
-48
128
-272
-249
116
-88
-288
-35
19
-224
-173
86
-194
-274
180
-83
-425
-5
103
-223
-31
207
-99
-164
198
51
-212
180
201
-219
85
411
-76
-169
373
421
268
504
492
169
428
757
501
512
808
709
585
865
969
681
686
859
669
618
974
845
431
602
758
445
467
646
330
217
454
316
92
284
352
52
126
397
28
-78
411
284
-17
259
304
-39
-9
267
87
-55
372
265
-188
190
318
-127
112
404
-11
-71
349
178
-119
204
283
-83
48
304
70
40
282
176
31
218
323
84
90
434
351
265
586
492
213
428
437
105
194
289
-44
-121
119
-92
-390
-93
23
-335
-202
96
-440
-564
83
58
-96
297
272
117
1186
2620
2977
2973
2704
1572
819
850
558
-140
-238
-68
-424
-527
-233
-330
-590
-371
-278
-582
-442
-184
-511
-662
-257
-324
-649
-345
-182
-495
-469
-217
-366
-541
-327
-381
-594
-350
-211
-515
-446
-124
-367
-451
-58
-102
-349
0
149
-250
-115
225
37
-146
134
311
30
162
396
6
80
425
44
-29
212
-67
-271
16
88
-338
-320
-16
-308
-512
-179
-282
-529
-345
-373
-512
-396
-246
-460
-628
-290
-266
-566
-389
-298
-549
-405
-161
-477
-618
-222
-297
-616
-390
-217
-550
-499
-185
-465
-603
-240
-329
-673
-398
-258
-615
-639
-391
-424
-520
-238
-334
-673
-283
-101
-421
-277
1
-265
-390
-63
-81
-297
-75
84
-295
-198
196
-61
-206
-48
-298
-389
-71
-170
-531
-545
-359
-611
-814
-426
-461
-776
-483
-352
-669
-523
-85
-246
-408
21
356
1000
2295
2875
2280
1570
998
306
-60
-25
-368
-730
-562
-595
-858
-755
-612
-890
-868
-507
-581
-864
-680
-535
-1006
-910
-505
-772
-874
-563
-592
-971
-846
-535
-759
-740
-472
-671
-746
-455
-670
-953
-460
-303
-675
-507
-196
-403
-492
-144
-257
-512
-110
56
-259
-143
81
-96
-100
176
101
-82
131
99
-290
-216
55
-190
-488
-269
-123
-472
-396
-161
-590
-563
-199
-505
-623
-307
-481
-754
-430
-335
-656
-549
-480
-817
-704
-263
-345
-656
-489
-343
-615
-634
-344
-460
-630
-344
-358
-653
-444
-320
-687
-579
-323
-622
-682
-328
-386
-638
-411
-293
-687
-639
-215
-496
-673
-213
-285
-613
-283
-77
-401
-428
-172
-248
-347
22
65
-283
-55
134
-220
-287
7
-108
-351
-194
-316
-672
-643
-642
-781
-557
-259
-549
-826
-537
-394
-547
-324
100
-93
-231
406
1199
2208
3065
2918
1982
1231
839
1
-259
63
-476
-763
-354
-464
-879
-679
-462
-792
-758
-446
-646
-823
-504
-532
-905
-734
-516
-703
-686
-419
-570
-764
-455
-491
-762
-480
-327
-647
-706
-499
-476
-529
-253
-174
-507
-313
-94
-398
-290
107
-77
-265
111
156
-121
143
352
77
85
388
198
-63
147
210
-38
4
167
-122
-218
55
-149
-339
-105
-214
-490
-236
-42
-367
-357
-203
-441
-470
-175
-260
-626
-350
-34
-445
-465
-10
-220
-529
-176
-68
-467
-301
-47
-395
-379
-42
-236
-431
-99
-92
-548
-357
10
-364
-349
-5
-396
-567
-21
18
-396
-214
24
-303
-310
100
-43
-218
113
78
-203
61
281
9
19
353
155
-124
243
322
-41
136
105
-449
-346
-57
-362
-550
-183
-146
-706
-457
-72
-538
-382
88
-118
-159
258
279
403
1736
3048
3060
2735
2256
1178
605
625
161
-276
-197
-100
-446
-800
-333
-297
-662
-298
-310
-718
-470
-240
-560
-547
-224
-414
-625
-318
-383
-719
-382
-104
-466
-502
-199
-382
-548
-188
-160
-591
-356
66
-285
-378
57
-62
-362
-27
180
-127
46
372
83
88
467
296
108
451
505
158
186
456
259
110
339
133
-80
230
166
-266
-68
126
-245
-284
-5
-141
-372
-132
-81
-383
-160
43
-375
-366
-11
-171
-334
-144
-120
-464
-318
88
-228
-334
31
-132
-374
-73
-66
-402
-205
63
-284
-397
16
-241
-582
-48
53
-393
-211
-4
-410
-403
60
-71
-319
-12
112
-291
-256
204
22
-92
247
80
-147
190
297
-34
81
343
6
-176
213
71
-333
-147
-140
-512
-637
-357
-345
-470
-180
-309
-564
-274
-247
-369
67
334
-40
145
1341
2375
2632
2606
2114
1102
777
678
0
-285
-105
-356
-674
-511
-490
-714
-538
-331
-599
-823
-648
-534
-653
-384
-277
-673
-562
-295
-553
-640
-318
-451
-794
-444
-264
-730
-588
-144
-583
-814
-145
-130
-500
-170
-89
-424
-249
-23
-180
-165
101
69
-192
100
338
34
252
571
216
107
452
311
-47
188
273
-73
6
157
-182
-382
3
-5
-414
-62
86
-392
-293
46
-254
-399
-50
-219
-517
-209
-126
-505
-344
10
-250
-368
54
115
-59
291
575
603
1084
1617
1474
1357
1828
1893
1558
1839
1961
1523
1613
1775
1247
1151
1475
963
163
24
42
-406
-580
-376
-630
-840
-552
-581
-777
-489
-467
-790
-636
-316
-575
-598
-97
-276
-553
-292
-403
-784
-590
-333
-606
-671
-432
-520
-607
-269
-302
-636
-316
-110
-398
-355
-40
-269
-480
31
150
-212
-146
43
-92
-76
197
70
-159
125
194
-230
-137
270
15
-116
265
108
-178
87
108
-194
-51
224
-4
-158
199
0
-462
-39
186
-165
-35
244
-19
-145
109
20
-137
129
204
-105
-39
189
-149
-257
211
114
-183
138
206
-226
-52
306
-59
-142
256
110
-168
-89
102
58
76
298
25
-80
262
105
-112
146
189
-79
78
242
-129
-77
363
231
-76
162
234
-80
110
400
111
-27
357
195
-132
280
378
45
177
472
167
-38
376
299
27
338
422
43
129
482
24
-131
568
453
72
389
458
104
133
431
312
214
481
305
79
454
520
184
306
565
387
336
596
490
344
674
770
377
525
930
629
401
823
883
517
793
939
473
549
801
394
151
434
304
-8
284
255
-16
274
493
298
217
564
679
486
765
1313
2008
3234
3963
3521
2722
2014
1323
863
850
712
101
-139
241
100
-143
207
174
-145
31
136
-187
-91
198
-63
-188
41
0
-137
101
257
-93
-77
257
21
-160
158
119
-125
199
324
-54
56
403
182
-21
360
444
224
479
618
303
421
749
386
369
908
754
450
821
988
668
738
1006
817
633
946
979
564
593
802
576
596
749
382
318
611
451
105
307
472
109
141
410
179
4
228
240
62
300
403
8
112
463
84
-82
356
301
11
239
336
-37
-21
150
26
103
323
215
-67
97
230
-85
-31
247
6
-123
277
228
-66
163
212
38
154
343
206
118
497
461
158
415
503
95
207
512
11
-309
-37
-61
-235
-212
-166
-309
-220
63
-194
-373
-3
-42
-278
184
385
-68
422
1810
2649
2720
2781
2269
1092
870
755
13
-113
47
-285
-418
-147
-274
-530
-429
-366
-463
-362
-147
-362
-555
-242
-224
-551
-334
-112
-424
-420
-133
-313
-558
-249
-150
-466
-199
-9
-436
-309
-4
-280
-356
31
65
-262
-34
174
-127
-9
320
143
90
449
357
56
344
482
153
162
440
341
280
645
528
164
369
486
193
253
511
182
-87
278
275
-27
167
196
-37
99
343
11
-207
296
240
-50
95
109
58
55
244
130
-86
177
192
-41
98
259
-10
9
345
107
-123
220
244
-98
111
212
-177
0
343
44
-103
199
113
-133
144
307
-6
99
486
237
-4
368
419
96
363
560
145
301
737
359
219
728
588
148
469
619
52
-21
258
-111
-240
176
-6
-274
104
181
-213
-106
240
73
125
605
534
161
887
2410
3018
3084
3068
2073
945
854
724
112
152
201
-256
-259
-178
-348
-247
19
-97
-361
-172
4
-311
-396
-71
-151
-339
-66
-84
-403
-150
43
-275
-222
33
-235
-367
-3
-20
-262
18
139
-195
-78
289
58
-112
281
346
-108
148
664
330
301
672
436
274
724
710
347
611
727
333
438
711
347
199
599
466
48
257
386
53
35
340
149
-55
287
183
-67
172
258
12
54
390
149
-114
266
128
-178
264
329
-57
147
443
83
-11
416
309
-27
205
397
21
-86
265
274
131
349
304
-11
217
367
30
99
402
210
25
326
330
3
342
640
233
230
578
417
229
587
641
313
611
882
569
516
797
558
336
712
541
-21
123
362
57
22
293
143
-18
277
259
-116
189
472
132
358
823
650
899
2270
3403
3469
3373
2764
1487
1036
1064
476
100
337
195
-243
-57
171
-170
-180
118
-123
-285
97
50
-364
-127
132
-197
-220
121
-10
-264
93
143
-211
-28
51
-241
-134
253
83
-140
214
215
-85
118
287
75
165
440
307
198
412
510
319
450
696
394
432
828
662
446
631
656
374
492
665
234
199
553
218
-35
321
292
-57
-2
202
18
-1
187
-9
-91
178
124
-200
9
189
-109
-63
257
10
-271
91
234
-102
-12
237
-51
-98
265
107
-102
249
256
-105
25
228
-10
-111
120
26
-101
262
195
-128
131
141
-153
75
401
247
53
262
366
180
362
575
220
199
610
408
204
622
654
276
496
613
47
162
517
61
-160
108
71
-202
-15
160
-91
-10
234
58
-27
353
455
325
641
1187
1893
2917
3453
2999
2115
1524
1035
439
410
363
-176
-258
5
-208
-324
71
4
-397
-181
64
-240
-289
67
-105
-308
21
-14
-336
-118
119
-199
-173
62
-196
-168
203
86
-166
48
213
-29
-42
305
213
-24
279
358
170
403
550
392
517
789
626
412
762
847
492
704
896
578
571
781
548
426
574
374
267
547
545
171
198
411
238
110
368
385
57
196
423
75
-13
378
241
-64
274
385
9
50
270
106
37
394
312
26
311
369
94
223
400
150
87
423
340
110
420
422
13
256
538
34
-2
514
312
99
426
435
118
306
659
346
240
628
465
196
594
734
365
459
783
646
548
823
614
327
689
606
45
177
416
33
-186
131
222
14
218
219
-131
158
461
187
403
747
515
646
1738
2978
3324
3335
2956
1665
1001
1082
546
96
266
132
-300
-200
99
-253
-363
64
-86
-265
57
10
-330
-173
2
-253
-214
112
-113
-325
24
82
-302
-226
140
-109
-181
183
-128
-307
188
187
-113
44
166
75
183
418
314
154
440
458
185
496
780
452
487
800
619
507
739
665
415
496
540
319
353
582
326
-14
321
433
-21
135
359
26
14
211
39
-59
252
207
-107
101
268
-28
-46
139
54
14
163
201
-46
89
410
110
-2
406
407
292
670
900
1002
1515
2086
2110
2166
2494
2213
1995
2440
2457
1960
2044
2168
1635
1608
1980
1507
742
560
376
-103
-134
12
-352
-525
-239
-343
-543
-274
-237
-444
-282
-285
-654
-582
-286
-524
-769
-442
-358
-676
-512
-241
-549
-614
-312
-592
-698
-226
-256
-592
-422
-201
-492
-478
-97
-290
-462
-226
-222
-352
-174
-20
-301
-244
-73
-342
-315
-15
25
-245
-156
63
-231
-265
66
-71
-265
46
81
-294
-256
98
-15
-229
95
-30
-520
-63
235
-207
-50
249
-136
-197
169
-27
-214
160
245
-105
33
215
-129
-62
283
95
-136
203
265
-241
-75
350
76
11
301
194
16
52
120
32
146
352
30
-100
198
204
23
225
311
-43
79
307
-2
0
360
254
-6
287
272
-157
153
424
81
-83
193
222
6
310
424
73
194
409
127
82
411
253
22
380
427
74
143
340
168
46
274
273
87
308
383
123
184
342
283
299
506
421
250
497
558
390
531
720
529
432
763
688
404
661
531
172
485
596
174
61
291
42
-276
132
283
-209
-114
306
44
-34
476
482
185
411
987
1771
2763
3309
2848
1944
1437
961
298
277
273
-229
-186
66
-311
-422
-72
-284
-540
-157
-111
-531
-397
-42
-238
-335
-28
-195
-499
-221
-138
-446
-302
-70
-352
-461
-92
-85
-418
-190
-60
-310
-108
123
-57
-197
58
113
-209
3
336
80
114
488
268
114
545
458
135
511
646
233
356
654
398
257
690
645
190
471
502
105
226
418
138
-66
214
202
-94
159
300
-67
-2
211
-115
-174
167
-85
-255
141
151
-253
-150
253
-6
-133
197
-100
-379
111
227
-183
-52
206
-72
-183
91
-28
-342
-33
207
-191
-198
131
-186
-293
163
-8
-168
236
292
-91
-69
339
221
16
313
182
-79
384
537
119
173
358
19
-54
179
-116
-429
-194
-110
-457
-484
-147
-302
-471
-116
-170
-460
-154
128
-71
36
416
771
1767
2972
2987
2224
1633
988
286
66
129
-197
-413
-215
-429
-743
-362
-256
-708
-565
-309
-643
-616
-315
-485
-628
-365
-292
-594
-518
-279
-472
-539
-283
-440
-601
-302
-300
-553
-391
-122
-440
-515
16
-57
-367
-72
34
-338
-193
219
-13
-122
175
175
-42
205
462
28
184
668
329
75
340
365
46
164
305
-97
-98
95
-254
-241
80
-121
-381
-151
-88
-422
-327
-67
-328
-525
-177
-156
-392
-260
-165
-323
-304
-104
-324
-421
-14
-112
-410
-116
-44
-396
-289
-15
-316
-425
-156
-302
-450
-148
-74
-392
-345
-139
-405
-477
-123
-255
-450
-220
-175
-402
-221
89
-257
-331
105
-7
-297
28
169
-146
23
343
86
-61
210
123
-225
-13
107
-384
-476
-239
-397
-505
-279
-314
-686
-600
-236
-434
-398
-62
-229
-176
220
154
307
1617
2792
2774
2666
2309
1230
676
558
-1
-371
-110
-244
-742
-612
-296
-592
-842
-506
-552
-826
-587
-485
-724
-608
-345
-656
-782
-357
-373
-785
-636
-395
-701
-563
-243
-550
-683
-341
-449
-825
-503
-254
-561
-463
-159
-435
-505
-121
-274
-466
-72
-14
-339
-213
-15
-43
-116
10
150
-149
4
275
-150
-138
141
-189
-325
-17
-171
-545
-286
-154
-568
-525
-231
-568
-716
-261
-384
-652
-388
-535
-766
-452
-219
-500
-667
-362
-472
-713
-362
-256
-584
-481
-243
-502
-652
-319
-359
-648
-386
-264
-556
-596
-446
-459
-566
-296
-365
-791
-422
-216
-587
-452
-225
-466
-429
-69
-198
-451
-199
-73
-326
-324
-49
-85
-140
163
-44
-386
16
100
-293
-298
-157
-432
-616
-358
-417
-648
-546
-565
-725
-531
-348
-636
-668
-258
-221
-419
-154
197
549
1861
2968
2527
1877
1512
754
89
50
-16
-528
-679
-448
-641
-821
-575
-624
-880
-673
-608
-910
-770
-481
-749
-860
-566
-770
-900
-498
-450
-803
-672
-470
-963
-907
-305
-466
-760
-480
-408
-744
-605
-239
-481
-680
-288
-248
-530
-270
-137
-425
-264
64
-154
-297
80
134
-157
79
327
-58
-101
231
-54
-308
20
-37
-403
-225
-150
-485
-404
-158
-392
-574
-295
-359
-617
-317
-190
-540
-472
-236
-499
-647
-374
-315
-410
-223
-281
-495
-319
-78
-316
-450
-107
-276
-582
-243
-42
-451
-524
-105
-258
-443
-52
-243
-655
-277
-19
-298
-318
-97
-272
-409
-79
-115
-367
-30
118
-318
-188
259
15
-150
188
152
-65
208
295
-34
143
459
42
-131
289
149
-293
-209
-166
-461
-328
-56
-321
-446
-133
-206
-523
-240
18
-424
-226
490
222
219
1479
2387
2553
2889
2502
1230
687
675
133
-298
-93
-163
-523
-357
-212
-604
-628
-276
-448
-579
-302
-478
-702
-292
-137
-475
-464
-200
-398
-556
-243
-297
-568
-312
-165
-461
-379
-144
-392
-498
-125
-93
-399
-155
76
-289
-190
274
20
-111
360
328
71
276
428
227
274
532
350
280
561
441
122
338
511
108
89
367
71
-80
240
135
-221
5
193
-198
-358
61
198
52
226
221
82
190
271
71
123
421
224
93
404
282
-11
274
424
103
122
364
186
62
344
293
-22
195
359
14
103
305
-29
25
381
222
-27
161
306
84
78
336
153
-42
375
427
83
317
494
161
225
444
216
274
646
528
220
473
691
352
320
540
177
-36
232
88
-202
-37
69
-170
-112
89
-189
-248
100
38
37
528
631
282
637
1989
2902
2903
2970
2337
1118
848
718
103
-115
54
-155
-421
-150
-152
-474
-312
-128
-510
-600
-153
-333
-576
-236
-279
-567
-276
-152
-499
-360
-121
-380
-453
-117
-171
-446
-224
-59
-355
-312
37
-216
-382
64
32
-245
73
257
-18
46
341
60
-29
567
475
119
526
564
162
368
677
375
201
504
384
30
177
293
11
-48
92
-96
-78
186
43
-206
-80
62
-236
-271
21
-148
-242
5
-54
-332
-159
78
-255
-297
71
-114
-286
48
-21
-299
-44
53
-205
-83
140
-215
-391
98
90
-213
22
127
-260
-189
158
-138
-258
112
76
-238
-7
208
-131
-85
237
74
-48
234
272
-22
80
359
160
172
496
311
280
685
501
191
399
481
214
54
170
-25
-232
55
36
-273
-81
116
-169
-98
181
-121
-244
300
567
305
510
1278
2145
3186
3733
3212
2209
1567
1192
630
444
374
-178
-301
1
-155
-472
-244
-142
-444
-170
3
-382
-337
-12
-192
-411
-134
-85
-373
-222
-37
-350
-299
26
-282
-405
49
4
-357
-147
153
-76
-113
172
-4
-123
229
191
-59
175
354
195
291
514
384
334
639
587
363
518
465
387
520
552
413
185
303
364
94
184
271
-48
46
271
-86
-284
125
178
-173
-100
82
-72
-100
142
0
-240
64
57
-310
-44
151
-132
-105
190
-42
-384
69
175
-203
12
182
-158
-314
85
47
-224
95
100
-229
-50
96
-193
-155
93
-130
-234
90
20
-258
-101
50
-128
-61
117
-52
-58
243
127
-71
203
255
20
142
396
233
78
309
280
-81
-15
126
-268
-334
-74
-404
-654
-291
-197
-511
-355
-220
-553
-438
-13
-99
-171
204
191
115
1228
2667
2868
2634
2303
1201
464
485
157
-362
-297
-271
-697
-694
-318
-493
-713
-431
-584
-831
-482
-333
-598
-590
-287
-554
-829
-394
-379
-726
-493
-294
-599
-615
-383
-594
-671
-315
-313
-617
-393
-223
-615
-465
-54
-248
-377
-45
-117
-428
-84
160
-88
-13
281
94
-32
309
270
-47
262
380
-284
-247
303
101
-181
27
-46
-382
-212
-85
-396
-408
-200
-369
-549
-292
-246
-549
-417
-216
-558
-601
-298
-469
-540
-208
-270
-613
-383
-209
-525
-463
-155
-286
-381
22
147
74
591
1132
1075
1231
1669
1427
1247
1663
1669
1401
1443
1530
1259
1142
1368
1001
493
369
-71
-545
-494
-521
-932
-941
-634
-856
-1006
-683
-722
-1012
-837
-754
-1022
-877
-462
-582
-789
-553
-694
-1112
-949
-678
-976
-973
-622
-864
-1038
-641
-624
-950
-741
-498
-763
-747
-424
-576
-704
-352
-342
-725
-470
-230
-648
-552
-118
-313
-561
-281
-199
-579
-426
-146
-455
-424
-135
-363
-558
-292
-298
-563
-428
-294
-517
-528
-325
-515
-608
-289
-410
-648
-408
-260
-505
-556
-262
-402
-580
-284
-350
-618
-423
-349
-583
-525
-265
-434
-626
-344
-357
-670
-472
-307
-602
-562
-201
-374
-614
-273
-456
-816
-428
-236
-570
-578
-250
-458
-741
-425
-367
-636
-451
-284
-543
-550
-242
-419
-693
-364
-287
-604
-457
-245
-553
-649
-236
-412
-721
-257
-231
-636
-400
-175
-545
-642
-252
-386
-663
-322
-297
-629
-473
-309
-524
-477
-255
-452
-588
-353
-335
-558
-417
-263
-491
-471
-261
-425
-580
-293
-276
-569
-351
-163
-472
-421
-90
-310
-396
-30
-66
-282
-89
65
-201
-161
208
87
-91
174
150
-98
56
165
-120
-143
166
-120
-460
-184
-200
-552
-342
-106
-421
-415
-104
-282
-371
28
168
27
230
778
1589
2736
3391
3071
2185
1511
1041
307
71
65
-352
-432
-251
-569
-713
-302
-315
-625
-433
-278
-567
-552
-248
-394
-591
-237
-271
-642
-406
-240
-543
-581
-230
-323
-605
-322
-251
-524
-341
-115
-378
-442
-101
-190
-348
23
25
-255
34
247
8
54
337
200
75
396
388
111
434
726
413
376
738
624
315
578
642
291
399
553
236
205
469
183
-45
265
203
-125
33
174
-125
-120
165
-22
-281
-119
-48
-213
-32
206
-94
-211
86
-54
-267
35
26
-315
-124
56
-238
-240
57
-106
-315
-22
27
-417
-475
-405
-783
-817
-574
-785
-1045
-807
-666
-930
-714
-489
-887
-884
-531
-690
-906
-619
-555
-960
-732
-366
-744
-779
-440
-664
-999
-822
-763
-1146
-1083
-919
-1286
-1298
-1031
-1296
-1391
-987
-1043
-1425
-1232
-922
-1043
-867
-551
-686
-298
1111
2074
1963
1733
1058
-30
-298
-329
-887
-1178
-983
-1073
-1469
-1351
-1194
-1442
-1360
-1146
-1325
-1433
-1129
-1197
-1455
-1148
-936
-1228
-1138
-810
-1042
-1234
-920
-831
-1068
-788
-485
-724
-622
-283
-432
-498
-191
-206
-421
-220
20
-245
-209
217
31
-131
270
268
-24
248
451
180
165
499
439
211
475
435
84
281
435
82
43
304
-79
-254
141
78
-219
-77
78
-238
-211
47
-199
-292
37
-5
-325
-115
162
-185
-271
110
-55
-359
9
118
-356
-188
150
-141
-159
158
-42
-320
-24
78
-207
-95
93
-155
-263
24
-45
-281
-45
18
-240
-130
30
-234
-209
100
-147
-264
153
127
-162
134
319
-38
-5
324
146
-40
354
395
-48
176
470
79
92
394
32
-168
94
-115
-461
-365
-221
-345
-341
-61
-223
-529
-248
-152
-418
-83
332
44
38
641
1416
2448
3063
2820
1939
1032
666
299
-2
13
-249
-517
-334
-333
-674
-527
-258
-580
-617
-320
-548
-696
-361
-377
-675
-483
-315
-603
-560
-308
-476
-592
-305
-277
-612
-431
-160
-491
-452
-147
-404
-510
-176
-179
-393
-169
38
-199
-201
69
-75
-98
206
153
-21
196
345
18
-102
266
269
57
302
248
-150
37
199
-212
-227
62
-177
-446
-159
-110
-477
-282
-69
-443
-438
-137
-309
-517
-328
-264
-494
-309
-124
-463
-453
-158
-320
-516
-257
-213
-554
-355
-85
-430
-477
-170
-315
-569
-272
-210
-557
-352
-169
-477
-487
-225
-394
-582
-218
-244
-628
-301
-114
-528
-465
-138
-357
-449
-50
-106
-445
-201
29
-249
-257
45
-106
-219
123
98
-129
57
166
-74
-78
104
-188
-443
-213
-290
-603
-381
-316
-627
-448
-239
-564
-631
-204
-266
-439
122
305
-78
381
1598
2481
2805
2875
2062
834
596
426
-269
-369
-195
-498
-645
-396
-444
-733
-561
-447
-751
-669
-362
-562
-774
-492
-462
-836
-640
-343
-671
-690
-362
-541
-731
-394
-323
-651
-507
-349
-681
-597
-195
-375
-555
-227
-163
-380
-169
-11
-282
-157
155
-35
-160
168
232
-53
153
368
107
111
308
135
-14
213
90
-276
-85
89
-209
-251
-1
-237
-476
-160
-205
-523
-299
-117
-472
-515
-147
-346
-606
-293
-248
-527
-361
-226
-570
-551
-145
-289
-493
-134
-58
-297
-18
404
511
973
1643
1645
1576
1944
1956
1645
1823
2047
1641
1465
1695
1390
1115
1302
937
66
-228
-127
-534
-763
-526
-787
-961
-713
-803
-1014
-865
-739
-983
-914
-638
-803
-871
-605
-636
-1001
-1044
-945
-1182
-1115
-781
-998
-1181
-912
-915
-1147
-941
-721
-1076
-1073
-632
-788
-1001
-644
-595
-904
-686
-432
-731
-728
-372
-558
-733
-393
-422
-719
-457
-288
-645
-569
-302
-546
-607
-411
-514
-635
-424
-344
-645
-652
-398
-563
-707
-405
-436
-757
-550
-372
-702
-687
-394
-577
-730
-419
-433
-853
-706
-401
-683
-699
-394
-607
-795
-496
-502
-766
-567
-456
-751
-724
-440
-608
-780
-515
-646
-876
-542
-423
-718
-688
-467
-684
-788
-485
-546
-761
-590
-499
-757
-761
-521
-663
-778
-468
-517
-821
-625
-462
-736
-707
-406
-622
-772
-518
-564
-754
-544
-374
-710
-707
-369
-595
-753
-464
-540
-819
-557
-370
-722
-718
-400
-576
-790
-509
-497
-766
-557
-437
-774
-682
-353
-577
-737
-483
-525
-744
-542
-391
-655
-594
-229
-428
-679
-326
-269
-534
-322
-223
-499
-360
-43
-230
-383
-91
-171
-491
-194
-48
-509
-601
-374
-643
-873
-586
-626
-911
-693
-520
-795
-755
-431
-525
-592
-215
-199
-262
739
2121
2461
2255
2101
1088
226
270
-149
-684
-561
-534
-897
-900
-612
-852
-1065
-698
-738
-1076
-802
-629
-1021
-1014
-651
-842
-990
-679
-756
-988
-737
-611
-895
-819
-539
-727
-859
-568
-588
-859
-630
-457
-747
-636
-286
-545
-588
-209
-425
-642
-256
-68
-387
-343
-10
-131
-193
126
81
-191
58
250
-16
68
338
105
-16
242
141
-137
19
123
-198
-247
-34
-195
-293
-40
-198
-561
-290
-66
-363
-399
-144
-317
-506
-192
-222
-543
-310
-177
-511
-423
-140
-377
-515
-196
-194
-557
-368
-184
-607
-478
-149
-429
-605
-320
-262
-563
-387
-250
-606
-481
-194
-454
-554
-201
-176
-461
-235
-64
-369
-257
44
-214
-348
44
8
-285
-31
134
-118
-122
79
-122
-260
-93
-282
-648
-492
-358
-686
-612
-304
-526
-714
-404
-426
-711
-396
-148
-301
-157
32
219
1226
2596
2920
2426
1886
1161
319
-27
-10
-378
-626
-403
-516
-834
-614
-409
-765
-837
-522
-705
-909
-563
-573
-916
-701
-559
-915
-848
-539
-789
-918
-587
-728
-1004
-659
-509
-842
-659
-471
-847
-817
-480
-554
-747
-498
-322
-589
-514
-211
-389
-461
-117
-156
-412
-133
45
-287
-221
81
-125
-220
68
-83
-433
-249
-193
-508
-406
-241
-543
-653
-341
-426
-765
-547
-426
-715
-631
-374
-562
-755
-477
-460
-765
-528
-295
-711
-687
-310
-596
-742
-386
-447
-719
-446
-446
-766
-537
-311
-537
-647
-369
-437
-706
-437
-321
-632
-561
-303
-502
-611
-355
-461
-681
-435
-314
-628
-520
-202
-453
-541
-167
-182
-438
-246
-167
-413
-270
18
-128
-225
107
105
-235
-17
117
-250
-209
-58
-420
-651
-358
-376
-721
-482
-336
-656
-609
-390
-553
-649
-301
-177
-226
50
188
520
1891
3100
2969
2347
1762
1031
421
264
92
-381
-478
-404
-681
-711
-451
-586
-809
-557
-475
-797
-718
-455
-633
-700
-443
-536
-727
-466
-375
-757
-703
-360
-503
-625
-422
-442
-575
-332
-234
-521
-442
-133
-323
-388
12
-94
-333
62
167
-181
-16
313
104
69
372
231
123
473
532
208
294
528
273
157
413
325
-24
111
262
-81
-30
215
-29
-169
32
-27
-244
-33
103
-221
-128
141
-120
-183
50
-17
-132
61
104
-185
-99
164
-42
-121
154
57
-153
109
151
-187
-63
205
-55
-137
195
60
-237
35
143
-164
-9
139
-205
-159
255
155
-57
260
343
14
162
452
231
191
497
382
153
431
606
347
419
630
297
158
369
164
-83
103
155
-112
-72
165
-53
-165
199
135
-113
249
509
244
388
743
804
1684
3165
3487
2998
2561
1863
1123
834
748
267
125
394
88
-87
194
158
-146
8
260
71
-54
164
213
-40
112
292
70
99
305
153
69
335
250
52
353
423
101
253
524
218
154
547
485
227
503
676
351
487
814
623
584
916
827
589
904
1036
723
866
1207
856
673
1021
860
567
850
910
542
637
834
539
425
696
588
287
474
628
309
326
611
362
259
551
456
218
474
560
246
376
531
287
295
584
425
208
506
562
252
349
574
326
287
557
365
178
455
485
216
298
447
258
199
474
366
99
397
466
73
218
572
359
309
669
509
296
625
571
309
567
776
530
492
826
763
495
647
689
401
478
512
173
78
240
118
-104
152
206
-84
26
219
32
19
405
486
378
583
772
1190
2515
3510
3105
2544
2034
1047
565
636
324
-100
-116
-31
-214
-278
-34
-181
-424
-140
-57
-400
-300
-52
-296
-372
-83
-197
-459
-154
-109
-506
-333
-41
-336
-482
-122
-177
-442
-157
-87
-360
-217
-5
-183
-186
98
-2
-192
122
172
-87
134
320
143
82
331
319
110
392
513
144
249
510
179
93
348
153
-122
75
139
-283
-221
113
-204
-333
25
-172
-430
-89
-39
-373
-270
-19
-293
-389
-108
-238
-409
-133
-129
-482
-325
-49
-324
-356
-13
-249
-533
-179
-86
-441
-287
-55
-373
-389
-82
-249
-483
-222
-127
-474
-342
-73
-441
-483
-148
-345
-523
-263
-260
-471
-228
6
-300
-318
33
-154
-359
-67
21
-228
-100
165
-77
-168
128
49
-209
18
30
-408
-423
-318
-615
-634
-300
-423
-664
-414
-357
-669
-525
-196
-362
-241
220
108
194
1387
2661
2943
2845
2328
1144
498
486
24
-477
-334
-378
-799
-676
-401
-797
-879
-494
-668
-885
-579
-544
-814
-658
-529
-772
-760
-524
-668
-811
-521
-534
-819
-596
-424
-744
-720
-393
-524
-676
-377
-343
-661
-465
-154
-407
-415
-82
-162
-319
-84
28
-192
23
238
-100
-59
320
183
1
324
274
-169
-32
201
-128
-217
51
-207
-437
-91
-140
-532
-357
-180
-488
-475
-161
-385
-641
-345
-321
-608
-422
-196
-492
-543
-220
-391
-571
-249
-208
-457
-333
-99
-220
-120
409
626
877
1544
1808
1619
1826
2089
1785
1804
2150
1838
1498
1695
1536
1058
1067
991
195
-367
-200
-389
-814
-616
-590
-949
-748
-599
-949
-907
-623
-747
-878
-612
-578
-832
-719
-582
-902
-1053
-790
-908
-1165
-879
-770
-1068
-954
-728
-945
-973
-698
-822
-965
-658
-573
-898
-734
-450
-729
-694
-362
-485
-630
-343
-328
-633
-451
-240
-524
-540
-245
-389
-577
-327
-249
-544
-499
-260
-559
-655
-295
-426
-674
-435
-387
-667
-528
-310
-591
-669
-321
-450
-697
-379
-325
-718
-591
-305
-565
-615
-383
-550
-717
-435
-427
-676
-546
-467
-684
-698
-421
-546
-791
-483
-416
-738
-555
-364
-677
-601
-354
-604
-745
-518
-440
-683
-662
-384
-574
-677
-353
-515
-737
-434
-431
-688
-518
-364
-616
-593
-284
-458
-655
-364
-335
-627
-484
-269
-606
-652
-217
-427
-735
-320
-273
-698
-463
-257
-624
-549
-252
-461
-623
-312
-314
-639
-434
-263
-588
-561
-205
-401
-613
-293
-296
-588
-373
-190
-497
-461
-145
-320
-429
-66
-86
-441
-203
42
-278
-177
158
-20
-162
138
165
-130
61
212
-111
-134
53
-304
-614
-296
-278
-651
-531
-300
-517
-633
-324
-322
-478
-30
160
-199
59
815
1596
2566
3007
2432
1473
1000
597
-112
-149
-50
-547
-603
-329
-587
-744
-386
-413
-757
-648
-521
-689
-645
-386
-568
-770
-481
-469
-732
-555
-352
-666
-696
-328
-516
-693
-341
-358
-621
-376
-239
-547
-462
-96
-274
-425
-87
-69
-329
-124
90
-110
-76
174
49
-78
320
337
2
276
489
194
287
594
333
188
466
384
111
288
335
46
75
235
21
-213
45
79
-248
-97
24
-293
-239
44
-206
-359
-31
-67
-363
-158
21
-277
-260
1
-205
-351
-56
-147
-443
-148
-24
-426
-318
3
-223
-366
-137
-173
-466
-272
-53
-350
-347
-33
-203
-422
-142
-92
-390
-187
112
-198
-125
238
-134
-262
153
120
-55
203
289
75
172
340
93
-89
208
100
-374
-219
-106
-487
-483
-195
-368
-536
-236
-252
-594
-349
-69
-316
-111
342
151
216
1376
2596
2965
3097
2692
1331
691
709
124
-254
-95
-289
-656
-501
-398
-710
-640
-353
-567
-714
-435
-471
-694
-480
-410
-686
-573
-317
-538
-655
-330
-381
-651
-406
-263
-518
-443
-269
-451
-519
-259
-262
-456
-162
-6
-339
-259
70
-130
-183
188
96
-97
225
332
25
142
452
242
164
451
293
31
275
300
-4
27
134
-106
-230
27
-73
-368
-118
-13
-337
-312
-29
-190
-373
-17
-119
-469
-176
-38
-342
-266
21
-239
-376
-46
-136
-369
-101
-13
-340
-268
41
-216
-412
-50
-86
-369
-155
5
-274
-347
-70
-203
-334
-29
-102
-333
-92
-21
-312
-184
112
-96
-164
182
80
-136
138
203
-54
66
358
143
21
423
376
111
242
290
44
-25
114
-178
-383
-51
-121
-453
-223
-114
-406
-303
-127
-355
-368
30
135
-13
241
702
1421
2645
3333
2823
1942
1488
1023
392
261
125
-313
-374
-202
-442
-589
-290
-369
-580
-344
-303
-582
-506
-248
-438
-628
-334
-346
-634
-367
-252
-610
-486
-219
-467
-499
-216
-363
-549
-272
-187
-437
-332
-137
-291
-281
-101
-189
-294
-61
76
-136
8
267
36
21
338
266
75
336
420
52
187
474
71
-40
324
62
-242
61
106
-273
-219
-20
-244
-330
-92
-162
-420
-202
-73
-403
-280
3
-323
-432
-115
-220
-448
-182
-80
-345
-288
-87
-283
-433
-63
-145
-514
-161
-50
-407
-331
-71
-283
-474
-118
-147
-484
-219
-100
-417
-321
-64
-300
-414
-91
-148
-351
3
126
-270
-127
187
-94
-189
150
67
-179
141
283
-10
96
305
19
-67
180
-53
-385
-165
-115
-547
-487
-132
-418
-599
-234
-367
-617
-202
-99
-363
14
297
-16
372
1692
2657
2736
2661
2061
883
533
503
-88
-352
-135
-359
-664
-403
-342
-647
-470
-266
-625
-697
-337
-457
-733
-429
-305
-656
-525
-264
-537
-604
-303
-395
-640
-381
-224
-531
-475
-145
-381
-532
-167
-229
-441
-122
-14
-299
-133
190
-52
-114
339
210
-124
266
425
91
268
556
266
185
510
371
75
338
385
-26
64
255
-68
-163
113
34
-245
-109
-12
-288
-160
113
-228
-368
23
-69
-361
-88
14
-299
-194
54
-188
-286
27
-44
-339
-63
70
-302
-201
107
-160
-288
50
-65
-319
-57
0
-246
-135
0
-251
-239
46
-109
-316
-58
36
-312
-230
67
-150
-168
222
110
-145
138
239
-45
117
365
131
159
438
291
146
417
400
77
238
393
-13
-199
37
-160
-423
-80
-41
-421
-276
-9
-254
-341
38
15
-55
468
497
186
1080
2527
2982
2961
2829
1805
849
754
451
-110
-128
-45
-383
-419
-209
-374
-512
-239
-203
-516
-357
-159
-490
-506
-119
-256
-510
-225
-144
-446
-311
-97
-366
-379
-61
-215
-432
-98
-54
-385
-207
17
-197
-213
86
22
-140
215
287
-109
116
435
166
178
580
472
237
565
655
299
407
627
271
237
542
309
50
285
291
-54
68
248
-50
-109
142
-16
-197
74
114
-191
-108
81
-172
-194
108
-45
-220
34
83
-213
-185
102
-89
-205
114
3
-228
58
118
-206
-67
168
-128
-160
145
-24
-211
82
121
-198
-87
81
-152
-135
174
26
-186
118
104
-148
106
269
17
17
375
249
-28
317
425
167
389
572
241
269
462
234
139
279
169
-216
-148
43
-269
-270
54
-141
-328
-21
11
-275
-76
240
48
210
573
542
1197
2799
3561
3170
2800
2083
1184
830
736
285
-196
-40
-103
-497
-287
-76
-367
-432
-213
-361
-496
-184
-228
-525
-315
-160
-425
-375
-107
-309
-462
-209
-178
-412
-255
27
-283
-435
-46
-144
-366
-12
39
-262
-23
231
-67
-30
330
196
45
387
432
193
440
556
295
349
654
532
320
587
554
219
424
563
162
130
371
91
-50
228
122
-125
47
155
-153
-142
165
-27
-230
53
55
-247
-54
152
-154
-146
161
-67
-230
92
86
-199
25
243
-64
33
520
583
751
1465
1855
1780
2034
2284
2019
2023
2415
2224
1882
2073
1918
1443
1527
1528
946
536
330
23
-224
-164
-208
-569
-501
-342
-572
-514
-232
-433
-597
-299
-329
-676
-514
-305
-644
-732
-503
-742
-864
-500
-629
-926
-640
-474
-757
-689
-338
-594
-843
-450
-390
-672
-433
-202
-441
-425
-124
-253
-422
-112
-100
-356
-130
2
-299
-286
15
-180
-363
43
-19
-448
-169
40
-300
-295
-32
-217
-399
-102
-98
-407
-233
-16
-312
-422
-111
-174
-366
-116
-39
-372
-308
-57
-288
-316
-47
-218
-394
-75
-89
-387
-178
-51
-323
-306
-21
-203
-386
-67
-89
-368
-148
12
-295
-300
-23
-233
-398
-50
-84
-381
-123
23
-371
-370
16
-126
-348
-39
-35
-337
-139
2
-274
-222
75
-116
-302
47
31
-316
-115
89
-200
-226
66
-106
-238
71
45
-235
-65
78
-213
-137
177
-78
-237
95
41
-234
-3
146
-128
-81
129
-54
-166
129
108
-147
115
265
31
119
397
234
101
419
393
132
380
584
297
348
663
452
271
538
491
193
265
259
-77
-110
120
5
-230
-30
24
-276
-58
177
-33
181
613
365
256
1164
2279
2922
3251
3036
1915
1147
1094
565
88
175
12
-317
-150
-17
-305
-345
-127
-316
-436
-102
-149
-423
-259
-152
-372
-307
-72
-282
-420
-112
-119
-401
-177
-13
-332
-260
58
-193
-341
29
10
-278
-14
210
-103
-22
314
116
33
353
356
165
422
567
290
372
642
491
420
732
755
497
629
819
533
494
797
571
313
580
497
171
362
507
137
101
380
125
-3
293
170
-90
180
314
-36
43
306
28
-79
275
200
-151
93
281
-11
26
264
32
-89
227
148
-152
79
218
-61
-40
171
13
-108
158
101
-153
91
229
-60
43
370
177
70
369
282
58
312
437
154
227
560
342
239
679
501
112
389
531
208
158
289
-47
-208
48
-79
-300
-40
74
-232
-180
58
-108
-162
188
307
133
395
968
1716
2971
3606
3060
2204
1604
1112
523
396
271
-215
-242
-12
-286
-455
-157
-265
-522
-262
-109
-425
-384
-62
-334
-539
-185
-237
-464
-204
-155
-438
-355
-111
-324
-390
-54
-136
-379
-113
-13
-309
-124
80
-179
-142
231
170
-71
247
420
72
222
624
359
245
649
627
391
641
745
425
475
652
426
283
442
347
46
233
373
-21
-4
286
67
-81
182
137
-144
104
216
-164
-41
237
-11
-107
189
120
-169
76
204
-146
-54
215
15
-64
174
95
-139
74
198
-115
-70
269
35
-147
182
139
-101
98
173
-105
5
268
93
-35
230
223
-2
263
413
136
233
482
258
211
565
470
236
558
678
330
423
620
310
152
314
171
-147
47
179
-226
-137
181
-75
-156
101
48
-153
62
339
219
296
738
1202
2266
3410
3370
2528
1810
1379
866
553
455
8
-267
-42
-151
-436
-202
-88
-416
-326
-34
-366
-540
-136
-197
-463
-196
-120
-451
-334
-40
-344
-464
-115
-214
-487
-165
-48
-486
-346
-27
-260
-274
25
-142
-355
4
120
-179
-18
260
31
9
320
187
15
337
428
125
272
514
248
180
411
283
39
230
317
-116
-128
151
-138
-232
56
-119
-345
-88
-25
-324
-223
13
-235
-348
-32
-128
-419
-128
-67
-388
-242
-28
-320
-383
-30
-105
-340
-130
-66
-370
-228
12
-280
-371
-89
-181
-392
-126
-69
-382
-225
-4
-316
-383
-71
-195
-442
-181
-56
-340
-105
159
-186
-213
185
85
-163
180
245
-67
179
385
57
96
437
193
-83
239
186
-258
-223
-49
-345
-506
-140
-221
-536
-279
-123
-431
-343
-4
-159
-42
334
105
204
1411
2591
2814
2737
2328
1188
601
622
155
-294
-164
-170
-524
-468
-277
-489
-540
-289
-365
-599
-384
-291
-561
-417
-213
-462
-549
-258
-379
-617
-301
-253
-555
-418
-157
-393
-516
-182
-273
-481
-133
-116
-425
-214
80
-131
-256
70
20
-107
231
299
30
189
449
223
254
571
393
182
470
471
98
235
423
69
-17
275
75
-191
103
57
-348
-137
72
-247
-271
61
-75
-393
-157
-37
-312
-195
16
-235
-340
-92
-183
-383
-102
-51
-371
-177
35
-317
-343
53
-104
-419
-97
79
-337
-265
77
-209
-292
15
-154
-329
-24
-80
-393
-175
47
-262
-342
35
-23
-251
61
134
-220
-31
270
-24
-44
339
158
-24
344
384
83
238
454
140
70
362
117
-258
-75
-62
-363
-277
-99
-270
-291
-60
-199
-363
-89
20
-94
216
452
187
629
2091
2997
3055
3122
2325
1088
898
762
106
-118
41
-261
-558
-270
-241
-572
-391
-152
-458
-500
-184
-384
-589
-220
-138
-455
-329
-111
-386
-409
-59
-260
-492
-147
-141
-424
-218
-5
-291
-283
99
-66
-269
51
100
-124
102
338
94
90
417
334
208
519
614
316
432
687
420
423
757
510
275
531
434
100
252
411
73
-17
297
123
-134
132
155
-146
-11
220
-58
-135
212
38
-213
71
59
-226
-23
194
-126
-198
194
73
-239
55
142
-165
6
183
-116
-80
215
-12
-190
152
163
-136
62
212
-126
-92
207
22
-152
123
147
-127
65
321
90
66
399
238
-41
293
407
137
305
526
337
347
628
517
315
533
516
212
344
365
-69
-77
185
27
-128
80
110
-158
-21
180
-108
-33
352
287
220
555
868
1529
2975
3769
3357
2639
1947
1320
878
811
484
-134
-47
147
-199
-223
101
-131
-322
56
4
-295
-83
78
-171
-194
143
24
-257
64
78
-294
-42
229
-105
-112
240
59
-93
253
267
8
212
384
158
228
565
416
263
614
635
403
688
843
496
598
1001
846
711
940
890
712
863
924
641
612
833
633
383
646
590
205
394
562
221
225
550
373
145
399
396
87
286
498
169
140
442
254
77
405
415
53
249
482
149
169
504
279
85
415
397
129
288
428
198
114
381
255
53
383
371
99
216
296
99
168
466
308
177
513
512
231
445
634
285
326
679
537
411
661
688
480
627
733
436
439
693
412
111
305
218
-96
108
289
-85
-67
278
55
-54
268
317
235
538
700
456
1062
2519
3192
3152
3093
2300
1290
1126
928
323
172
324
51
-170
172
154
-255
-17
196
-112
-81
189
58
-103
101
145
-108
49
257
-31
-27
279
85
-109
252
249
-100
170
369
75
136
430
248
130
491
500
245
452
748
441
341
780
640
514
928
868
596
895
1084
755
789
1065
809
689
940
780
480
652
755
411
401
682
444
242
559
531
234
498
608
194
265
571
310
142
472
476
155
318
518
239
253
557
389
185
456
455
130
317
519
222
280
558
337
205
496
482
160
377
603
235
249
554
319
208
538
468
198
365
504
270
319
647
513
369
675
660
407
643
824
562
614
940
806
624
939
955
542
693
914
612
514
698
420
120
424
335
-15
278
457
139
164
480
278
176
643
801
581
689
1042
1646
2837
3621
3374
2681
2046
1535
938
702
570
103
77
296
33
-136
149
160
-194
-54
194
-100
-62
229
-2
-150
211
160
-175
66
197
-121
-75
208
29
-68
209
114
-126
101
286
55
60
358
242
62
378
452
217
464
606
350
497
778
575
486
839
815
563
841
951
584
641
835
567
431
670
605
312
386
488
228
64
333
214
-48
241
238
-3
191
302
-25
12
301
41
-88
230
144
-97
176
226
-182
-129
132
-93
-279
60
0
-383
-76
47
-299
-229
19
-186
-381
-81
-73
-370
-123
27
-358
-308
-26
-269
-368
-13
-103
-429
-171
-36
-305
-141
112
-151
-214
162
52
-223
117
258
-100
22
346
124
8
295
256
-91
138
347
-146
-236
5
-308
-478
-152
-216
-466
-259
-215
-468
-350
-64
-225
-308
200
300
-10
514
1683
2634
3175
3247
2390
1316
1115
797
101
-32
-75
-441
-441
-255
-530
-657
-388
-439
-621
-433
-380
-681
-542
-251
-567
-671
-275
-355
-658
-388
-268
-589
-466
-165
-453
-597
-185
-247
-524
-256
-137
-421
-309
33
-188
-308
101
80
-194
116
320
-14
51
395
217
122
503
457
207
506
574
185
225
484
211
-4
255
173
-176
-59
75
-233
-213
53
-168
-337
-84
-84
-353
-179
-38
-366
-298
-11
-261
-365
-7
-138
-439
-106
-62
-386
-214
14
-181
-177
264
250
176
874
1420
1454
1802
2249
2114
1992
2289
2342
2131
2209
2238
1776
1586
1764
1362
929
831
204
-221
25
-105
-521
-475
-290
-511
-586
-303
-400
-590
-323
-241
-509
-452
-247
-496
-609
-264
-402
-807
-588
-414
-752
-680
-322
-522
-651
-340
-429
-642
-331
-203
-478
-360
-100
-334
-393
-37
-78
-248
57
74
-334
-207
82
-191
-318
34
-88
-383
-83
10
-309
-220
36
-214
-313
-30
-173
-407
-116
-37
-323
-199
-66
-306
-311
-43
-139
-350
-112
-32
-346
-255
52
-195
-291
63
-88
-314
-59
-12
-265
-198
68
-97
-206
103
16
-222
8
99
-171
-126
166
-78
-233
96
44
-165
43
159
-149
-101
209
1
-80
262
173
-73
165
237
-42
27
314
139
-44
302
276
23
289
356
77
201
455
231
103
404
355
89
334
506
151
223
526
297
211
461
408
239
459
557
251
270
548
398
296
587
526
239
527
726
362
449
769
533
468
831
822
604
894
1023
694
864
1120
884
888
1258
1194
989
1277
1359
1075
1176
1415
1163
1071
1316
1031
747
998
999
698
801
1070
833
703
1063
1007
787
1215
1518
1209
1298
1981
2720
3663
4322
3973
3080
2506
2092
1467
1345
1395
838
716
1066
862
706
929
872
658
788
1001
775
669
1007
948
685
950
1009
698
862
1027
775
785
1017
943
772
905
1021
768
830
1182
952
712
1055
1067
818
1118
1272
998
1108
1392
1202
1120
1449
1374
1210
1485
1530
1296
1399
1697
1502
1328
1723
1710
1386
1542
1569
1241
1278
1444
1137
993
1276
1096
794
1031
1083
709
754
1004
740
645
918
803
577
805
854
520
655
914
651
589
846
624
302
477
638
589
825
1212
1074
999
1374
1216
947
1251
1323
1051
1164
1375
1136
1019
1332
1247
932
1250
1387
1084
1226
1479
1289
1120
1408
1448
1250
1521
1683
1344
1417
1809
1529
1362
1683
1542
1220
1334
1298
910
963
1155
870
758
1040
1005
683
850
984
691
888
1221
1044
1029
1410
1708
2536
3982
4418
3809
3073
2326
1787
1412
1255
947
537
658
664
299
404
641
328
232
529
401
133
382
489
171
297
549
215
87
438
319
66
347
424
104
207
489
205
108
458
343
109
388
492
229
368
635
419
322
752
695
271
619
823
512
664
925
714
649
949
793
558
827
815
454
499
663
419
287
481
336
72
276
333
80
108
209
2
-40
231
107
-124
137
209
-131
-82
196
-28
-118
227
95
-182
90
149
-153
-5
215
41
-100
69
63
-175
52
116
-207
-45
133
-126
-125
171
7
-150
136
67
-214
25
263
46
83
339
230
91
337
420
172
345
604
356
373
738
522
222
494
574
246
219
351
61
-104
178
66
-189
107
167
-158
8
249
31
28
385
437
269
605
1212
1951
3104
3629
3015
2108
1632
1245
630
579
614
205
255
527
192
6
303
222
29
239
331
86
116
356
131
80
429
296
94
370
439
167
305
542
269
244
589
448
288
478
486
342
453
662
461
428
763
641
493
865
888
606
816
1076
886
813
1105
988
813
1134
1144
850
973
1115
810
721
991
793
492
799
794
291
424
673
342
298
632
502
241
515
560
217
348
561
276
203
552
422
115
391
451
96
286
522
159
130
498
317
54
330
368
47
170
371
63
29
315
154
-52
172
284
0
17
236
0
20
368
213
43
328
391
109
307
502
197
255
573
418
249
525
536
202
280
479
169
-25
178
-55
-367
-94
-56
-360
-212
-7
-303
-360
-43
-151
-287
131
312
2
163
788
1565
2583
3059
2585
1734
1089
677
171
-26
-30
-408
-514
-271
-479
-680
-425
-410
-667
-549
-330
-643
-785
-378
-491
-749
-448
-460
-754
-562
-349
-587
-593
-301
-466
-645
-324
-283
-589
-437
-199
-369
-432
-243
-268
-398
-135
-58
-318
-134
82
-194
-153
191
39
-99
238
245
-105
105
320
-39
-59
201
-91
-302
-34
-92
-421
-321
-187
-459
-532
-323
-453
-722
-480
-415
-725
-556
-401
-712
-715
-425
-645
-862
-559
-530
-858
-784
-552
-796
-890
-585
-746
-963
-657
-651
-986
-846
-650
-904
-911
-695
-849
-1042
-846
-772
-1058
-910
-682
-1001
-1045
-757
-903
-1073
-755
-685
-938
-814
-695
-962
-947
-593
-785
-1013
-613
-556
-880
-677
-531
-853
-864
-620
-756
-1091
-1005
-1007
-1408
-1309
-1154
-1457
-1432
-1103
-1261
-1528
-1262
-1169
-1372
-1164
-788
-949
-1033
-499
187
1273
2218
2047
1217
478
31
-577
-1005
-971
-1296
-1696
-1422
-1425
-1900
-1705
-1448
-1745
-1738
-1465
-1670
-1858
-1576
-1516
-1827
-1738
-1520
-1789
-1793
-1448
-1666
-1893
-1552
-1551
-1877
-1646
-1363
-1808
-1892
-1421
-1577
-1791
-1442
-1370
-1662
-1450
-1217
-1530
-1496
-1122
-1225
-1367
-1043
-964
-1212
-1049
-813
-1059
-1092
-749
-928
-1175
-909
-967
-1354
-1213
-1062
-1419
-1455
-1137
-1347
-1638
-1386
-1378
-1723
-1555
-1253
-1537
-1676
-1365
-1485
-1722
-1426
-1388
-1703
-1490
-1312
-1748
-1671
-1266
-1503
-1700
-1353
-1265
-1665
-1560
-1281
-1562
-1555
-1203
-1389
-1584
-1272
-1282
-1584
-1351
-1098
-1412
-1427
-1120
-1289
-1490
-1268
-1142
-1337
-1201
-951
-1189
-1132
-755
-964
-1233
-878
-734
-985
-726
-567
-892
-812
-533
-751
-984
-657
-686
-1182
-1053
-875
-1221
-1205
-957
-1152
-1255
-976
-944
-1191
-1023
-745
-977
-833
-253
-556
-565
801
2030
2325
2347
1800
613
245
316
-249
-757
-664
-754
-1126
-940
-775
-1120
-1074
-812
-1010
-1114
-824
-796
-1057
-925
-728
-983
-943
-596
-775
-963
-610
-674
-958
-677
-559
-808
-756
-451
-585
-774
-448
-349
-608
-430
-203
-414
-385
-74
-133
-249
-3
91
-104
84
359
112
101
472
321
89
376
362
36
152
327
27
-115
138
-3
-229
21
-27
-354
-188
46
-262
-365
-76
-234
-372
-87
-142
-402
-189
-69
-346
-268
23
-141
-320
-47
-12
-285
-99
112
-231
-245
91
-107
-268
27
47
-249
-67
159
-153
-185
112
-33
-245
56
147
-178
-86
131
-5
-14
256
147
-67
279
317
22
263
439
200
292
535
382
254
523
530
181
320
481
97
-46
194
42
-323
-33
68
-339
-88
211
-159
-198
212
143
61
456
422
242
1144
2461
2906
2930
2801
1813
972
896
530
-13
45
79
-371
-433
-154
-335
-535
-211
-173
-495
-325
-148
-475
-459
-131
-297
-502
-223
-174
-460
-333
-147
-370
-392
-131
-245
-393
-116
-36
-318
-244
18
-186
-166
170
-21
-89
185
82
-46
192
377
160
184
545
397
211
577
609
302
491
655
302
244
542
291
2
289
261
-101
42
177
-114
-129
104
-82
-268
9
10
-327
-155
64
-289
-337
-75
-213
-340
-47
-26
-349
-146
150
-46
23
554
718
825
1455
1664
1411
1695
1985
1724
1764
2063
1746
1460
1672
1530
1049
956
817
160
-210
-90
-448
-856
-547
-577
-899
-703
-646
-940
-928
-639
-756
-987
-661
-577
-886
-661
-429
-785
-1033
-889
-1001
-1120
-823
-927
-1210
-967
-814
-1020
-1072
-820
-841
-1056
-758
-641
-979
-807
-550
-821
-845
-494
-616
-853
-486
-454
-832
-574
-381
-706
-699
-380
-506
-790
-501
-486
-829
-540
-321
-683
-714
-433
-601
-771
-422
-477
-869
-589
-398
-761
-741
-412
-605
-795
-481
-507
-828
-674
-410
-657
-755
-421
-515
-544
-33
117
-31
164
184
-220
-148
-1
-582
-1272
-1640
-1969
-2384
-2384
-2139
-2278
-2096
-1460
-1298
-1201
-702
-478
-641
-623
-416
-564
-574
-231
-373
-522
-270
-271
-508
-317
-70
-337
-304
151
91
1
395
389
151
414
647
430
480
858
761
660
1034
1144
979
1223
1496
1282
1302
1644
1475
1289
1576
1544
1184
1265
1426
1028
871
1083
828
535
662
660
190
205
514
193
155
426
205
32
314
312
27
192
344
33
-71
-41
-361
-567
-358
-379
-678
-589
-604
-1045
-1035
-848
-1112
-1246
-960
-964
-1271
-1132
-962
-1193
-1207
-946
-1084
-1238
-864
-647
-800
-597
-26
677
1933
2840
2462
1601
857
246
-317
-462
-608
-1124
-1217
-977
-1172
-1408
-1061
-1099
-1539
-1322
-1081
-1358
-1353
-1034
-1162
-1386
-1099
-1044
-1349
-1160
-983
-1252
-1239
-997
-1150
-1288
-1012
-986
-1227
-1071
-856
-1073
-1116
-862
-974
-1098
-809
-715
-987
-856
-574
-817
-816
-499
-643
-737
-473
-496
-659
-549
-431
-626
-678
-400
-575
-836
-546
-549
-889
-737
-565
-888
-943
-634
-834
-1000
-639
-770
-1095
-836
-768
-1037
-967
-705
-855
-1086
-822
-757
-1045
-870
-699
-960
-971
-765
-890
-1038
-775
-765
-1043
-881
-719
-897
-1032
-859
-857
-1028
-787
-768
-1011
-801
-598
-832
-812
-531
-695
-893
-594
-470
-756
-578
-308
-648
-622
-276
-514
-729
-469
-462
-819
-849
-777
-1105
-1155
-860
-999
-1251
-1037
-984
-1274
-1078
-847
-1136
-1080
-608
-677
-903
-496
205
1028
2004
2344
1571
690
370
-155
-683
-692
-872
-1264
-1210
-1061
-1313
-1317
-1035
-1194
-1410
-1160
-1103
-1371
-1214
-1043
-1322
-1357
-1019
-1177
-1501
-1149
-1102
-1406
-1139
-963
-1263
-1216
-994
-1147
-1170
-917
-928
-1144
-956
-763
-979
-935
-658
-801
-933
-594
-523
-801
-667
-566
-862
-767
-391
-522
-688
-383
-322
-610
-552
-360
-604
-669
-396
-589
-817
-561
-553
-928
-783
-549
-846
-875
-585
-711
-968
-702
-626
-854
-693
-576
-756
-780
-523
-623
-794
-472
-465
-744
-568
-363
-584
-611
-329
-422
-585
-325
-266
-572
-443
-191
-480
-503
-167
-305
-509
-209
-144
-459
-262
-24
-228
-177
108
30
-125
162
223
-39
213
414
162
240
607
491
282
558
466
158
422
463
93
44
261
43
-160
236
227
-111
126
355
73
129
509
422
450
762
721
776
1828
3196
3397
3241
3098
2115
1415
1369
982
464
478
635
299
193
539
409
181
499
561
255
436
637
364
388
662
469
366
665
582
355
581
762
543
471
709
607
482
795
824
562
752
960
658
683
1070
934
766
1118
1178
919
1125
1356
1123
1119
1470
1353
1177
1502
1514
1245
1458
1520
1165
1210
1449
1290
1048
1195
1161
867
1008
1121
901
916
1137
957
785
1051
1010
730
940
1125
824
833
1144
943
750
1054
1122
784
907
1150
720
710
1118
936
770
1021
999
745
937
1108
807
793
1061
891
745
1007
985
737
879
986
718
743
1095
968
728
1050
1144
859
1039
1226
899
927
1282
1139
996
1287
1304
996
1131
1282
987
956
1095
763
509
778
749
414
624
787
460
417
660
533
399
761
882
758
1067
1191
1275
2494
3928
4045
3524
2988
2137
1468
1327
1111
516
324
538
253
-4
291
276
-3
156
280
-32
-13
329
105
-167
100
148
-125
6
185
-53
-136
73
-19
-159
90
82
-183
5
179
-71
-85
151
4
-104
188
206
-3
171
349
76
59
463
399
83
361
507
220
353
543
296
254
448
207
-51
164
128
-206
-70
85
-224
-349
-123
-268
-532
-320
-335
-628
-462
-262
-571
-660
-322
-506
-770
-457
-454
-779
-607
-457
-795
-768
-456
-678
-820
-505
-632
-966
-715
-549
-878
-859
-614
-858
-1019
-716
-701
-999
-870
-697
-987
-1040
-724
-811
-969
-698
-721
-1001
-760
-561
-891
-863
-542
-720
-806
-527
-645
-865
-689
-591
-877
-899
-683
-982
-1327
-1121
-1104
-1459
-1288
-1075
-1374
-1388
-1106
-1276
-1485
-1159
-1080
-1234
-896
-730
-911
-151
1233
1717
1697
1693
843
-186
-276
-418
-1071
-1276
-1100
-1361
-1588
-1304
-1304
-1597
-1421
-1229
-1487
-1493
-1256
-1423
-1501
-1201
-1254
-1523
-1311
-1097
-1388
-1416
-1040
-1205
-1414
-1103
-1111
-1353
-1098
-922
-1238
-1188
-847
-989
-1117
-777
-706
-950
-789
-541
-710
-719
-438
-546
-641
-292
-187
-433
-413
-180
-339
-363
-55
-262
-513
-256
-210
-517
-481
-322
-578
-657
-379
-523
-719
-425
-397
-706
-574
-393
-636
-617
-358
-476
-583
-411
-441
-650
-452
-230
-515
-518
-206
-385
-571
-249
-229
-510
-296
-138
-409
-401
-107
-239
-427
-122
-99
-383
-198
37
-232
-318
3
-86
-279
29
72
-243
-50
218
5
48
374
215
46
372
444
183
405
675
386
396
727
553
346
613
618
312
395
452
110
72
305
141
-67
179
254
-58
137
366
109
222
595
606
481
728
1198
1970
3165
3578
2997
2416
1919
1309
812
745
618
98
128
384
55
60
385
184
-11
302
296
-69
158
364
16
59
380
174
-12
315
327
-2
217
450
175
157
487
314
42
415
492
195
384
676
419
268
678
628
399
775
858
561
776
1042
769
787
1178
1019
847
1163
1134
837
958
1111
789
683
914
738
503
695
709
371
523
721
387
387
655
425
251
572
538
184
410
616
241
252
526
331
235
398
361
150
277
461
181
226
492
287
187
444
447
199
384
547
300
254
452
375
174
386
441
179
334
511
196
185
513
361
239
625
621
272
479
727
456
427
746
583
420
854
865
450
660
868
536
526
797
549
209
387
358
16
232
378
-30
47
367
166
25
282
358
245
602
813
490
844
2075
3048
3450
3673
3067
1827
1470
1358
666
385
517
231
-44
219
240
-73
106
271
-83
-31
244
-87
-186
224
134
-192
77
275
-58
-54
273
93
-60
297
249
-86
114
325
114
128
370
248
106
347
419
216
413
609
372
430
755
642
452
736
879
631
835
1024
642
727
1067
823
590
835
776
396
538
643
322
292
518
319
111
397
367
79
254
380
72
98
405
66
-119
281
217
7
157
215
5
20
287
158
32
227
195
-10
164
317
22
46
346
148
-58
237
240
-45
164
292
1
83
382
167
-22
271
276
38
278
428
111
143
508
315
37
409
550
272
388
609
362
337
607
351
138
404
350
27
-14
22
-193
-222
53
-104
-356
-50
17
-318
-136
112
-132
28
460
246
200
1115
2289
2920
3288
3087
1801
1103
1208
666
87
195
47
-441
-351
-161
-432
-440
-163
-346
-537
-272
-280
-580
-410
-179
-523
-649
-249
-377
-632
-311
-323
-663
-469
-251
-553
-556
-230
-415
-641
-315
-307
-634
-382
-164
-454
-367
-136
-351
-364
-19
-30
-202
-6
38
-197
-82
219
56
-143
83
78
-243
-137
9
-392
-487
-157
-475
-768
-447
-507
-821
-612
-413
-864
-941
-500
-708
-954
-626
-718
-1033
-786
-652
-961
-980
-709
-859
-1038
-793
-829
-1069
-818
-750
-1100
-998
-726
-907
-1062
-785
-818
-1174
-972
-795
-1098
-1029
-786
-1059
-1160
-819
-880
-1166
-981
-808
-1080
-1113
-817
-949
-1092
-768
-764
-999
-848
-698
-948
-918
-597
-754
-904
-587
-542
-840
-684
-539
-889
-866
-654
-1029
-1244
-990
-1088
-1407
-1229
-1113
-1443
-1351
-1040
-1288
-1409
-999
-934
-1066
-759
-630
-805
-144
1272
1820
1685
1683
889
-113
-281
-450
-989
-1165
-1006
-1297
-1458
-1161
-1268
-1531
-1312
-1128
-1402
-1377
-1095
-1276
-1427
-1121
-1046
-1400
-1284
-966
-1193
-1237
-920
-1063
-1258
-953
-882
-1103
-909
-717
-988
-958
-596
-753
-931
-555
-496
-730
-428
-301
-620
-427
-60
-276
-349
76
25
-248
35
241
-28
-34
221
25
-172
86
46
-260
-156
-15
-295
-381
-86
-242
-436
-129
-186
-478
-245
-94
-420
-413
-113
-266
-441
-188
-137
-499
-362
-41
-429
-471
-92
-284
-482
-165
-122
-524
-340
-64
-383
-341
-27
-272
-467
-128
-113
-441
-258
-53
-349
-369
-36
-220
-495
-171
-101
-379
-259
-31
-204
-227
68
-54
-222
96
136
-176
50
302
0
24
352
211
30
305
315
-69
88
281
-152
-307
-94
-316
-550
-268
-267
-579
-309
-118
-518
-502
-128
-251
-283
218
210
-45
752
2118
2793
2973
2968
1923
928
893
482
-133
-136
-161
-600
-661
-416
-569
-766
-610
-561
-778
-652
-504
-811
-772
-439
-671
-892
-553
-516
-835
-668
-512
-827
-790
-483
-664
-822
-534
-528
-741
-635
-463
-588
-612
-310
-447
-584
-192
-298
-560
-221
-61
-332
-232
80
-112
-250
39
97
-163
-110
60
-243
-319
-53
-277
-528
-373
-440
-728
-570
-448
-824
-759
-535
-829
-942
-638
-629
-981
-808
-597
-966
-965
-620
-856
-1065
-656
-667
-1017
-757
-564
-876
-867
-576
-771
-943
-612
-648
-986
-767
-567
-850
-839
-623
-813
-966
-685
-645
-994
-874
-637
-926
-912
-588
-838
-1005
-624
-612
-854
-627
-461
-721
-689
-392
-539
-779
-485
-317
-602
-432
-178
-575
-636
-343
-583
-769
-559
-704
-1028
-865
-831
-1114
-1053
-812
-980
-1138
-881
-869
-1060
-812
-529
-630
-609
-207
165
929
2303
2661
2021
1490
898
238
-40
-110
-579
-866
-632
-695
-975
-788
-673
-955
-940
-704
-876
-1036
-719
-748
-1058
-800
-614
-959
-943
-654
-822
-957
-658
-721
-993
-705
-561
-858
-834
-532
-665
-840
-538
-508
-736
-520
-330
-543
-537
-224
-295
-439
-96
-50
-367
-156
120
-159
-144
163
-57
-202
69
-5
-276
-170
-103
-403
-465
-225
-433
-638
-315
-384
-767
-547
-386
-687
-669
-376
-558
-833
-508
-484
-826
-538
-324
-730
-755
-423
-623
-765
-399
-448
-751
-557
-360
-660
-708
-357
-588
-852
-537
-537
-797
-591
-454
-765
-698
-394
-610
-772
-476
-503
-788
-566
-379
-682
-687
-352
-460
-621
-286
-202
-561
-393
-119
-484
-426
-33
-276
-424
-81
-50
-320
-186
-52
-425
-367
-50
-445
-716
-468
-607
-893
-663
-517
-809
-808
-579
-785
-908
-555
-431
-537
-268
-190
-394
379
1835
2363
2230
2138
1308
328
138
-37
-567
-783
-592
-850
-1156
-769
-760
-1144
-957
-771
-1020
-994
-727
-948
-1085
-769
-816
-1095
-892
-690
-988
-1011
-728
-904
-1058
-757
-754
-1063
-850
-611
-895
-827
-535
-775
-859
-517
-526
-750
-513
-269
-530
-465
-151
-373
-450
-21
-72
-380
-105
45
-254
-252
36
-188
-440
-153
-238
-594
-399
-293
-655
-618
-364
-608
-746
-531
-634
-879
-683
-564
-864
-778
-524
-881
-1049
-689
-713
-952
-787
-641
-913
-939
-657
-864
-1012
-679
-700
-996
-835
-648
-921
-901
-631
-839
-960
-676
-697
-971
-812
-593
-893
-952
-622
-814
-1038
-631
-721
-1168
-835
-610
-954
-911
-576
-731
-831
-469
-557
-852
-603
-445
-688
-617
-272
-479
-709
-337
-290
-633
-475
-339
-673
-655
-476
-822
-1097
-859
-878
-1143
-915
-762
-1092
-1081
-772
-930
-1066
-694
-530
-642
-465
-238
211
1488
2589
2468
1885
1305
548
-110
-275
-438
-962
-1042
-857
-1141
-1311
-1001
-1024
-1329
-1157
-945
-1260
-1373
-1021
-1124
-1343
-1019
-1049
-1375
-1143
-963
-1240
-1181
-917
-1154
-1274
-942
-983
-1259
-1037
-851
-1150
-1136
-776
-909
-1088
-764
-711
-1020
-816
-542
-780
-731
-399
-549
-654
-295
-301
-592
-389
-196
-436
-441
-248
-510
-692
-382
-534
-962
-727
-595
-984
-972
-691
-933
-1112
-837
-930
-1169
-945
-839
-1112
-1083
-878
-1056
-1206
-978
-970
-1248
-1046
-866
-1131
-1049
-884
-1120
-1209
-924
-933
-1220
-999
-840
-1208
-1131
-784
-1056
-1220
-907
-987
-1235
-1020
-875
-1141
-1179
-934
-1060
-1173
-868
-914
-1162
-911
-757
-1020
-937
-617
-832
-983
-630
-648
-926
-687
-463
-763
-749
-418
-603
-750
-524
-553
-816
-816
-720
-1036
-1129
-857
-1088
-1278
-944
-980
-1289
-1072
-892
-1164
-1086
-741
-786
-790
-532
-420
31
1468
2474
2131
1695
1092
205
-157
-215
-646
-1132
-1034
-968
-1325
-1357
-1056
-1235
-1395
-1096
-1118
-1393
-1207
-1025
-1329
-1294
-985
-1198
-1369
-1080
-1050
-1323
-1222
-1064
-1292
-1277
-993
-1178
-1309
-966
-1062
-1324
-998
-879
-1161
-1032
-744
-994
-1091
-670
-697
-925
-601
-431
-723
-588
-296
-530
-643
-311
-333
-640
-427
-246
-674
-767
-426
-642
-863
-594
-659
-981
-797
-664
-1058
-1000
-693
-968
-1120
-896
-962
-1134
-916
-811
-1166
-1106
-772
-1007
-1147
-802
-830
-1131
-887
-707
-1063
-1012
-658
-861
-1036
-768
-760
-1019
-851
-669
-1061
-1071
-714
-914
-1114
-820
-782
-1025
-820
-674
-987
-937
-630
-859
-1036
-706
-727
-987
-708
-496
-772
-726
-440
-625
-755
-430
-392
-700
-465
-246
-673
-577
-144
-482
-706
-329
-348
-710
-622
-569
-942
-922
-680
-901
-1006
-688
-743
-1025
-791
-609
-830
-631
-198
-379
-594
-35
829
1673
2429
2470
1590
793
619
-51
-645
-428
-599
-962
-795
-708
-1029
-989
-667
-910
-1067
-702
-766
-1040
-788
-658
-958
-879
-587
-800
-947
-633
-665
-960
-742
-573
-829
-773
-534
-758
-849
-476
-492
-735
-477
-281
-534
-470
-144
-278
-358
1
-17
-232
32
234
-3
-37
320
214
42
385
328
46
279
358
2
39
251
37
-82
19
-39
-251
-168
1
-291
-258
39
-208
-325
20
-79
-392
-118
32
-306
-240
48
-219
-316
48
-51
-331
-46
112
-229
-154
144
-90
-197
148
123
-206
66
276
-229
-185
183
-65
-168
148
88
-154
91
197
-71
-57
192
42
-89
278
235
-44
303
449
139
300
482
232
245
548
500
338
579
636
371
527
782
462
301
640
472
18
192
318
-62
-23
284
18
-133
234
206
-83
191
326
139
495
722
365
611
1963
3043
3174
3249
2773
1568
1128
1073
505
136
281
145
-200
37
126
-226
-130
110
-99
-221
54
17
-203
24
161
-117
-72
262
4
-224
153
114
-132
148
272
-4
90
344
149
72
349
333
210
401
467
263
368
744
581
414
820
847
560
850
1065
786
881
1149
893
798
1128
950
630
900
946
576
626
823
536
391
739
660
242
508
669
263
375
636
344
226
550
472
188
431
551
233
312
608
376
260
607
504
222
463
604
338
351
609
426
274
585
523
218
428
547
257
323
599
403
270
573
514
227
484
559
212
374
664
427
347
681
651
431
643
795
481
514
881
693
620
940
833
630
884
975
585
567
865
638
373
515
390
168
386
394
123
252
442
177
71
430
387
151
567
833
552
863
1876
2882
3574
3805
3193
2018
1598
1520
866
487
523
181
10
260
100
-151
116
222
-153
-40
285
-47
-151
247
110
-167
85
196
-36
39
310
84
-46
321
157
-160
178
322
45
158
484
162
-19
450
410
168
486
627
321
485
805
570
587
893
763
579
889
989
688
823
1059
802
636
899
812
454
637
727
356
407
594
330
188
447
391
104
351
460
44
122
438
140
20
411
314
-41
248
379
48
172
361
122
68
357
297
46
258
366
41
159
433
115
59
383
227
22
236
261
-6
91
330
85
2
353
204
-56
251
385
127
246
539
310
234
611
532
275
611
715
371
555
867
669
571
812
681
420
708
715
217
244
483
141
-11
403
315
-17
255
378
72
200
543
396
491
896
725
864
2168
3307
3327
3221
2819
1709
1127
1109
714
232
349
352
-16
51
256
-4
-121
212
200
-111
81
243
-77
55
319
-23
-95
272
172
-100
127
280
-15
46
373
72
-77
371
269
-37
299
451
163
272
572
380
286
739
649
275
671
859
555
720
954
765
747
987
899
747
932
919
624
675
846
561
430
711
566
243
505
553
188
296
512
267
149
437
355
114
407
531
181
340
596
199
174
490
315
161
414
448
130
233
492
211
148
491
337
62
310
410
66
182
490
149
66
396
220
-13
232
306
-5
106
381
85
-14
347
243
4
334
498
157
201
491
227
127
490
399
196
524
613
296
412
684
370
186
531
370
-29
146
134
-244
-104
112
-183
-233
82
-60
-329
-58
100
-118
99
452
198
261
1289
2364
2810
2981
2633
1457
861
807
217
-154
-44
-260
-568
-352
-278
-617
-544
-303
-548
-631
-349
-469
-678
-458
-401
-641
-624
-418
-571
-657
-350
-463
-704
-394
-321
-659
-503
-241
-529
-575
-214
-302
-474
-231
-201
-391
-223
-32
-250
-265
135
81
-168
117
246
-20
66
360
216
109
374
276
28
202
205
-134
-78
136
-178
-300
6
-117
-384
-142
-16
-337
-247
15
-242
-293
8
-178
-457
-153
-59
-403
-242
23
-278
-352
-22
-128
-389
-100
49
-331
-265
45
-194
-284
5
-136
-393
-89
6
-378
-264
-3
-282
-370
-45
-145
-408
-105
-8
-354
-221
30
-216
-249
135
74
-163
135
211
-134
11
289
87
47
353
271
21
280
358
-55
32
325
-93
-244
31
-262
-525
-276
-215
-508
-363
-90
-440
-552
-115
-170
-429
19
303
-50
352
1641
2620
3083
3155
2314
1184
966
714
28
-137
-130
-559
-670
-344
-536
-821
-535
-475
-783
-655
-453
-714
-760
-410
-540
-821
-542
-445
-770
-647
-387
-654
-736
-397
-451
-728
-499
-371
-655
-540
-313
-454
-508
-249
-229
-512
-255
-47
-300
-95
148
-83
-80
205
110
-29
248
307
63
180
401
132
5
292
123
-176
19
97
-254
-197
48
-287
-417
-104
-194
-438
-178
-98
-418
-311
-66
-340
-407
-63
-209
-492
-194
-28
-358
-290
27
-204
-359
-10
-76
-337
-51
0
-298
-96
141
-158
-229
86
-29
-296
4
128
-273
-151
182
-73
-144
151
44
-163
125
274
16
148
437
184
167
506
352
174
504
658
391
496
792
522
388
693
588
322
470
426
18
111
355
85
31
373
215
-60
280
362
95
323
695
551
467
919
1392
2253
3455
3651
2930
2296
1863
1264
870
864
577
252
405
448
95
244
572
184
158
556
351
177
411
457
238
390
646
365
315
665
519
283
587
687
363
503
830
537
453
874
708
433
853
968
621
843
1132
906
905
1211
1123
925
1252
1415
1155
1285
1560
1334
1285
1619
1476
1248
1523
1522
1183
1283
1521
1207
964
1344
1207
825
1192
1226
866
1028
1178
935
907
1190
1081
861
1119
1175
862
1000
1257
977
900
1240
1049
782
1146
1215
982
1055
1114
951
922
1200
1125
878
1124
1163
863
1034
1258
1017
908
1188
1145
893
1139
1182
872
1043
1278
1009
944
1332
1219
966
1305
1378
1060
1222
1481
1243
1284
1698
1508
1217
1609
1679
1348
1457
1593
1314
1124
1280
1072
761
1003
1030
703
854
1069
828
783
1009
958
889
1260
1512
1263
1336
1907
2587
3625
4337
4014
3205
2661
2245
1545
1326
1346
897
744
965
788
550
817
860
510
643
877
590
549
859
681
428
739
757
406
611
756
434
454
745
626
362
620
730
381
555
835
539
514
884
749
537
871
894
585
834
1092
792
820
1173
1069
946
1080
1146
1040
1031
1216
1047
912
1165
986
707
924
932
619
691
855
572
538
788
526
307
692
746
257
347
608
321
303
583
444
239
470
481
149
339
548
198
172
502
284
126
445
348
60
256
431
144
125
373
173
-48
232
259
-107
61
300
-41
-47
255
49
-121
93
120
-134
45
307
24
-2
297
151
-31
233
257
-4
237
496
30
-9
449
209
-57
149
77
-315
-357
-329
-668
-692
-433
-608
-812
-586
-535
-856
-724
-445
-728
-647
-112
-196
-456
-47
808
1839
2638
2721
1936
1009
659
74
-510
-462
-635
-1083
-1033
-840
-1132
-1177
-868
-1069
-1243
-872
-900
-1134
-761
-488
-740
-782
-558
-735
-868
-408
-224
-425
-180
-26
-327
-363
-155
-280
-510
-279
-248
-562
-353
-153
-450
-419
-110
-306
-470
-146
-103
-373
-165
72
-220
-176
234
-76
-443
-60
-7
-382
-237
-45
-397
-481
-296
-558
-750
-490
-551
-892
-792
-664
-893
-922
-702
-876
-1093
-821
-835
-1159
-973
-823
-1102
-1082
-874
-1042
-1174
-920
-921
-1222
-1168
-931
-1114
-1203
-848
-976
-1285
-985
-935
-1265
-1106
-904
-1206
-1267
-972
-1107
-1261
-1009
-932
-1227
-1220
-1017
-1204
-1208
-899
-1025
-1224
-900
-864
-1164
-939
-753
-1022
-974
-663
-797
-982
-685
-630
-948
-819
-626
-944
-1029
-822
-1132
-1492
-1223
-1172
-1478
-1283
-1131
-1424
-1390
-1177
-1359
-1433
-1104
-974
-1105
-901
-507
-151
1028
2283
2121
1411
778
120
-382
-512
-733
-1423
-1538
-1235
-1475
-1667
-1409
-1333
-1630
-1639
-1418
-1645
-1622
-1286
-1528
-1707
-1357
-1363
-1653
-1460
-1314
-1599
-1587
-1278
-1419
-1623
-1311
-1267
-1600
-1377
-1107
-1435
-1485
-1149
-1238
-1359
-1077
-1056
-1304
-1046
-799
-1098
-996
-626
-782
-920
-613
-564
-831
-659
-477
-784
-770
-488
-737
-961
-774
-803
-1088
-1005
-862
-1195
-1217
-901
-1128
-1297
-1011
-1123
-1436
-1208
-1037
-1330
-1297
-1026
-1234
-1413
-1090
-1127
-1415
-1077
-956
-1350
-1312
-1029
-1162
-1337
-1056
-1031
-1349
-1191
-999
-1270
-1254
-962
-1155
-1306
-1036
-1060
-1313
-1142
-1002
-1291
-1235
-952
-1184
-1297
-942
-958
-1209
-997
-862
-1082
-974
-720
-901
-1027
-680
-644
-937
-661
-509
-906
-863
-593
-795
-1038
-905
-998
-1344
-1184
-979
-1309
-1362
-1051
-1247
-1436
-1108
-1087
-1305
-996
-643
-878
-925
-432
181
1230
2202
2130
1310
591
216
-367
-708
-709
-1080
-1299
-1088
-1176
-1445
-1281
-1117
-1391
-1408
-1039
-1232
-1439
-1079
-1092
-1358
-1165
-1009
-1280
-1254
-951
-1157
-1288
-922
-961
-1244
-921
-825
-1257
-1146
-768
-921
-1071
-716
-687
-985
-714
-468
-766
-722
-345
-472
-643
-324
-282
-534
-246
-72
-391
-319
-56
-250
-415
-101
-167
-534
-274
-205
-636
-561
-289
-539
-728
-449
-489
-763
-505
-427
-811
-785
-512
-671
-798
-476
-511
-849
-653
-455
-741
-742
-419
-595
-794
-452
-503
-797
-525
-433
-735
-613
-367
-522
-697
-540
-494
-747
-550
-367
-707
-680
-353
-519
-642
-331
-441
-730
-450
-329
-617
-415
-94
-368
-464
-127
-219
-467
-159
-42
-302
-164
92
-81
-249
11
12
-318
-105
-52
-510
-482
-336
-629
-747
-432
-472
-786
-571
-388
-696
-619
-234
-361
-325
84
-115
-134
1096
2383
2603
2525
2219
1120
476
499
72
-483
-403
-349
-749
-712
-472
-690
-773
-509
-613
-857
