0
0
0
0
0
0
0
0
0
0
0
0
0
0
0
0
0
0
0
0
0
0
0
0
0
0
0
0
0
0
0
0
0
0
0
0
0
0
0
0
0
0
0
0
0
0
0
0
0
0
0
0
0
0
0
0
0
0
0
0
0
0
0
0
0
0
0
0
0
0
0
0
0
0
0
0
0
0
0
0
0
0
0
0
0
0
0
0
0
0
0
0
0
0
0
0
0
0
0
0
0
0
0
0
0
0
0
0
0
0
0
0
0
0
0
0
0
0
0
0
0
0
0
0
0
0
0
0
0
0
0
0
0
0
0
0
0
0
0
0
0
0
0
0
0
0
0
0
0
0
0
0
0
0
0
0
0
0
0
0
0
0
0
0
0
0
0
0
0
0
0
0
0
0
0
0
0
0
0
0
0
0
0
0
0
0
0
0
0
0
0
0
0
0
0
0
0
0
0
0
0
0
0
0
0
0
0
0
0
0
0
0
0
0
0
0
0
0
0
0
0
0
0
0
0
0
0
0
0
0
0
0
0
0
0
0
0
0
0
0
0
0
0
0
0
0
0
0
0
0
0
0
0
0
0
0
0
0
0
0
0
0
0
0
0
0
0
0
0
0
0
0
0
0
0
0
0
0
0
0
0
0
0
0
0
0
0
0
0
0
0
0
0
0
0
0
0
0
0
0
0
0
0
0
0
0
0
0
0
0
0
0
0
0
0
0
0
0
0
0
0
0
0
0
0
0
0
0
0
0
0
0
0
0
0
0
0
0
0
0
0
0
0
0
0
0
0
0
0
0
0
0
0
0
0
0
0
0
0
0
0
0
0
0
0
0
0
0
0
0
0
0
0
0
0
0
0
0
0
0
0
0
0
0
0
0
0
0
0
0
0
0
0
0
0
0
0
0
0
0
0
0
0
0
0
0
0
0
0
0
0
0
0
0
0
0
0
0
0
0
0
0
0
0
0
0
0
0
0
0
0
0
0
0
0
0
0
0
0
0
0
0
0
0
0
0
0
0
0
0
0
0
0
0
0
0
0
0
0
0
0
0
0
0
0
0
0
0
0
0
0
0
0
0
0
0
0
0
0
0
0
0
0
0
0
0
0
0
0
0
0
0
0
0
0
0
0
0
0
0
0
0
0
0
0
0
0
0
0
0
0
0
0
0
0
0
0
0
0
0
0
0
0
0
0
0
0
0
0
0
0
0
0
0
0
0
0
0
0
0
0
0
0
0
0
0
0
0
0
0
0
0
0
0
0
0
0
0
0
0
0
0
0
0
0
0
0
0
0
0
0
0
0
0
0
0
0
0
0
0
0
0
0
0
0
0
0
0
0
0
0
0
0
0
0
0
0
0
0
0
0
0
0
0
0
0
0
0
0
0
0
0
0
0
0
0
0
0
0
0
0
0
0
0
0
0
0
0
0
0
0
0
0
0
0
0
0
0
0
0
0
0
0
0
0
0
0
0
0
0
0
0
0
0
0
0
0
0
0
0
0
0
0
0
0
0
0
0
0
0
0
0
0
0
0
0
0
0
0
0
0
0
0
0
0
0
0
0
0
0
0
0
0
0
0
0
0
0
0
0
0
0
0
0
0
0
0
0
0
0
0
0
0
0
0
0
0
0
0
0
0
0
0
0
0
0
0
0
0
0
0
0
0
0
0
0
0
0
0
0
0
0
0
0
0
0
0
0
0
0
0
0
0
0
0
0
0
0
0
0
0
0
0
0
0
0
0
0
0
0
0
0
0
0
0
0
0
0
0
0
0
0
0
0
0
0
0
0
0
0
0
0
0
0
0
0
0
0
0
0
0
0
0
0
0
0
0
0
0
0
0
0
0
0
0
0
0
0
0
0
0
0
0
0
0
0
0
0
0
0
0
0
0
0
0
0
0
0
0
0
0
0
0
0
0
0
0
0
0
0
0
0
0
0
0
0
0
0
0
0
0
0
0
0
0
0
0
0
0
0
0
0
0
0
0
0
0
0
0
0
0
0
0
0
0
0
0
0
0
0
0
0
0
0
0
0
0
0
0
0
0
0
0
0
0
0
0
0
0
0
0
0
0
0
0
0
0
0
0
0
0
0
0
0
0
0
0
0
0
0
0
0
0
0
0
0
0
0
0
0
0
0
0
0
0
0
0
0
0
0
0
0
0
0
0
0
0
0
0
0
0
0
0
0
0
0
0
0
0
0
0
0
0
0
0
0
0
0
0
0
0
0
0
0
0
0
0
0
0
0
0
0
0
0
0
0
0
0
0
0
49
259
482
681
826
891
863
740
536
278
1
-258
-463
-586
-610
-536
-377
-158
86
318
505
620
646
582
439
239
9
-219
-413
-550
-610
-589
-489
-326
-124
91
286
433
512
510
423
262
47
-194
-428
-624
-756
-804
-761
-633
-436
-199
48
270
438
530
533
449
290
79
-154
-375
-555
-668
-701
-649
-521
-337
-124
88
268
390
437
404
295
127
-77
-288
-475
-614
-686
-679
-596
-446
-249
-29
184
362
480
524
485
368
185
-38
-273
-485
-646
-729
-720
-620
-440
-206
47
281
460
554
546
436
239
-15
-289
-541
-734
-837
-835
-728
-531
-272
14
286
509
654
703
652
511
300
48
-210
-442
-616
-712
-718
-637
-480
-269
-35
191
377
498
537
489
360
165
-69
-310
-528
-693
-782
-781
-690
-518
-288
-27
230
452
609
680
658
547
363
135
-104
-318
-474
-547
-525
-409
-215
31
295
541
736
855
884
823
688
502
299
116
-14
-63
-15
135
375
683
1025
1366
1668
1898
2031
2059
1985
1828
1615
1385
1175
1021
948
971
1092
1294
1550
1827
2085
2289
2411
2435
2357
2191
1961
1700
1447
1240
1108
1071
1136
1292
1519
1782
2043
2263
2408
2456
2397
2237
1996
1706
1408
1140
939
832
831
937
1134
1394
1682
1960
2192
2348
2409
2368
2230
2013
1742
1451
1172
939
777
704
726
838
1025
1259
1508
1737
1913
2010
2012
1917
1736
1494
1222
957
735
583
516
535
624
758
902
1018
1074
1048
929
725
458
158
-134
-381
-552
-625
-593
-466
-265
-23
221
429
568
615
559
405
170
-116
-418
-700
-927
-1071
-1116
-1061
-914
-698
-443
-184
45
212
296
286
183
1
-234
-491
-736
-937
-1066
-1105
-1051
-911
-704
-461
-217
-7
138
195
155
25
-178
-424
-678
-903
-1067
-1146
-1131
-1026
-846
-619
-378
-159
8
100
108
32
-114
-307
-521
-723
-887
-987
-1009
-949
-813
-618
-389
-155
54
208
288
281
189
21
-199
-443
-679
-874
-1006
-1060
-1032
-933
-779
-599
-420
-270
-171
-136
-169
-262
-400
-561
-721
-853
-938
-958
-907
-786
-608
-390
-159
55
226
327
343
269
109
-116
-378
-643
-873
-1036
-1109
-1080
-953
-747
-491
-223
20
204
302
300
200
17
-224
-486
-732
-928
-1045
-1068
-994
-833
-605
-342
-81
142
296
357
315
173
-52
-330
-624
-896
-1107
-1227
-1238
-1136
-932
-652
-332
-16
253
440
520
482
334
100
-183
-472
-723
-896
-964
-916
-760
-520
-233
57
306
475
540
493
343
112
-160
-434
-666
-825
-889
-852
-725
-530
-298
-66
131
267
324
298
197
41
-143
-327
-480
-579
-608
-560
-438
-256
-35
200
423
609
735
787
757
648
470
241
-14
-267
-488
-651
-736
-731
-635
-460
-226
36
293
511
661
721
685
559
361
121
-125
-340
-489
-552
-518
-392
-191
54
308
533
697
776
758
648
460
223
-30
-262
-442
-544
-553
-470
-309
-92
147
374
553
656
668
583
410
171
-102
-373
-603
-759
-820
-774
-626
-393
-107
195
471
684
803
809
700
485
193
-142
-474
-761
-963
-1054
-1022
-870
-620
-308
22
323
550
671
669
544
318
24
-290
-577
-793
-907
-900
-776
-554
-270
33
311
524
643
655
562
380
139
-128
-384
-596
-738
-797
-767
-657
-483
-267
-38
176
351
465
505
468
359
192
-11
-221
-410
-550
-620
-611
-520
-360
-154
69
277
436
523
522
433
265
43
-203
-437
-624
-737
-757
-678
-510
-274
-3
266
493
645
699
644
485
244
-48
-350
-619
-816
-912
-893
-763
-540
-257
43
316
523
634
633
522
319
52
-239
-511
-728
-860
-891
-819
-655
-424
-160
103
326
482
551
524
407
217
-19
-269
-498
-674
-775
-788
-711
-558
-351
-121
100
280
396
431
382
259
80
-128
-336
-512
-633
-683
-653
-548
-380
-171
52
262
430
535
564
511
382
193
-31
-261
-464
-610
-680
-660
-553
-373
-144
99
321
488
576
570
472
296
68
-179
-410
-591
-698
-717
-648
-501
-299
-71
151
338
464
512
476
362
185
-32
-259
-465
-622
-706
-706
-618
-455
-240
-3
222
403
510
529
455
298
80
-165
-402
-597
-720
-753
-690
-540
-323
-72
177
390
534
586
537
391
167
-107
-392
-649
-841
-940
-929
-808
-590
-305
9
309
554
713
764
702
539
298
16
-267
-512
-683
-760
-733
-609
-407
-157
103
338
513
605
602
506
331
102
-150
-391
-587
-715
-757
-711
-583
-392
-162
75
288
448
532
527
432
257
22
-242
-500
-717
-860
-906
-844
-678
-427
-122
196
484
702
819
819
705
494
217
-82
-359
-574
-696
-709
-613
-425
-176
96
349
545
654
658
557
364
108
-178
-451
-676
-822
-867
-807
-651
-421
-149
129
375
557
653
652
555
377
141
-120
-372
-583
-727
-786
-751
-630
-438
-201
50
280
458
560
572
492
334
120
-117
-343
-523
-630
-648
-573
-417
-201
42
276
468
589
623
565
424
222
-11
-241
-433
-560
-602
-553
-421
-224
7
240
436
565
605
548
397
172
-100
-382
-634
-820
-913
-900
-780
-569
-294
7
295
531
683
732
675
521
296
32
-232
-458
-616
-685
-657
-540
-353
-126
109
317
469
545
536
446
289
88
-130
-334
-498
-601
-630
-582
-464
-292
-89
120
307
447
521
519
439
292
95
-124
-337
-512
-625
-658
-606
-472
-274
-39
200
409
556
619
587
462
260
9
-258
-503
-693
-801
-813
-727
-558
-330
-77
164
358
478
509
447
302
99
-130
-351
-527
-631
-643
-559
-388
-152
116
378
596
738
780
714
547
298
3
-299
-564
-753
-841
-813
-674
-444
-155
151
429
641
757
761
656
458
198
-88
-358
-575
-710
-748
-686
-535
-320
-73
170
376
515
567
527
399
202
-37
-286
-512
-684
-777
-777
-683
-507
-269
1
269
501
666
744
724
610
415
165
-107
-364
-574
-708
-749
-692
-546
-334
-87
159
369
512
569
532
411
224
3
-217
-404
-529
-573
-530
-406
-219
3
230
431
578
654
649
564
412
216
4
-195
-351
-438
-443
-358
-192
39
304
568
796
956
1024
988
852
633
363
78
-181
-378
-486
-491
-395
-213
26
289
538
740
870
911
864
736
550
332
114
-73
-203
-257
-226
-112
73
306
557
793
982
1096
1117
1039
870
629
350
68
-175
-347
-421
-387
-250
-28
245
529
782
964
1047
1016
873
636
337
17
-281
-517
-658
-687
-601
-416
-161
125
398
618
751
777
693
511
258
-30
-311
-544
-697
-748
-694
-542
-317
-53
211
437
590
649
602
453
222
-62
-361
-637
-852
-980
-1002
-917
-737
-486
-198
88
334
506
585
561
440
244
0
-255
-484
-654
-741
-732
-628
-440
-195
76
336
550
688
727
660
492
241
-61
-375
-658
-870
-979
-964
-824
-573
-241
129
490
795
1003
1090
1048
887
638
341
45
-200
-353
-385
-281
-46
299
721
1178
1623
2017
2324
2525
2614
2601
2508
2369
2222
2105
2051
2079
2197
2396
2649
2918
3157
3323
3380
3303
3087
2743
2304
1815
1329
897
563
354
281
334
486
697
921
1114
1235
1258
1174
988
722
405
75
-228
-469
-622
-670
-613
-460
-235
31
301
537
703
774
736
588
343
30
-315
-648
-928
-1119
-1197
-1153
-996
-749
-449
-139
136
338
441
433
318
120
-132
-397
-636
-817
-914
-919
-835
-679
-478
-263
-68
80
159
158
81
-62
-249
-450
-637
-781
-859
-860
-780
-629
-427
-201
16
192
300
322
252
95
-130
-395
-663
-899
-1070
-1153
-1135
-1020
-821
-566
-290
-29
182
314
351
288
136
-84
-343
-602
-826
-985
-1056
-1027
-902
-698
-444
-175
70
256
356
352
244
45
-218
-510
-792
-1025
-1177
-1228
-1169
-1012
-778
-498
-211
45
236
338
339
241
59
-182
-449
-706
-920
-1061
-1113
-1068
-935
-732
-484
-227
4
177
270
269
174
-2
-230
-476
-702
-869
-949
-927
-799
-582
-303
-2
279
496
619
627
517
306
22
-295
-600
-849
-1008
-1055
-984
-806
-546
-240
66
332
521
607
579
442
216
-66
-365
-638
-847
-963
-968
-863
-661
-389
-87
205
447
606
663
611
460
236
-26
-286
-507
-655
-710
-669
-540
-347
-125
89
259
358
370
293
140
-63
-283
-483
-628
-693
-663
-536
-322
-44
265
572
840
1039
1149
1160
1072
899
663
394
125
-110
-284
-374
-371
-277
-105
121
370
607
798
918
948
884
733
516
263
8
-211
-361
-418
-371
-222
14
306
617
905
1129
1257
1270
1163
949
657
330
16
-239
-397
-434
-343
-140
144
467
782
1044
1218
1284
1241
1102
895
654
415
211
66
-7
-6
63
183
336
501
656
784
868
896
861
761
603
399
171
-56
-252
-390
-448
-411
-281
-72
187
461
707
887
972
949
821
608
344
71
-169
-338
-412
-381
-252
-48
200
453
672
824
887
851
719
508
245
-38
-308
-531
-682
-746
-716
-600
-412
-180
64
287
460
558
569
491
338
132
-98
-318
-494
-597
-610
-527
-360
-128
135
391
601
733
762
680
490
215
-113
-451
-756
-988
-1115
-1123
-1010
-793
-501
-175
144
412
597
675
639
498
276
5
-273
-519
-698
-786
-773
-662
-472
-234
14
233
390
458
426
299
95
-156
-413
-638
-795
-860
-819
-679
-456
-183
103
363
562
675
687
600
427
193
-70
-326
-541
-686
-746
-711
-589
-398
-164
80
299
462
544
533
429
248
15
-235
-465
-640
-736
-738
-648
-481
-267
-41
158
296
349
306
175
-27
-270
-516
-729
-876
-934
-892
-753
-534
-262
29
304
530
681
740
699
566
356
97
-179
-439
-649
-783
-822
-760
-605
-378
-111
155
378
522
557
473
273
-19
-363
-712
-1015
-1226
-1312
-1259
-1071
-775
-412
-31
315
581
734
758
659
456
184
-116
-401
-634
-785
-838
-789
-650
-442
-195
59
286
455
545
541
440
252
-2
-294
-590
-854
-1053
-1163
-1171
-1076
-891
-642
-361
-88
143
302
370
342
227
47
-168
-384
-567
-689
-730
-686
-563
-380
-161
60
252
389
450
427
323
150
-70
-310
-539
-730
-858
-906
-869
-752
-567
-341
-103
116
284
376
379
291
123
-102
-347
-573
-745
-832
-816
-696
-485
-211
85
362
578
703
719
625
437
183
-97
-362
-575
-704
-735
-663
-502
-276
-19
231
439
573
615
558
410
190
-69
-332
-558
-713
-772
-721
-564
-318
-15
305
598
826
956
973
875
679
414
119
-163
-392
-536
-577
-512
-352
-125
136
391
601
736
775
713
555
324
49
-233
-486
-677
-782
-789
-695
-514
-270
6
280
516
685
767
752
644
459
222
-34
-274
-465
-579
-601
-528
-370
-149
101
343
538
652
662
559
349
54
-291
-644
-958
-1192
-1315
-1312
-1184
-949
-638
-297
29
295
469
529
472
310
70
-211
-490
-728
-895
-970
-947
-833
-651
-429
-201
-3
137
200
177
71
-99
-309
-527
-720
-858
-918
-890
-776
-590
-356
-108
119
292
384
381
284
107
-125
-377
-612
-794
-896
-901
-809
-630
-388
-114
154
383
545
622
604
499
323
101
-133
-348
-512
-599
-591
-483
-277
8
349
715
1071
1387
1638
1808
1893
1902
1853
1775
1700
1658
1675
1768
1940
2180
2464
2759
3023
3218
3307
3267
3088
2776
2357
1869
1360
882
485
204
63
66
195
418
688
954
1168
1288
1291
1170
938
625
272
-74
-368
-574
-671
-652
-529
-327
-84
162
369
506
550
493
342
118
-151
-429
-678
-866
-969
-973
-881
-705
-472
-215
27
219
334
351
266
90
-154
-434
-710
-943
-1101
-1160
-1114
-968
-744
-473
-195
50
227
309
287
163
-44
-305
-582
-837
-1032
-1139
-1143
-1044
-855
-604
-325
-59
156
290
323
250
80
-163
-445
-726
-968
-1137
-1210
-1178
-1046
-834
-573
-299
-52
136
241
249
163
-3
-224
-467
-700
-891
-1016
-1060
-1020
-903
-728
-519
-306
-118
21
93
88
7
-139
-331
-543
-745
-908
-1010
-1031
-966
-818
-603
-347
-82
156
332
420
400
271
43
-259
-597
-927
-1204
-1390
-1457
-1394
-1207
-920
-571
-207
124
376
519
537
433
228
-41
-329
-592
-787
-884
-870
-748
-540
-279
-5
238
414
495
471
345
137
-121
-390
-630
-806
-893
-880
-772
-585
-350
-102
122
291
381
379
288
123
-92
-326
-545
-717
-818
-832
-757
-601
-383
-129
127
353
517
597
582
472
280
33
-237
-492
-697
-822
-848
-770
-598
-355
-73
206
446
612
683
647
511
296
31
-246
-497
-685
-785
-783
-678
-482
-219
77
368
620
802
891
880
774
591
359
113
-110
-278
-365
-358
-260
-83
145
390
616
787
877
872
771
586
345
79
-174
-379
-505
-535
-463
-298
-60
218
503
756
948
1054
1063
976
807
580
325
77
-131
-272
-329
-297
-182
-5
208
424
611
740
791
755
636
449
219
-23
-243
-413
-510
-522
-450
-306
-114
99
299
455
544
552
474
318
103
-142
-383
-587
-723
-773
-725
-583
-366
-100
179
432
624
726
723
614
414
149
-143
-420
-642
-777
-807
-729
-559
-325
-67
171
348
432
407
272
45
-241
-544
-818
-1023
-1129
-1118
-993
-770
-479
-161
145
400
574
646
612
481
272
15
-255
-505
-702
-823
-852
-787
-637
-424
-176
71
280
421
472
420
270
38
-243
-535
-799
-995
-1094
-1080
-954
-732
-442
-126
172
412
560
596
517
333
72
-230
-527
-779
-949
-1014
-963
-804
-558
-261
46
320
525
631
627
513
308
40
-253
-531
-757
-900
-944
-885
-735
-515
-255
8
237
402
478
456
338
139
-115
-388
-643
-844
-960
-975
-885
-702
-452
-171
100
320
456
488
410
232
-19
-306
-587
-819
-970
-1017
-954
-789
-547
-261
27
278
455
535
506
373
152
-126
-424
-703
-926
-1061
-1091
-1011
-830
-570
-266
46
324
535
653
663
567
381
130
-148
-415
-634
-776
-822
-766
-618
-400
-144
113
332
482
542
502
369
160
-95
-360
-595
-767
-851
-835
-720
-523
-272
-3
244
434
538
539
436
243
-13
-298
-572
-797
-944
-994
-940
-794
-577
-322
-65
157
315
390
374
273
102
-111
-333
-531
-676
-745
-729
-628
-453
-229
14
244
427
537
557
483
323
98
-163
-426
-656
-823
-905
-893
-792
-619
-401
-170
38
193
272
264
169
1
-215
-447
-660
-823
-909
-901
-799
-612
-362
-81
197
437
607
688
669
553
358
111
-154
-403
-600
-718
-741
-664
-499
-269
-6
250
459
588
612
522
326
47
-278
-604
-883
-1076
-1151
-1095
-915
-633
-286
78
414
679
842
889
821
656
422
155
-106
-325
-476
-541
-513
-398
-213
17
261
486
660
755
751
644
439
157
-171
-502
-793
-1004
-1102
-1070
-908
-633
-281
103
466
762
952
1015
949
770
509
211
-77
-309
-447
-473
-381
-187
79
378
661
887
1017
1031
923
705
406
68
-262
-539
-722
-787
-725
-544
-271
54
388
682
896
1006
998
878
668
402
121
-132
-319
-414
-402
-287
-84
175
453
709
905
1010
1009
898
690
411
98
-210
-472
-658
-744
-725
-610
-420
-188
49
254
393
447
407
278
79
-162
-411
-631
-793
-874
-863
-762
-584
-354
-103
135
327
448
480
419
271
53
-207
-477
-725
-919
-1035
-1059
-988
-831
-610
-352
-93
133
296
373
354
241
50
-191
-448
-681
-855
-943
-930
-814
-610
-345
-54
221
443
582
620
554
398
180
-64
-292
-464
-551
-534
-413
-203
67
357
623
828
941
947
847
663
430
194
2
-101
-81
81
385
814
1330
1889
2438
2927
3314
3568
3677
3642
3485
3236
2936
2627
2347
2129
1990
1936
1957
2032
2133
2227
2280
2266
2167
1977
1706
1371
1002
636
307
48
-117
-174
-124
19
231
475
715
911
1031
1053
968
780
511
189
-146
-453
-695
-843
-881
-808
-638
-396
-121
148
371
516
561
501
341
106
-172
-456
-706
-889
-978
-964
-849
-652
-402
-136
106
286
378
365
246
38
-233
-529
-809
-1036
-1179
-1222
-1160
-1006
-783
-524
-266
-44
112
185
169
70
-95
-299
-511
-701
-841
-910
-898
-805
-644
-435
-208
6
175
274
285
203
36
-194
-456
-714
-931
-1072
-1117
-1054
-891
-649
-359
-61
206
406
514
515
412
222
-28
-304
-569
-786
-927
-974
-924
-782
-570
-317
-59
170
336
415
397
281
84
-169
-443
-698
-900
-1019
-1038
-953
-777
-534
-261
3
220
359
400
337
180
-49
-315
-578
-799
-946
-996
-938
-779
-539
-249
50
320
522
628
624
508
297
20
-288
-583
-824
-979
-1027
-964
-799
-558
-277
3
240
401
464
421
282
70
-180
-431
-641
-778
-818
-754
-593
-357
-76
210
462
646
736
719
598
388
120
-171
-446
-666
-802
-835
-761
-588
-340
-49
246
507
700
802
801
701
518
283
30
-205
-386
-488
-495
-405
-230
8
278
544
773
935
1008
984
862
657
392
99
-187
-432
-606
-685
-658
-527
-308
-28
280
575
820
982
1042
995
851
635
385
142
-52
-165
-176
-79
114
375
667
946
1171
1309
1339
1258
1078
825
539
260
30
-118
-162
-97
65
299
567
829
1042
1174
1201
1118
935
677
382
90
-156
-322
-383
-333
-180
54
335
624
880
1070
1169
1164
1057
864
610
329
55
-178
-342
-419
-402
-298
-124
92
318
519
664
731
706
589
395
147
-120
-371
-571
-694
-723
-654
-498
-279
-28
218
423
559
609
566
439
248
22
-207
-406
-549
-616
-602
-511
-356
-161
45
235
383
470
484
424
298
124
-75
-270
-434
-542
-577
-530
-405
-216
14
254
472
638
729
730
641
473
250
2
-237
-433
-560
-602
-556
-430
-243
-24
196
385
516
571
542
433
261
47
-177
-382
-538
-622
-622
-536
-376
-161
77
307
496
616
649
589
444
234
-12
-257
-467
-613
-674
-643
-525
-338
-109
128
339
494
571
559
457
281
53
-196
-432
-622
-739
-766
-698
-542
-318
-58
203
428
583
645
604
463
242
-27
-305
-553
-735
-824
-807
-687
-481
-218
64
327
534
660
688
618
461
241
-10
-256
-462
-598
-642
-587
-437
-211
62
348
608
805
915
921
827
647
410
156
-75
-244
-320
-288
-146
92
399
739
1072
1362
1578
1702
1728
1664
1532
1360
1181
1031
939
926
1002
1163
1393
1665
1946
2198
2387
2488
2487
2384
2195
1947
1677
1424
1225
1108
1090
1173
1344
1577
1841
2099
2318
2469
2537
2514
2407
2232
2012
1775
1552
1368
1246
1198
1230
1336
1502
1703
1911
2093
2221
2271
2229
2093
1875
1601
1305
1025
801
664
637
726
920
1193
1509
1823
2091
2275
2349
2302
2138
1879
1558
1219
903
649
487
431
480
619
816
1033
1230
1367
1415
1355
1185
920
587
225
-123
-415
-615
-703
-674
-535
-315
-49
222
454
614
675
627
476
240
-51
-360
-648
-880
-1028
-1078
-1028
-888
-681
-438
-196
10
147
194
143
-2
-220
-480
-744
-973
-1130
-1190
-1143
-995
-767
-493
-214
26
191
255
208
56
-179
-463
-754
-1012
-1200
-1292
-1277
-1159
-955
-695
-415
-153
57
187
223
162
15
-195
-437
-675
-873
-1003
-1041
-978
-817
-575
-281
29
316
541
673
691
589
376
76
-275
-633
-952
-1191
-1319
-1320
-1193
-957
-646
-305
19
279
441
482
398
203
-71
-384
-690
-943
-1110
-1168
-1114
-960
-731
-465
-202
16
158
204
147
-4
-228
-492
-760
-994
-1163
-1243
-1224
-1107
-910
-657
-383
-123
87
219
256
191
33
-197
-469
-745
-986
-1157
-1233
-1200
-1059
-830
-542
-235
46
259
371
362
228
-16
-336
-689
-1024
-1290
-1447
-1471
-1355
-1115
-784
-408
-43
260
458
525
455
262
-21
-350
-675
-949
-1134
-1205
-1155
-996
-753
-459
-156
118
330
459
493
435
299
107
-110
-322
-497
-612
-650
-603
-476
-285
-53
188
405
566
647
630
514
308
38
-264
-556
-801
-962
-1016
-952
-776
-510
-189
144
443
667
787
786
669
456
181
-113
-380
-581
-684
-676
-560
-357
-98
174
418
598
688
676
567
378
139
-116
-351
-532
-637
-651
-574
-416
-199
49
299
518
677
756
744
642
461
225
-38
-293
-505
-645
-692
-638
-489
-267
-2
267
499
658
719
671
519
283
-5
-302
-568
-765
-864
-853
-733
-524
-254
37
310
528
662
697
629
468
237
-32
-303
-540
-711
-794
-775
-657
-455
-194
91
362
582
720
754
678
499
240
-65
-375
-647
-844
-939
-917
-784
-557
-272
30
303
509
616
611
493
281
8
-285
-554
-760
-871
-872
-763
-558
-287
13
301
538
693
747
693
538
304
21
-276
-547
-759
-883
-905
-822
-646
-403
-125
147
373
519
564
498
330
85
-201
-486
-724
-882
-934
-873
-709
-467
-185
96
334
495
558
518
383
178
-68
-317
-534
-688
-760
-739
-630
-448
-216
32
264
448
558
576
498
332
100
-169
-437
-667
-824
-887
-843
-699
-473
-197
89
344
533
631
625
519
327
80
-187
-436
-633
-750
-774
-701
-543
-322
-68
183
394
533
578
516
353
105
-195
-511
-800
-1022
-1145
-1150
-1035
-816
-521
-191
130
401
587
664
627
486
264
-5
-283
-530
-717
-818
-822
-733
-564
-340
-90
151
353
487
538
496
368
169
-75
-331
-566
-749
-854
-868
-790
-632
-419
-184
38
213
311
318
230
61
-163
-406
-630
-795
-872
-845
-712
-486
-198
112
402
628
759
774
671
464
180
-141
-457
-725
-910
-990
-959
-821
-600
-326
-36
230
436
556
575
491
315
71
-210
-488
-726
-889
-953
-909
-761
-527
-241
56
320
512
602
574
430
189
-116
-441
-738
-963
-1082
-1078
-948
-710
-396
-50
281
552
725
779
706
518
243
-81
-407
-690
-891
-981
-950
-801
-557
-255
61
347
561
672
663
535
309
16
-300
-596
-828
-965
-989
-899
-708
-445
-149
139
379
539
599
552
408
188
-76
-349
-594
-779
-881
-888
-799
-629
-399
-141
113
329
480
546
520
404
214
-24
-280
-519
-707
-820
-840
-764
-602
-375
-117
133
338
463
488
403
220
-40
-338
-631
-875
-1032
-1078
-1004
-820
-553
-241
69
334
516
592
556
416
196
-68
-338
-578
-756
-853
-864
-794
-659
-483
-291
-109
42
146
195
186
126
25
-105
-244
-377
-484
-551
-568
-527
-430
-285
-109
76
244
367
425
401
294
113
-119
-371
-605
-784
-877
-866
-748
-538
-264
31
304
511
620
611
486
263
-25
-334
-616
-832
-949
-953
-845
-643
-379
-92
176
386
512
538
462
299
74
-179
-426
-631
-766
-813
-765
-631
-426
-181
74
302
473
561
553
449
261
12
-266
-536
-765
-923
-989
-956
-829
-627
-378
-114
128
317
430
453
385
236
29
-208
-442
-641
-776
-827
-788
-663
-469
-230
18
241
405
486
469
357
164
-83
-345
-583
-759
-844
-824
-700
-491
-230
41
276
437
495
438
274
26
-269
-565
-818
-988
-1052
-999
-837
-590
-291
20
303
523
656
691
626
475
260
7
-251
-485
-665
-771
-792
-725
-579
-374
-136
101
303
438
485
431
280
47
-238
-534
-801
-997
-1093
-1073
-934
-695
-385
-47
274
534
701
754
688
515
263
-32
-327
-582
-761
-839
-806
-668
-444
-164
132
403
613
731
740
637
435
163
-142
-435
-676
-827
-865
-783
-593
-321
-6
305
570
750
820
772
617
379
94
-194
-441
-612
-680
-637
-488
-253
36
338
613
823
939
943
834
626
346
34
-269
-520
-684
-736
-669
-492
-231
78
388
656
845
929
899
763
543
276
2
-238
-410
-490
-470
-357
-168
67
316
545
722
827
845
775
626
418
176
-70
-288
-452
-539
-538
-448
-280
-56
195
435
630
748
768
681
494
228
-82
-393
-663
-853
-936
-900
-751
-510
-215
90
359
554
643
616
477
247
-41
-345
-622
-834
-954
-968
-879
-701
-465
-206
36
225
334
348
263
93
-139
-399
-651
-857
-990
-1028
-964
-804
-567
-283
10
274
473
580
580
469
262
-18
-334
-645
-910
-1093
-1169
-1128
-976
-732
-431
-113
178
402
531
550
460
278
36
-228
-471
-656
-752
-743
-626
-416
-140
166
462
711
882
957
931
818
641
439
256
133
107
202
428
775
1213
1703
2197
2643
2997
3223
3305
3244
3057
2779
2451
2117
1821
1592
1450
1398
1427
1514
1627
1734
1802
1809
1739
1590
1369
1096
797
503
243
40
-86
-130
-93
10
159
326
481
597
650
627
523
343
106
-166
-442
-690
-881
-994
-1015
-942
-786
-570
-321
-74
136
280
337
298
168
-38
-293
-562
-810
-1001
-1111
-1125
-1040
-871
-642
-387
-145
48
163
182
101
-68
-299
-558
-805
-1002
-1117
-1132
-1043
-863
-617
-341
-76
138
269
298
221
48
-195
-473
-748
-982
-1141
-1204
-1164
-1027
-812
-549
-275
-26
162
264
265
161
-33
-297
-597
-895
-1154
-1339
-1426
-1403
-1272
-1052
-769
-461
-169
68
219
266
205
46
-182
-445
-701
-912
-1043
-1076
-1006
-844
-616
-359
-113
81
192
200
104
-84
-336
-615
-880
-1093
-1222
-1249
-1173
-1005
-770
-502
-238
-14
142
210
186
75
-103
-322
-550
-754
-907
-986
-980
-889
-723
-503
-255
-12
195
338
397
363
238
37
-216
-488
-745
-952
-1084
-1122
-1061
-911
-691
-433
-172
56
220
297
277
165
-23
-258
-506
-729
-893
-974
-957
-844
-651
-404
-140
103
291
394
398
302
122
-115
-374
-616
-804
-911
-919
-826
-643
-393
-107
179
428
611
704
697
591
398
142
-147
-433
-682
-861
-948
-932
-815
-611
-348
-61
210
428
565
602
537
384
168
-73
-299
-472
-563
-555
-448
-257
-9
259
507
700
810
820
730
553
315
51
-202
-407
-534
-565
-495
-334
-105
161
426
653
812
881
853
736
550
324
94
-105
-241
-294
-255
-128
71
316
573
809
994
1102
1119
1042
879
652
390
129
-95
-250
-314
-275
-138
80
346
622
865
1037
1112
1074
927
693
405
106
-163
-361
-462
-452
-334
-125
144
437
713
939
1086
1137
1088
947
732
470
191
-72
-288
-434
-493
-460
-342
-154
77
317
533
694
773
760
652
464
219
-49
-301
-502
-623
-647
-570
-406
-178
79
327
526
646
669
590
419
181
-89
-353
-572
-712
-753
-691
-536
-313
-56
192
393
513
532
442
255
-6
-306
-602
-854
-1027
-1096
-1052
-900
-657
-356
-36
262
501
651
693
624
456
213
-71
-354
-595
-759
-822
-773
-618
-380
-91
205
465
649
728
687
531
277
-41
-380
-694
-939
-1083
-1105
-1004
-792
-499
-163
170
455
656
748
720
580
351
66
-232
-500
-701
-809
-810
-707
-516
-268
2
254
452
569
588
510
345
117
-140
-393
-607
-752
-809
-771
-644
-446
-207
39
257
414
485
459
338
137
-115
-381
-624
-806
-902
-896
-790
-597
-344
-68
195
406
538
575
513
361
144
-108
-358
-572
-719
-778
-742
-616
-415
-168
91
327
505
598
590
481
281
16
-280
-566
-802
-954
-1001
-935
-762
-506
-205
98
355
530
595
538
364
96
-229
-565
-863
-1081
-1185
-1160
-1008
-747
-412
-47
298
577
753
801
714
504
195
-170
-544
-877
-1126
-1256
-1250
-1108
-846
-500
-113
264
583
805
904
870
715
464
156
-163
-448
-660
-771
-768
-656
-456
-199
74
321
505
599
589
477
278
22
-254
-512
-714
-832
-848
-763
-590
-357
-99
145
340
455
473
391
222
-10
-271
-524
-734
-870
-913
-858
-713
-494
-233
38
283
472
580
595
514
348
119
-145
-410
-641
-810
-891
-873
-757
-557
-297
-11
264
491
639
687
629
472
238
-41
-324
-570
-740
-808
-762
-609
-369
-77
226
495
691
787
772
651
449
200
-55
-275
-427
-491
-460
-344
-168
35
232
388
481
497
436
309
136
-57
-243
-396
-493
-520
-471
-348
-161
73
332
589
816
987
1080
1085
997
827
592
323
52
-184
-357
-444
-437
-339
-168
50
280
488
643
721
712
615
444
223
-17
-243
-422
-531
-552
-480
-325
-105
149
399
608
744
784
719
552
305
10
-293
-561
-757
-855
-843
-724
-519
-259
15
262
444
536
523
409
210
-44
-318
-571
-769
-883
-897
-811
-637
-399
-132
125
335
469
505
436
271
31
-250
-534
-782
-958
-1038
-1010
-880
-667
-402
-125
123
302
385
357
218
-13
-307
-622
-911
-1131
-1249
-1242
-1105
-853
-514
-128
257
595
846
984
997
891
686
418
129
-140
-348
-466
-480
-387
-201
54
344
636
896
1102
1238
1303
1307
1270
1217
1177
1179
1242
1377
1586
1859
2178
2515
2842
3127
3343
3467
3487
3398
3208
2932
2595
2229
1867
1541
1279
1102
1018
1024
1103
1229
1367
1482
1538
1510
1386
1168
876
540
200
-101
-324
-442
-441
-327
-122
137
403
629
773
806
716
511
217
-127
-471
-767
-972
-1061
-1021
-862
-612
-312
-11
245
415
471
406
229
-33
-342
-652
-918
-1101
-1176
-1134
-981
-739
-444
-137
138
346
457
458
351
151
-114
-409
-694
-933
-1095
-1160
-1121
-983
-765
-493
-200
77
305
458
519
481
349
142
-115
-388
-643
-846
-972
-1004
-939
-787
-569
-315
-62
155
306
368
335
210
14
-227
-478
-704
-873
-962
-960
-868
-701
-484
-246
-20
161
275
306
251
119
-68
-284
-496
-671
-783
-815
-761
-626
-429
-197
35
232
363
406
351
203
-20
-289
-566
-812
-990
-1075
-1051
-921
-703
-426
-131
140
348
461
463
353
147
-124
-419
-697
-916
-1042
-1057
-957
-755
-476
-159
154
422
609
692
660
518
283
-14
-335
-638
-884
-1041
-1090
-1024
-851
-595
-290
24
306
519
637
648
554
374
137
-120
-359
-546
-655
-674
-604
-460
-269
-59
137
292
386
409
360
251
100
-69
-229
-355
-427
-432
-366
-235
-54
155
365
547
674
726
695
579
393
161
-86
-312
-483
-570
-559
-445
-240
30
330
622
866
1029
1089
1040
890
662
388
108
-139
-319
-408
-394
-277
-76
182
464
732
951
1093
1140
1084
935
709
437
152
-107
-310
-429
-450
-370
-200
37
309
579
811
974
1046
1021
904
716
486
249
41
-105
-166
-133
-10
185
424
673
897
1063
1146
1136
1031
845
602
333
72
-146
-293
-352
-315
-191
1
230
459
651
772
799
720
539
276
-38
-361
-649
-862
-967
-947
-804
-552
-223
139
488
778
969
1036
972
785
502
161
-191
-506
-743
-869
-870
-747
-522
-226
96
399
640
784
814
728
540
279
-18
-305
-542
-698
-753
-702
-555
-337
-80
177
396
549
613
582
462
271
37
-205
-422
-583
-667
-661
-567
-400
-184
49
265
431
521
519
422
243
3
-264
-520
-728
-858
-889
-814
-640
-390
-97
201
463
653
746
729
608
400
138
-142
-399
-598
-713
-730
-651
-490
-273
-34
191
370
480
506
446
309
114
-115
-347
-555
-713
-803
-814
-745
-604
-406
-177
55
258
404
469
438
311
98
-173
-467
-742
-954
-1069
-1064
-934
-692
-369
-12
330
607
778
818
725
515
225
-98
-401
-637
-770
-780
-667
-451
-166
141
425
641
758
759
645
433
155
-151
-442
-677
-825
-868
-801
-634
-393
-110
177
431
619
718
715
613
427
181
-91
-353
-572
-719
-775
-734
-602
-397
-150
108
340
514
608
610
520
354
136
-103
-327
-507
-618
-646
-586
-450
-258
-36
184
371
500
554
525
419
249
40
-180
-381
-534
-616
-616
-533
-376
-169
61
279
453
557
572
492
325
91
-181
-455
-694
-867
-949
-929
-811
-611
-357
-86
165
361
476
496
422
269
64
-161
-369
-525
-606
-597
-499
-325
-99
146
378
562
674
696
624
467
245
-16
-282
-518
-695
-787
-783
-683
-501
-264
-4
238
428
535
540
440
249
-9
-295
-566
-782
-909
-925
-824
-620
-337
-13
308
583
776
863
833
693
462
175
-127
-404
-615
-733
-741
-637
-435
-161
147
449
704
876
943
895
739
494
194
-120
-404
-620
-738
-741
-628
-417
-135
178
477
722
881
933
874
716
484
217
-45
-261
-399
-439
-374
-214
19
290
561
791
949
1012
972
835
621
362
94
-143
-316
-399
-382
-266
-69
183
453
701
895
1005
1017
930
754
516
246
-19
-243
-397
-458
-418
-285
-75
182
452
697
883
987
993
905
736
515
275
52
-119
-216
-228
-158
-25
144
313
450
526
524
439
280
68
-167
-394
-581
-702
-740
-688
-553
-349
-99
168
422
634
778
835
798
668
457
187
-109
-397
-642
-812
-885
-851
-713
-492
-215
77
345
551
666
674
573
378
117
-173
-452
-679
-824
-870
-810
-654
-424
-153
120
355
522
596
568
443
239
-12
-274
-507
-677
-757
-734
-610
-403
-140
139
396
594
703
708
608
418
166
-109
-366
-565
-674
-672
-554
-331
-28
319
669
981
1220
1362
1399
1338
1203
1029
859
738
703
782
987
1309
1724
2193
2670
3105
3454
3684
3776
3731
3566
3311
3004
2687
2399
2168
2013
1937
1931
1977
2048
2114
2149
2134
2055
1907
1696
1434
1141
840
559
320
144
45
30
94
226
402
595
771
898
951
912
774
549
258
-64
-376
-636
-807
-866
-802
-623
-354
-34
289
569
767
851
810
652
397
83
-248
-550
-785
-923
-951
-870
-696
-456
-189
69
281
419
463
410
267
51
-208
-478
-723
-912
-1022
-1038
-956
-788
-556
-289
-23
207
370
447
427
316
128
-108
-360
-592
-773
-876
-890
-814
-662
-455
-223
-1
180
292
320
257
114
-91
-327
-558
-749
-868
-894
-819
-649
-407
-126
152
383
530
565
480
283
0
-328
-650
-921
-1098
-1153
-1079
-884
-598
-262
75
367
573
669
644
508
281
-1
-297
-567
-774
-892
-908
-822
-650
-418
-160
86
283
403
425
344
170
-75
-357
-636
-873
-1032
-1090
-1039
-882
-638
-339
-25
264
491
629
663
592
429
200
-63
-322
-541
-691
-750
-709
-575
-365
-109
157
396
570
654
632
506
292
20
-273
-542
-748
-859
-855
-737
-518
-228
95
405
662
834
899
852
702
473
200
-79
-325
-506
-597
-589
-484
-297
-55
209
461
666
801
849
805
678
488
262
31
-172
-322
-396
-388
-298
-140
64
284
490
654
752
771
708
571
380
162
-51
-228
-339
-363
-292
-129
109
393
688
953
1153
1257
1251
1133
919
639
335
50
-171
-297
-309
-210
-18
232
496
729
889
949
898
747
521
257
0
-207
-330
-350
-263
-80
172
460
745
993
1177
1278
1289
1214
1065
864
634
402
194
32
-67
-92
-42
77
248
448
646
815
925
955
897
754
539
280
12
-228
-407
-500
-493
-387
-199
44
306
549
739
847
859
773
602
369
106
-152
-370
-520
-583
-553
-437
-251
-22
217
435
600
690
691
602
433
206
-52
-309
-530
-688
-762
-743
-635
-453
-223
20
242
407
491
477
366
172
-77
-344
-589
-773
-866
-849
-721
-498
-209
104
397
630
767
791
695
493
212
-108
-424
-696
-888
-975
-949
-815
-592
-313
-14
264
484
618
651
579
415
183
-81
-342
-560
-708
-763
-720
-587
-382
-138
112
331
489
567
554
457
290
80
-140
-338
-484
-555
-541
-440
-266
-42
202
431
611
714
724
636
458
211
-73
-356
-599
-768
-839
-803
-666
-448
-181
98
347
532
627
620
516
333
99
-153
-385
-564
-667
-680
-605
-453
-247
-17
205
389
512
561
530
425
261
58
-157
-357
-517
-618
-645
-595
-473
-293
-78
143
338
477
534
493
352
121
-173
-492
-793
-1030
-1164
-1169
-1038
-782
-432
-36
351
678
897
979
914
715
413
56
-304
-616
-835
-932
-899
-742
-489
-178
144
432
644
753
743
616
389
95
-225
-526
-766
-910
-937
-841
-636
-349
-20
306
581
767
838
785
618
362
57
-253
-522
-712
-796
-763
-621
-391
-109
186
450
646
745
735
617
409
139
-154
-430
-650
-784
-814
-738
-569
-332
-64
197
411
547
582
511
344
103
-175
-451
-682
-835
-885
-822
-654
-402
-102
204
472
663
747
710
554
299
-18
-355
-664
-901
-1035
-1047
-935
-717
-421
-90
234
510
704
796
780
662
464
214
-54
-306
-510
-643
-694
-658
-543
-367
-154
64
259
403
476
468
379
223
25
-185
-374
-510
-568
-535
-412
-211
43
316
573
779
907
940
875
721
499
239
-23
-253
-419
-499
-482
-369
-176
72
340
590
787
900
912
822
640
392
115
-148
-359
-483
-498
-401
-202
71
381
685
939
1107
1167
1110
945
695
395
87
-187
-391
-498
-497
-392
-203
40
297
529
697
776
751
626
415
148
-141
-411
-628
-763
-798
-731
-571
-340
-70
201
439
608
686
661
532
315
36
-269
-562
-807
-972
-1037
-999
-865
-659
-415
-170
38
177
230
189
64
-122
-339
-551
-725
-833
-858
-797
-657
-458
-229
-1
194
330
388
359
246
64
-166
-414
-648
-838
-958
-991
-932
-784
-566
-302
-25
231
435
563
601
546
410
214
-11
-230
-409
-519
-541
-469
-310
-83
184
454
692
866
955
946
845
669
447
216
16
-113
-142
-52
163
491
907
1374
1850
2290
2655
2915
3055
3076
2994
2839
2649
2464
2320
2243
2246
2325
2461
2621
2768
2861
2869
2767
2552
2233
1837
1402
972
589
290
99
23
56
174
346
534
697
803
830
768
622
406
147
-123
-370
-562
-678
-702
-634
-483
-270
-24
221
430
572
623
572
420
182
-115
-433
-734
-977
-1129
-1171
-1096
-914
-648
-336
-19
258
458
556
537
406
181
-106
-417
-710
-948
-1101
-1150
-1091
-937
-708
-438
-163
79
256
344
333
224
32
-215
-484
-739
-942
-1067
-1096
-1026
-867
-643
-387
-136
74
213
259
207
65
-146
-393
-640
-849
-989
-1038
-990
-849
-634
-376
-112
120
287
364
337
207
-12
-294
-602
-897
-1140
-1300
-1354
-1293
-1125
-869
-558
-231
68
303
444
472
388
207
-45
-331
-608
-837
-985
-1031
-969
-810
-576
-304
-32
201
359
420
375
231
8
-262
-540
-785
-964
-1051
-1036
-921
-725
-475
-208
38
230
343
362
289
135
-76
-314
-545
-738
-864
-908
-862
-732
-537
-303
-62
155
316
398
390
290
113
-116
-364
-596
-777
-880
-889
-804
-636
-413
-167
62
242
344
352
267
101
-121
-366
-600
-789
-907
-940
-884
-751
-560
-337
-113
83
225
297
295
221
91
-74
-247
-401
-510
-554
-521
-411
-232
-3
249
493
698
838
892
852
722
518
267
2
-238
-422
-522
-525
-432
-255
-21
237
482
678
799
827
758
603
387
138
-107
-316
-459
-518
-485
-365
-173
64
318
554
745
867
907
862
739
558
342
122
-74
-220
-298
-300
-227
-91
87
282
464
606
686
692
622
485
301
95
-99
-254
-343
-353
-277
-125
84
319
547
733
848
872
797
628
386
97
-201
-473
-683
-807
-831
-754
-590
-365
-112
131
330
454
488
429
285
80
-153
-379
-562
-674
-696
-625
-469
-251
-3
240
442
573
613
554
402
176
-96
-378
-633
-828
-937
-944
-852
-672
-430
-163
90
289
404
416
318
122
-146
-449
-745
-992
-1155
-1211
-1153
-990
-746
-457
-165
89
270
353
326
196
-22
-294
-583
-848
-1051
-1162
-1163
-1052
-841
-555
-231
87
357
541
612
561
392
127
-200
-544
-860
-1104
-1246
-1267
-1167
-962
-683
-369
-64
191
364
434
397
263
53
-198
-452
-674
-831
-905
-886
-781
-608
-393
-171
26
167
231
208
101
-76
-298
-534
-750
-915
-1004
-1003
-910
-736
-503
-241
16
232
379
437
397
265
58
-196
-462
-705
-891
-994
-999
-905
-724
-481
-208
57
276
419
466
409
255
27
-245
-521
-764
-938
-1020
-998
-876
-673
-419
-151
91
271
363
353
242
45
-208
-480
-733
-932
-1047
-1061
-974
-796
-555
-283
-19
202
349
405
363
231
29
-216
-470
-699
-875
-976
-990
-919
-774
-576
-353
-136
43
159
193
139
1
-206
-453
-709
-937
-1105
-1185
-1160
-1030
-808
-521
-205
96
341
497
540
466
286
28
-270
-563
-808
-968
-1021
-962
-800
-563
-287
-16
209
355
400
338
179
-53
-324
-598
-834
-999
-1069
-1037
-907
-697
-435
-156
101
302
422
445
368
204
-24
-282
-533
-745
-886
-941
-904
-784
-601
-386
-172
8
127
169
128
11
-164
-369
-578
-758
-886
-942
-919
-817
-650
-435
-199
30
226
364
426
404
303
135
-78
-307
-517
-680
-772
-777
-695
-535
-320
-81
150
339
457
490
430
286
77
-168
-418
-636
-794
-871
-855
-747
-559
-315
-47
208
415
543
574
501
332
92
-186
-458
-682
-822
-853
-766
-573
-300
9
308
549
693
717
615
400
104
-228
-547
-806
-965
-1002
-909
-699
-401
-55
293
596
815
921
904
767
532
233
-88
-385
-618
-753
-773
-676
-474
-197
117
426
687
868
948
920
789
576
309
23
-249
-477
-638
-717
-710
-624
-474
-283
-79
110
257
340
343
263
107
-107
-349
-587
-785
-912
-948
-886
-734
-514
-260
-10
194
320
346
266
92
-152
-430
-702
-929
-1078
-1128
-1074
-924
-700
-435
-165
70
239
318
297
176
-26
-283
-558
-812
-1010
-1121
-1128
-1031
-842
-590
-312
-49
156
272
280
175
-27
-300
-604
-896
-1134
-1285
-1328
-1257
-1082
-827
-524
-212
72
298
442
494
457
344
178
-12
-195
-344
-436
-456
-397
-265
-73
158
406
646
857
1025
1141
1208
1235
1242
1249
1280
1356
1490
1688
1945
2243
2559
2858
3108
3278
3343
3289
3116
2837
2479
2076
1670
1301
1002
799
703
710
803
953
1125
1281
1386
1414
1348
1187
941
636
303
-22
-300
-501
-604
-599
-492
-303
-64
186
408
564
627
582
430
188
-114
-436
-736
-975
-1122
-1160
-1087
-916
-676
-402
-135
85
227
272
213
60
-165
-430
-697
-929
-1094
-1168
-1142
-1020
-822
-575
-316
-83
90
176
163
53
-138
-382
-644
-887
-1076
-1186
-1204
-1127
-971
-759
-523
-296
-110
8
45
-5
-133
-325
-555
-793
-1009
-1178
-1276
-1291
-1220
-1070
-859
-612
-361
-138
28
115
110
15
-155
-374
-609
-822
-979
-1055
-1033
-915
-716
-464
-194
53
243
346
347
243
47
-216
-513
-806
-1056
-1234
-1317
-1297
-1176
-971
-709
-425
-157
61
200
242
183
32
-188
-442
-693
-902
-1036
-1073
-1007
-847
-615
-346
-78
148
299
353
301
151
-76
-345
-618
-856
-1025
-1100
-1072
-946
-740
-486
-220
15
185
263
235
105
-110
-380
-664
-922
-1113
-1209
-1193
-1065
-842
-553
-238
63
307
465
518
461
307
80
-187
-455
-687
-852
-926
-901
-780
-582
-331
-62
189
388
508
531
453
282
42
-237
-517
-759
-927
-995
-953
-802
-562
-263
53
343
568
697
715
620
430
172
-117
-395
-626
-779
-837
-797
-670
-478
-251
-23
174
315
381
366
277
131
-48
-229
-381
-475
-490
-416
-254
-19
265
565
844
1068
1207
1243
1172
1001
753
459
158
-113
-322
-443
-467
-392
-234
-18
225
461
658
789
836
797
676
491
268
39
-161
-306
-375
-357
-254
-83
132
361
570
726
806
798
702
529
303
56
-179
-368
-487
-518
-458
-316
-114
119
348
538
657
685
613
445
198
-98
-404
-682
-892
-1009
-1014
-906
-700
-425
-118
176
418
574
623
561
400
167
-102
-365
-583
-724
-769
-716
-574
-372
-142
76
246
340
340
246
69
-165
-424
-670
-867
-986
-1009
-931
-760
-519
-238
45
293
471
560
547
435
241
-8
-278
-530
-730
-852
-880
-811
-658
-444
-201
37
233
358
394
334
183
-40
-306
-579
-824
-1008
-1107
-1104
-998
-801
-537
-238
58
314
496
579
553
420
194
-95
-411
-715
-966
-1133
-1195
-1146
-994
-758
-471
-172
100
312
437
461
382
214
-18
-282
-541
-758
-902
-953
-904
-759
-540
-276
-8
224
383
440
382
211
-50
-368
-697
-989
-1197
-1290
-1250
-1080
-802
-456
-90
244
499
640
651
534
310
15
-307
-611
-855
-1008
-1053
-988
-826
-594
-324
-56
176
343
425
414
314
143
-74
-305
-517
-679
-768
-769
-682
-519
-304
-68
153
324
417
415
317
135
-107
-374
-626
-824
-938
-945
-842
-636
-352
-24
309
604
828
955
974
888
715
484
234
4
-167
-251
-230
-99
129
430
770
1107
1402
1620
1735
1739
1637
1450
1211
960
739
584
524
572
726
967
1264
1577
1864
2087
2215
2233
2141
1953
1699
1417
1150
936
806
775
845
1001
1216
1452
1670
1834
1916
1902
1792
1602
1359
1098
857
671
566
558
648
823
1060
1329
1594
1824
1990
2073
2063
1963
1785
1552
1291
1031
799
621
511
478
520
625
772
939
1098
1222
1289
1286
1206
1054
842
593
333
93
-99
-222
-264
-222
-106
62
253
436
576
648
633
529
345
104
-162
-416
-624
-758
-800
-749
-614
-421
-203
4
163
249
244
147
-34
-275
-547
-813
-1041
-1203
-1279
-1260
-1149
-963
-726
-470
-229
-36
82
110
42
-113
-334
-591
-848
-1069
-1224
-1291
-1264
-1149
-968
-749
-531
-348
-230
-194
-248
-382
-574
-795
-1010
-1188
-1302
-1333
-1275
-1133
-923
-669
-401
-149
57
194
248
212
94
-91
-317
-554
-770
-933
-1022
-1023
-936
-774
-564
-336
-127
30
109
95
-13
-202
-444
-707
-951
-1143
-1253
-1266
-1182
-1012
-781
-522
-272
-63
75
126
85
-40
-230
-456
-686
-891
-1043
-1123
-1122
-1044
-900
-713
-510
-318
-165
-73
-54
-112
-240
-419
-626
-832
-1005
-1121
-1160
-1116
-992
-806
-582
-350
-144
7
80
65
-37
-212
-435
-675
-896
-1068
-1164
-1169
-1082
-912
-682
-422
-168
46
190
244
200
65
-142
-393
-652
-883
-1052
-1134
-1117
-1003
-805
-550
-272
-10
203
337
376
316
165
-54
-311
-570
-795
-952
-1019
-984
-849
-631
-358
-64
210
428
560
589
510
335
89
-193
-470
-701
-854
-906
-852
-702
-479
-218
43
263
413
472
433
304
105
-132
-375
-588
-744
-824
-819
-731
-572
-362
-128
100
296
436
502
486
389
221
5
-231
-453
-630
-733
-741
-647
-461
-204
88
373
608
754
785
692
482
181
-169
-519
-820
-1029
-1113
-1061
-878
-588
-233
139
477
734
876
886
764
531
222
-119
-441
-700
-860
-903
-825
-642
-383
-90
193
424
570
610
539
371
131
-146
-419
-650
-807
-867
-823
-679
-457
-186
96
354
552
665
677
586
406
159
-119
-393
-625
-785
-851
-814
-681
-471
-213
55
293
465
544
516
381
155
-131
-437
-722
-942
-1066
-1073
-961
-745
-456
-136
168
414
563
597
510
317
49
-255
-548
-787
-938
-979
-907
-733
-483
-194
93
336
501
564
515
361
122
-172
-481
-762
-980
-1104
-1118
-1019
-821
-551
-246
53
304
474
540
493
342
110
-170
-456
-707
-885
-965
-933
-793
-564
-278
27
308
528
655
674
583
395
136
-157
-444
-687
-852
-920
-882
-747
-534
-275
-5
238
420
517
517
421
243
8
-250
-495
-693
-817
-847
-781
-625
-402
-142
119
344
502
571
541
414
207
-52
-330
-590
-795
-919
-943
-864
-691
-447
-163
121
368
540
614
574
422
177
-131
-462
-770
-1013
-1156
-1179
-1075
-859
-560
-220
114
396
586
658
605
436
178
-129
-439
-704
-887
-958
-910
-749
-500
-201
102
364
544
618
572
415
168
-131
-440
-714
-912
-1009
-992
-865
-650
-377
-88
176
380
496
508
417
237
-7
-280
-545
-769
-920
-980
-938
-800
-581
-308
-14
264
491
639
687
628
471
234
-50
-343
-608
-809
-920
-925
-824
-632
-376
-93
177
396
531
564
491
324
87
-182
-443
-656
-788
-821
-749
-585
-357
-102
137
320
417
409
296
93
-171
-457
-723
-930
-1046
-1056
-954
-753
-479
-166
147
421
621
723
715
598
386
107
-204
-509
-767
-944
-1017
-976
-824
-580
-278
45
343
576
712
733
635
433
156
-156
-461
-713
-876
-926
-858
-682
-424
-122
181
439
616
687
641
487
247
-45
-347
-616
-815
-919
-914
-803
-604
-346
-66
198
412
547
586
527
379
164
-87
-339
-557
-710
-777
-747
-622
-419
-165
105
355
549
658
664
564
367
97
-213
-522
-791
-985
-1079
-1058
-927
-703
-416
-107
182
412
551
580
495
308
46
-250
-539
-777
-929
-969
-892
-705
-436
-123
189
454
635
703
649
480
221
-92
-410
-689
-888
-977
-944
-793
-546
-237
90
390
623
757
777
683
492
232
-58
-338
-570
-723
-779
-734
-597
-392
-148
99
315
470
543
525
420
243
20
-218
-438
-609
-707
-716
-637
-481
-269
-33
193
375
484
500
420
253
23
-237
-488
-693
-819
-846
-770
-598
-356
-79
195
426
582
641
599
461
249
-5
-265
-496
-665
-748
-736
-630
-446
-210
46
284
470
577
588
499
321
80
-191
-452
-665
-797
-828
-755
-588
-353
-86
172
384
519
558
498
351
141
-101
-338
-536
-668
-716
-673
-545
-348
-107
149
387
579
701
736
680
539
328
74
-193
-438
-632
-750
-775
-705
-547
-324
-66
193
416
574
644
615
492
290
39
-227
-470
-657
-763
-773
-689
-525
-311
-79
133
290
368
357
258
90
-118
-333
-515
-635
-669
-609
-460
-241
19
286
524
701
795
794
700
524
291
30
-227
-448
-608
-688
-683
-595
-438
-232
-4
217
405
538
599
582
492
340
148
-55
-242
-383
-455
-443
-346
-175
51
299
535
722
831
843
755
576
332
58
-206
-421
-554
-586
-512
-342
-100
182
465
712
890
977
961
844
641
377
85
-198
-437
-600
-662
-615
-460
-214
92
421
731
982
1139
1183
1111
934
681
392
113
-112
-248
-272
-182
9
269
555
818
1013
1104
1071
913
649
315
-42
-369
-618
-751
-749
-609
-351
-9
368
730
1027
1223
1296
1241
1070
812
503
187
-95
-309
-431
-450
-370
-205
17
264
500
692
808
831
750
571
309
-6
-337
-647
-895
-1050
-1092
-1013
-825
-550
-227
104
397
616
733
734
623
419
156
-128
-391
-592
-703
-705
-599
-400
-138
148
416
625
742
749
642
436
159
-147
-441
-682
-836
-885
-826
-676
-463
-224
2
180
282
296
225
86
-95
-283
-444
-549
-576
-514
-365
-144
128
421
705
947
1123
1215
1216
1128
969
763
544
349
213
169
236
423
723
1114
1564
2031
2473
2849
3127
3289
3332
3266
3117
2917
2705
2517
2385
2327
2351
2447
2596
2766
2921
3024
3042
2956
2757
2453
2067
1634
1199
806
496
300
233
293
459
698
965
1213
1397
1484
1453
1302
1049
722
361
11
-287
-499
-607
-606
-505
-329
-112
110
300
427
471
426
295
98
-140
-385
-604
-769
-856
-853
-761
-591
-365
-114
128
328
456
495
436
286
64
-200
-468
-701
-867
-940
-909
-780
-575
-327
-78
129
257
281
192
0
-268
-573
-871
-1116
-1270
-1309
-1225
-1029
-744
-405
-55
264
513
665
706
636
465
220
-69
-363
-625
-823
-932
-940
-846
-663
-416
-138
132
358
509
563
513
365
137
-139
-428
-691
-892
-1006
-1016
-924
-741
-494
-215
58
287
442
501
457
315
96
-169
-442
-682
-854
-930
-899
-763
-539
-259
37
305
503
601
581
443
202
-109
-447
-764
-1017
-1168
-1195
-1094
-877
-576
-232
107
394
591
670
625
465
217
-81
-384
-649
-837
-923
-896
-762
-543
-270
17
279
478
587
590
487
290
24
-275
-570
-820
-994
-1065
-1023
-872
-629
-323
8
321
579
747
807
752
594
358
79
-201
-439
-601
-662
-614
-464
-234
39
314
547
700
748
679
497
225
-102
-443
-750
-982
-1108
-1108
-980
-741
-421
-58
302
614
844
966
971
866
675
431
175
-50
-208
-272
-231
-90
132
402
680
926
1104
1186
1161
1030
811
534
237
-39
-256
-383
-405
-318
-135
121
412
700
946
1116
1187
1152
1016
801
538
267
27
-145
-223
-195
-61
159
436
732
1005
1217
1338
1353
1260
1071
815
529
252
25
-121
-163
-95
74
320
610
902
1154
1331
1406
1370
1226
996
711
412
139
-68
-185
-197
-107
67
296
544
774
952
1054
1065
984
823
604
354
106
-112
-274
-363
-369
-295
-153
35
242
435
582
657
643
533
338
79
-209
-484
-706
-839
-859
-759
-549
-257
78
408
689
881
961
922
774
543
264
-20
-268
-448
-536
-524
-416
-229
8
263
502
691
806
831
760
601
373
106
-168
-410
-589
-679
-668
-556
-359
-103
176
439
644
762
775
678
484
218
-86
-386
-641
-818
-892
-855
-714
-487
-207
87
354
557
669
674
574
382
129
-150
-413
-622
-748
-771
-689
-515
-275
-4
257
469
601
634
561
391
146
-141
-432
-689
-880
-979
-975
-869
-676
-420
-135
144
381
548
623
599
479
279
27
-245
-498
-700
-822
-849
-775
-611
-381
-117
142
360
504
554
505
363
150
-99
-349
-560
-701
-751
-704
-567
-361
-117
129
342
494
562
538
429
250
29
-202
-411
-567
-650
-648
-562
-403
-195
33
248
419
521
537
464
309
95
-149
-389
-590
-721
-763
-708
-561
-345
-88
172
397
554
619
581
445
229
-36
-313
-564
-754
-856
-858
-761
-580
-342
-82
163
357
472
493
416
253
27
-230
-480
-690
-827
-874
-821
-674
-453
-187
89
338
524
623
619
511
313
49
-245
-530
-768
-928
-986
-936
-784
-552
-273
14
268
454
544
524
398
183
-91
-384
-655
-864
-981
-989
-886
-686
-417
-116
174
413
571
628
577
431
213
-45
-305
-532
-694
-775
-766
-674
-515
-316
-106
86
235
323
341
289
178
25
-149
-319
-461
-555
-586
-548
-442
-278
-74
145
353
521
626
652
594
457
257
22
-215
-421
-563
-622
-588
-465
-274
-44
187
381
505
536
469
311
85
-174
-424
-625
-742
-755
-657
-458
-184
128
436
697
875
948
908
760
528
244
-52
-319
-520
-629
-633
-532
-341
-87
195
468
693
840
890
833
677
441
154
-145
-418
-627
-746
-757
-658
-462
-196
107
404
654
823
888
839
680
434
134
-180
-467
-689
-818
-841
-760
-591
-363
-116
111
279
362
343
222
14
-254
-546
-823
-1047
-1189
-1231
-1166
-1004
-767
-486
-197
63
263
377
392
308
136
-102
-374
-647
-885
-1058
-1142
-1126
-1012
-816
-564
-292
-38
160
273
282
183
-8
-266
-552
-823
-1037
-1159
-1169
-1064
-858
-582
-276
14
245
385
413
331
154
-87
-353
-599
-788
-892
-895
-795
-607
-358
-81
189
418
581
661
654
568
418
232
41
-123
-226
-245
-159
35
331
710
1142
1589
2010
2365
2626
2772
2802
2728
2576
2385
2192
2037
1947
1937
2003
2128
2282
2428
2525
2544
2462
2275
1992
1639
1249
861
513
235
49
-41
-39
37
163
309
446
546
591
569
478
323
120
-109
-340
-547
-706
-796
-805
-733
-587
-385
-155
72
261
382
413
346
184
-54
-338
-628
-886
-1075
-1169
-1155
-1037
-832
-574
-301
-55
129
222
210
97
-101
-356
-630
-884
-1083
-1198
-1215
-1131
-957
-719
-448
-181
45
200
263
227
97
-108
-358
-618
-851
-1025
-1117
-1114
-1020
-851
-634
-404
-196
-43
34
22
-76
-246
-462
-694
-907
-1071
-1164
-1174
-1098
-946
-738
-500
-262
-54
98
176
170
81
-79
-287
-517
-735
-911
-1019
-1042
-974
-822
-606
-355
-105
107
251
302
250
100
-129
-408
-697
-958
-1155
-1258
-1253
-1141
-936
-666
-368
-82
154
308
358
298
138
-100
-384
-674
-930
-1117
-1208
-1190
-1065
-848
-568
-261
33
274
434
489
434
277
42
-237
-521
-770
-947
-1028
-1002
-872
-658
-393
-115
135
322
419
413
306
116
-130
-396
-644
-841
-962
-992
-932
-792
-595
-371
-150
38
167
220
192
90
-71
-265
-463
-631
-743
-778
-726
-588
-380
-126
141
384
570
672
672
569
376
116
-176
-459
-692
-843
-888
-818
-641
-381
-73
241
516
714
805
778
637
404
114
-189
-459
-657
-753
-733
-601
-377
-95
208
488
710
847
884
821
672
458
210
-41
-262
-430
-523
-531
-455
-303
-93
150
396
615
778
863
859
765
593
369
125
-100
-271
-357
-341
-222
-13
257
546
813
1014
1119
1111
988
768
482
172
-118
-347
-483
-509
-426
-249
-8
259
512
710
826
841
753
574
328
49
-226
-458
-613
-672
-624
-476
-249
24
305
550
725
801
766
624
393
106
-197
-473
-685
-807
-827
-749
-591
-382
-158
45
198
280
282
208
72
-106
-300
-484
-634
-731
-763
-723
-615
-450
-245
-25
184
351
451
464
379
200
-55
-357
-667
-939
-1134
-1220
-1183
-1025
-770
-454
-126
166
378
483
470
346
136
-123
-387
-616
-780
-860
-849
-758
-605
-416
-220
-43
94
176
196
153
57
-81
-243
-409
-558
-668
-724
-712
-631
-486
-292
-73
140
317
428
454
386
230
6
-256
-517
-740
-890
-946
-898
-753
-533
-271
-5
224
383
449
411
276
63
-197
-467
-708
-887
-979
-969
-860
-665
-411
-131
137
358
502
550
494
342
114
-161
-447
-706
-905
-1017
-1027
-934
-749
-499
-216
58
286
436
484
423
262
23
-259
-543
-787
-955
-1020
-973
-821
-586
-304
-17
233
410
491
466
342
138
-115
-382
-627
-819
-937
-970
-917
-788
-603
-384
-158
49
213
313
335
274
133
-74
-324
-586
-825
-1007
-1102
-1092
-972
-755
-468
-150
151
393
539
568
476
280
11
-286
-565
-781
-901
-910
-807
-610
-350
-69
193
395
511
524
435
258
17
-252
-512
-727
-869
-918
-869
-731
-523
-278
-29
186
338
403
373
252
59
-177
-422
-639
-795
-867
-844
-726
-531
-282
-14
235
432
551
576
501
337
105
-163
-433
-667
-835
-916
-898
-787
-599
-360
-107
126
304
402
407
319
151
-74
-322
-557
-744
-857
-877
-802
-641
-420
-169
72
267
388
414
340
175
-56
-319
-575
-786
-919
-953
-883
-716
-474
-191
96
348
531
621
607
492
289
27
-262
-540
-773
-932
-997
-961
-828
-615
-348
-58
218
450
611
685
668
569
406
206
2
-176
-301
-354
-326
-221
-56
147
356
541
672
729
699
584
398
165
-83
-310
-482
-572
-566
-460
-267
-12
271
539
756
889
919
842
670
427
151
-120
-345
-492
-540
-484
-331
-103
166
439
679
850
929
901
768
543
253
-69
-383
-649
-832
-907
-860
-695
-429
-93
269
613
892
1069
1122
1044
848
562
230
-101
-381
-572
-649
-606
-455
-227
35
286
479
579
569
445
225
-59
-365
-649
-868
-993
-1006
-907
-710
-447
-155
126
357
508
559
507
359
138
-127
-400
-645
-832
-936
-947
-865
-701
-480
-232
6
202
327
362
299
144
-83
-351
-624
-863
-1033
-1108
-1075
-935
-703
-408
-87
218
470
636
697
649
501
275
4
-271
-513
-686
-768
-746
-621
-413
-148
138
406
622
758
799
744
607
417
210
27
-89
-105
0
233
582
1023
1515
2011
2462
2825
3068
3173
3142
2996
2768
2503
2248
2048
1933
1920
2005
2167
2370
2570
2722
2785
2734
2560
2271
1894
1469
1040
654
349
151
71
104
231
421
638
844
1004
1092
1093
1003
826
580
293
-3
-277
-498
-639
-685
-634
-494
-287
-44
197
399
529
563
493
326
82
-205
-495
-749
-934
-1027
-1016
-909
-725
-495
-255
-39
121
205
202
115
-42
-248
-474
-690
-868
-985
-1026
-985
-865
-683
-461
-227
-15
146
231
224
124
-61
-306
-578
-839
-1051
-1180
-1206
-1121
-935
-672
-366
-59
209
402
494
474
347
132
-140
-432
-705
-921
-1050
-1076
-996
-820
-574
-295
-22
201
340
369
280
79
-207
-540
-873
-1157
-1348
-1415
-1345
-1145
-841
-471
-85
265
532
682
700
589
368
73
-251
-559
-807
-963
-1008
-943
-781
-551
-290
-39
165
291
321
254
100
-117
-364
-604
-802
-930
-970
-917
-780
-575
-332
-82
142
311
405
412
334
181
-26
-260
-486
-674
-796
-832
-775
-630
-415
-160
96
317
465
516
458
295
48
-252
-562
-840
-1046
-1155
-1151
-1039
-834
-567
-275
5
237
396
466
445
342
177
-23
-228
-406
-532
-586
-560
-453
-280
-63
168
379
539
621
608
498
301
40
-252
-534
-770
-926
-980
-922
-759
-512
-213
101
389
617
760
801
743
598
396
169
-48
-217
-312
-315
-223
-45
194
463
723
937
1073
1110
1039
867
616
318
11
-265
-474
-589
-597
-498
-306
-46
246
533
779
954
1040
1028
924
745
520
281
62
-104
-193
-193
-101
70
296
545
780
965
1071
1077
980
789
528
234
-53
-292
-447
-497
-433
-266
-21
265
548
785
940
989
925
758
511
218
-77
-334
-518
-605
-584
-459
-252
8
282
532
722
825
826
724
534
281
0
-269
-490
-635
-686
-642
-514
-329
-120
75
223
297
283
183
10
-210
-444
-656
-815
-896
-885
-780
-593
-342
-57
229
485
683
800
822
749
590
364
99
-171
-412
-593
-691
-693
-601
-426
-194
62
308
507
631
660
589
423
184
-102
-399
-672
-888
-1022
-1059
-996
-844
-623
-362
-96
139
313
404
401
307
138
-76
-303
-505
-648
-708
-673
-546
-345
-98
159
388
552
626
597
467
253
-15
-299
-561
-762
-875
-884
-789
-605
-361
-96
151
339
436
426
304
85
-203
-522
-828
-1081
-1246
-1299
-1232
-1052
-782
-453
-107
216
479
654
723
683
547
338
88
-164
-381
-532
-595
-562
-440
-248
-17
216
412
539
575
511
354
126
-142
-410
-640
-799
-864
-825
-687
-468
-201
77
329
517
616
612
505
310
53
-231
-502
-724
-865
-905
-839
-675
-439
-162
115
354
520
591
555
419
201
-68
-352
-610
-808
-916
-922
-823
-632
-374
-85
198
436
596
655
604
449
211
-79
-381
-654
-857
-963
-954
-833
-615
-332
-26
257
475
597
601
488
273
-13
-328
-627
-868
-1016
-1055
-982
-809
-565
-285
-10
223
383
453
427
315
137
-76
-294
-483
-616
-674
-649
-545
-376
-163
64
277
446
549
572
510
369
166
-75
-324
-551
-725
-824
-834
-752
-589
-365
-111
137
345
481
523
464
310
81
-190
-463
-697
-856
-914
-860
-701
-457
-162
140
410
610
712
704
589
387
127
-153
-415
-623
-750
-778
-705
-543
-315
-51
212
437
594
661
628
498
289
29
-246
-497
-688
-791
-792
-687
-490
-229
63
344
578
733
788
737
587
360
86
-196
-448
-634
-730
-720
-606
-403
-139
150
420
633
757
773
677
483
220
-71
-344
-554
-668
-666
-546
-328
-44
261
537
738
833
804
656
413
111
-200
-472
-661
-737
-688
-519
-252
74
415
725
964
1103
1127
1039
854
604
323
52
-172
-321
-376
-331
-193
18
277
548
800
999
1120
1147
1076
913
678
398
109
-155
-359
-476
-491
-399
-213
41
327
605
835
981
1021
945
763
497
183
-137
-418
-625
-729
-720
-603
-399
-141
130
372
548
633
612
488
276
6
-288
-565
-790
-933
-975
-912
-753
-520
-243
42
297
489
595
602
511
337
104
-154
-399
-598
-721
-751
-686
-534
-316
-63
189
404
552
612
575
446
242
-10
-277
-524
-716
-828
-844
-762
-591
-353
-80
192
428
594
668
640
515
313
67
-182
-392
-525
-554
-466
-268
16
349
684
972
1173
1257
1215
1057
813
527
253
46
-48
4
215
578
1062
1623
2205
2752
3211
3545
3730
3764
3664
3464
3205
2936
2697
2522
2428
2421
2485
2597
2723
2828
2879
2851
2731
2517
2221
1862
1471
1079
719
421
206
89
73
149
299
496
709
901
1041
1104
1075
950
741
473
179
-103
-336
-489
-543
-494
-354
-148
90
320
503
610
622
532
354
109
-168
-441
-672
-832
-899
-867
-743
-545
-302
-50
175
340
422
408
298
108
-139
-409
-665
-873
-1004
-1040
-976
-822
-598
-339
-80
139
288
345
301
164
-47
-299
-556
-777
-930
-991
-948
-805
-581
-303
-10
262
477
608
639
568
405
175
-92
-361
-597
-770
-859
-856
-763
-596
-378
-141
82
261
372
400
343
211
21
-198
-415
-599
-723
-771
-734
-616
-434
-212
19
226
379
455
444
344
169
-59
-307
-541
-726
-837
-854
-775
-611
-384
-126
125
333
466
505
441
284
54
-215
-485
-718
-877
-938
-890
-738
-500
-206
105
390
613
742
761
670
481
225
-63
-340
-567
-714
-764
-713
-575
-376
-152
60
225
317
322
241
87
-113
-328
-523
-669
-742
-726
-622
-439
-198
74
346
585
763
860
863
770
593
352
75
-204
-450
-632
-727
-722
-619
-432
-185
87
345
554
684
716
648
490
267
13
-233
-433
-553
-574
-488
-301
-39
268
578
850
1049
1149
1136
1013
799
525
230
-43
-255
-375
-384
-283
-84
186
486
776
1013
1164
1211
1147
984
745
467
193
-39
-194
-251
-201
-52
176
452
739
998
1196
1308
1319
1231
1057
820
553
292
71
-79
-140
-102
26
229
476
735
967
1140
1230
1220
1112
917
661
376
98
-136
-298
-367
-337
-217
-25
210
453
668
824
896
874
761
571
333
80
-150
-321
-406
-389
-272
-68
194
476
736
934
1038
1029
905
680
384
57
-258
-516
-683
-737
-673
-503
-251
43
337
587
760
833
795
654
432
160
-121
-373
-562
-664
-666
-572
-400
-177
62
280
445
532
528
436
267
48
-190
-412
-586
-688
-701
-623
-463
-240
16
273
498
662
744
736
637
461
231
-23
-267
-467
-596
-635
-579
-436
-224
25
276
491
637
690
639
488
256
-28
-323
-591
-794
-905
-909
-808
-617
-364
-83
185
406
550
602
556
423
222
-16
-256
-463
-607
-668
-638
-521
-333
-99
148
374
546
639
639
545
369
135
-125
-375
-583
-718
-766
-721
-594
-407
-193
14
180
277
288
210
53
-157
-388
-602
-762
-839
-815
-685
-459
-159
182
523
826
1056
1188
1207
1114
922
657
353
50
-214
-404
-496
-475
-340
-106
202
551
900
1211
1451
1599
1643
1591
1462
1287
1104
950
859
852
940
1117
1361
1642
1920
2158
2326
2401
2378
2263
2077
1853
1625
1431
1301
1258
1310
1454
1672
1936
2211
2461
2652
2760
2767
2673
2492
2247
1973
1707
1484
1337
1282
1324
1453
1643
1862
2072
2238
2332
2336
2249
2084
1862
1617
1382
1187
1057
1007
1038
1144
1307
1504
1710
1898
2045
2133
2151
2093
1962
1771
1534
1276
1021
796
624
523
501
554
669
823
986
1123
1204
1206
1118
941
693
401
101
-167
-369
-478
-483
-387
-206
27
277
503
666
738
704
564
331
32
-295
-612
-880
-1068
-1156
-1138
-1023
-833
-600
-363
-160
-24
24
-26
-167
-379
-631
-883
-1097
-1240
-1288
-1230
-1072
-834
-548
-252
13
213
320
320
213
12
-253
-551
-840
-1085
-1254
-1328
-1297
-1169
-962
-705
-434
-188
0
104
110
16
-165
-408
-677
-935
-1144
-1276
-1309
-1239
-1072
-831
-547
-258
-2
188
290
293
200
29
-194
-432
-650
-815
-902
-898
-804
-634
-414
-177
41
205
290
280
174
-17
-267
-545
-814
-1038
-1186
-1241
-1194
-1055
-844
-591
-331
-102
62
137
112
-10
-212
-466
-738
-988
-1180
-1289
-1298
-1204
-1022
-775
-499
-232
-10
134
182
126
-24
-248
-516
-790
-1033
-1211
-1300
-1289
-1181
-990
-744
-477
-226
-26
95
123
54
-101
-317
-564
-807
-1012
-1152
-1207
-1172
-1053
-868
-641
-404
-187
-17
86
111
58
-64
-235
-431
-622
-780
-882
-910
-858
-730
-539
-309
-71
144
307
394
394
306
142
-73
-310
-532
-706
-804
-812
-726
-557
-330
-75
171
374
504
543
486
341
129
-121
-372
-586
-735
-795
-757
-625
-418
-162
105
348
531
630
631
533
352
111
-156
-409
-614
-740
-769
-695
-529
-291
-14
264
504
673
746
712
573
347
62
-242
-527
-753
-891
-924
-848
-676
-435
-160
109
333
481
533
484
344
137
-102
-337
-528
-644
-663
-580
-405
-160
123
405
646
814
883
845
702
472
183
-129
-425
-671
-836
-904
-868
-735
-525
-266
7
259
457
577
606
543
400
199
-28
-247
-425
-535
-560
-495
-350
-145
90
320
511
635
671
612
464
244
-20
-295
-547
-743
-858
-880
-808
-653
-435
-187
59
268
411
467
431
307
115
-118
-355
-559
-700
-754
-710
-574
-363
-110
147
370
522
580
531
381
150
-130
-420
-678
-869
-966
-956
-843
-644
-389
-116
137
334
450
471
396
239
26
-212
-440
-626
-746
-783
-734
-607
-420
-199
24
219
359
424
403
296
114
-122
-383
-636
-851
-1000
-1063
-1032
-911
-715
-471
-210
32
225
342
373
313
176
-16
-232
-435
-593
-678
-673
-577
-401
-169
86
323
508
609
609
504
305
37
-265
-561
-815
-994
-1079
-1062
-949
-759
-521
-266
-26
169
298
347
315
210
48
-148
-350
-528
-658
-718
-699
-597
-425
-202
40
268
446
546
548
447
253
-9
-303
-587
-821
-968
-1006
-929
-748
-490
-194
97
338
494
540
472
300
49
-241
-527
-767
-926
-982
-928
-773
-541
-267
8
244
407
473
433
294
75
-191
-468
-717
-905
-1005
-1004
-903
-715
-466
-189
77
295
434
473
405
238
-6
-293
-583
-835
-1012
-1088
-1052
-907
-674
-389
-92
173
366
461
445
321
109
-159
-442
-700
-897
-1004
-1009
-913
-731
-489
-222
35
248
391
447
410
287
96
-137
-381
-605
-779
-881
-898
-827
-677
-469
-229
9
214
355
413
380
258
64
-173
-420
-639
-797
-869
-841
-716
-509
-249
27
280
472
574
570
458
252
-21
-324
-614
-853
-1006
-1053
-987
-817
-570
-279
14
267
444
519
483
341
113
-170
-469
-742
-954
-1077
-1097
-1015
-844
-609
-343
-82
139
293
361
334
218
29
-210
-466
-705
-897
-1015
-1041
-971
-812
-584
-317
-46
191
362
445
431
324
144
-79
-311
-514
-658
-724
-705
-606
-449
-260
-72
85
187
217
171
55
-115
-314
-517
-694
-821
-878
-854
-751
-577
-352
-104
137
335
465
504
443
288
57
-219
-503
-754
-937
-1024
-1002
-873
-657
-384
-94
172
377
492
502
408
224
-23
-298
-565
-788
-939
-998
-959
-830
-628
-379
-118
123
311
422
441
364
202
-23
-280
-534
-749
-894
-949
-903
-764
-552
-295
-33
196
358
427
391
255
37
-232
-514
-767
-956
-1053
-1043
-926
-720
-454
-167
100
308
428
442
348
159
-96
-382
-658
-884
-1027
-1069
-1002
-835
-592
-307
-18
236
423
517
509
402
212
-32
-296
-541
-732
-841
-851
-761
-582
-339
-66
196
407
535
559
470
280
10
-303
-617
-888
-1079
-1164
-1132
-988
-754
-464
-157
124
339
459
471
375
185
-70
-352
-623
-842
-979
-1012
-937
-763
-515
-228
60
307
476
543
497
343
101
-198
-511
-796
-1013
-1132
-1137
-1028
-821
-545
-238
56
297
454
506
448
292
61
-209
-478
-707
-865
-928
-888
-751
-536
-273
2
250
438
541
546
452
273
33
-235
-495
-713
-858
-910
-864
-724
-509
-248
23
268
453
553
553
452
264
14
-265
-533
-754
-898
-944
-886
-731
-500
-224
59
309
491
582
567
450
248
-11
-288
-542
-736
-838
-832
-720
-518
-257
22
273
455
535
498
345
98
-207
-525
-808
-1012
-1108
-1081
-935
-691
-384
-57
248
492
650
708
667
541
357
144
-65
-242
-361
-409
-380
-276
-111
97
323
539
719
839
883
842
720
531
299
55
-167
-335
-422
-413
-309
-122
121
387
635
829
940
952
860
678
429
150
-121
-347
-497
-552
-506
-365
-152
106
372
611
789
883
878
775
587
338
57
-219
-455
-623
-703
-687
-581
-404
-184
43
243
383
441
404
274
67
-193
-472
-733
-939
-1066
-1095
-1023
-857
-620
-344
-63
185
365
453
437
319
115
-147
-431
-695
-903
-1022
-1036
-943
-756
-502
-221
46
258
382
399
307
119
-136
-421
-691
-908
-1039
-1062
-975
-788
-527
-225
75
333
517
603
584
465
265
15
-245
-477
-645
-722
-696
-569
-356
-88
200
466
676
803
831
761
606
396
167
-41
-191
-249
-195
-20
270
654
1102
1574
2027
2420
2716
2894
2944
2872
2700
2462
2201
1962
1781
1687
1691
1787
1952
2147
2331
2459
2495
2418
2223
1923
1546
1132
725
368
98
-63
-110
-51
93
290
502
693
829
888
858
738
540
290
15
-250
-474
-631
-703
-686
-587
-425
-227
-25
148
263
302
254
125
-72
-311
-562
-794
-978
-1090
-1119
-1062
-928
-736
-513
-287
-90
54
125
115
25
-133
-335
-552
-755
-911
-998
-1000
-913
-747
-524
-275
-37
156
271
290
204
23
-229
-515
-796
-1029
-1181
-1229
-1167
-1005
-771
-501
-238
-23
113
148
81
-76
-295
-542
-778
-967
-1081
-1103
-1031
-874
-651
-390
-125
114
299
407
428
359
207
-10
-267
-534
-778
-970
-1086
-1109
-1038
-881
-659
-402
-146
72
221
277
234
96
-117
-376
-642
-879
-1052
-1136
-1121
-1010
-821
-581
-326
-92
87
184
186
96
-73
-296
-536
-758
-926
-1013
-1006
-902
-714
-468
-198
59
266
392
420
344
172
-74
-361
-653
-911
-1102
-1199
-1190
-1076
-872
-606
-316
-41
179
312
338
253
70
-184
-469
-741
-955
-1079
-1091
-987
-782
-504
-193
107
355
519
580
535
395
182
-73
-335
-571
-755
-867
-897
-844
-716
-530
-308
-75
138
310
421
458
415
303
139
-53
-239
-390
-477
-480
-395
-229
-2
252
497
695
816
838
755
577
328
42
-240
-480
-643
-705
-658
-507
-273
10
304
569
770
881
888
792
610
370
106
-141
-338
-454
-474
-396
-232
-8
244
487
684
809
841
777
627
412
164
-79
-281
-411
-447
-381
-217
27
321
627
906
1122
1246
1258
1154
946
659
329
-1
-288
-491
-583
-549
-391
-130
200
555
889
1156
1322
1366
1287
1099
832
529
234
-8
-164
-213
-151
8
238
501
756
964
1094
1122
1046
873
628
343
57
-192
-370
-453
-431
-307
-99
163
441
695
885
983
970
844
619
323
-5
-321
-580
-747
-797
-723
-538
-267
49
365
634
816
887
837
674
422
118
-195
-474
-680
-787
-781
-665
-458
-188
106
384
605
740
769
688
508
255
-37
-326
-571
-736
-799
-751
-602
-375
-106
163
388
534
578
513
351
115
-158
-429
-658
-813
-874
-834
-698
-487
-227
48
306
516
654
703
656
518
303
35
-257
-537
-771
-927
-983
-931
-773
-530
-234
74
350
553
652
633
498
270
-15
-313
-575
-759
-837
-795
-641
-401
-111
184
439
615
687
647
500
270
-9
-299
-559
-756
-866
-877
-792
-626
-403
-154
85
284
418
471
437
323
144
-72
-296
-494
-639
-707
-688
-581
-399
-167
85
323
514
630
657
589
437
220
-31
-282
-500
-655
-729
-713
-611
-436
-215
21
239
407
502
510
429
270
53
-191
-428
-623
-748
-784
-726
-580
-368
-122
122
327
464
511
461
322
113
-136
-393
-620
-789
-877
-876
-787
-622
-406
-166
66
263
399
459
437
338
177
-23
-235
-429
-577
-659
-664
-590
-449
-259
-51
147
302
392
401
326
177
-25
-252
-470
-647
-757
-780
-712
-562
-348
-101
143
350
490
541
495
356
143
-115
-381
-617
-788
-869
-845
-717
-501
-224
76
359
586
726
759
680
499
240
-60
-360
-619
-800
-877
-841
-699
-473
-197
88
338
515
593
562
426
207
-62
-340
-586
-764
-849
-830
-711
-512
-262
2
243
430
536
551
475
319
108
-130
-361
-553
-678
-718
-663
-520
-303
-38
241
498
702
824
849
775
611
380
114
-152
-381
-547
-630
-625
-540
-391
-204
-8
171
310
393
414
375
287
164
27
-103
-208
-271
-281
-233
-129
23
206
399
579
721
805
818
754
619
432
215
0
-184
-308
-352
-307
-178
18
253
493
703
849
907
865
726
504
231
-58
-320
-520
-627
-627
-519
-318
-55
231
497
703
816
819
712
510
242
-53
-334
-562
-711
-762
-716
-585
-394
-176
33
200
301
320
253
109
-92
-322
-551
-748
-885
-944
-915
-800
-613
-377
-123
116
308
426
453
386
233
14
-240
-494
-712
-863
-925
-891
-765
-564
-317
-58
176
352
443
438
333
142
-111
-395
-671
-905
-1066
-1133
-1095
-958
-741
-470
-181
90
307
443
485
431
293
99
-118
-321
-472
-543
-516
-388
-168
117
436
750
1025
1231
1352
1384
1340
1245
1134
1045
1012
1064
1215
1464
1795
2175
2566
2922
3204
3378
3424
3337
3131
2830
2473
2099
1751
1461
1255
1143
1123
1182
1293
1426
1547
1627
1641
1576
1426
1200
917
604
292
15
-198
-327
-361
-301
-163
28
239
432
573
635
601
470
254
-22
-325
-617
-860
-1025
-1090
-1048
-907
-688
-421
-142
113
306
415
424
334
155
-86
-356
-619
-838
-983
-1033
-982
-839
-625
-371
-115
104
253
308
260
113
-115
-393
-684
-950
-1154
-1272
-1287
-1199
-1021
-777
-501
-230
0
157
219
178
40
-177
-442
-719
-969
-1153
-1243
-1223
-1092
-866
-574
-255
47
289
438
472
388
198
-69
-375
-674
-922
-1085
-1139
-1078
-915
-675
-397
-124
103
249
293
227
62
-178
-458
-737
-976
-1138
-1201
-1156
-1006
-772
-483
-177
107
332
471
506
434
267
28
-250
-529
-770
-941
-1018
-990
-860
-648
-382
-99
162
363
477
489
398
218
-26
-299
-560
-774
-910
-949
-887
-735
-514
-259
-7
204
344
391
336
185
-41
-310
-586
-828
-1000
-1075
-1042
-901
-671
-381
-72
214
436
562
574
470
265
-14
-326
-626
-872
-1029
-1074
-1002
-821
-555
-240
83
371
589
710
722
626
438
186
-93
-361
-581
-722
-767
-709
-558
-335
-71
195
426
591
666
643
529
342
114
-119
-319
-455
-503
-455
-316
-103
156
429
680
878
999
1030
968
821
609
357
96
-141
-326
-435
-454
-379
-218
10
276
544
778
948
1031
1014
901
708
464
205
-33
-214
-314
-318
-228
-58
165
406
632
807
906
913
827
659
432
178
-67
-267
-390
-416
-337
-159
97
396
700
964
1151
1233
1196
1042
793
482
152
-149
-379
-505
-511
-398
-186
91
390
664
871
976
964
835
607
311
-9
-310
-549
-695
-730
-652
-476
-229
49
319
540
683
728
671
522
303
47
-209
-431
-590
-664
-646
-540
-364
-141
97
317
488
586
596
516
351
121
-149
-426
-678
-874
-988
-1006
-925
-754
-514
-234
48
296
476
563
544
421
214
-47
-322
-568
-745
-826
-795
-654
-423
-135
167
439
640
742
731
609
395
122
-170
-441
-653
-778
-802
-724
-560
-333
-77
171
377
511
554
500
354
138
-121
-387
-619
-786
-859
-826
-688
-463
-180
119
392
597
704
694
566
338
39
-289
-597
-844
-993
-1025
-934
-734
-451
-124
203
486
687
780
753
609
368
61
-272
-587
-845
-1010
-1064
-1001
-830
-577
-278
28
298
496
599
596
494
310
76
-172
-396
-564
-652
-650
-558
-391
-175
59
277
447
544
555
475
315
95
-156
-404
-613
-753
-803
-753
-608
-386
-118
159
406
586
670
647
518
300
24
-267
-531
-728
-828
-816
-693
-476
-197
102
379
593
713
722
620
423
158
-135
-416
-646
-793
-838
-777
-621
-391
-123
148
384
554
636
621
513
327
90
-164
-400
-587
-699
-722
-654
-505
-299
-65
163
350
470
501
437
283
58
-210
-485
-731
-913
-1006
-996
-882
-677
-408
-109
179
417
574
630
578
428
206
-53
-306
-514
-641
-666
-583
-402
-150
136
414
640
782
816
737
555
295
-5
-305
-562
-742
-820
-787
-650
-430
-158
126
382
573
672
663
547
340
70
-226
-509
-739
-885
-927
-859
-689
-440
-143
163
438
647
761
767
662
462
191
-113
-409
-656
-820
-876
-813
-640
-381
-73
241
514
704
783
738
576
320
9
-308
-584
-776
-854
-806
-637
-370
-42
302
616
862
1009
1041
960
781
532
249
-28
-262
-421
-486
-449
-319
-114
137
398
633
809
903
903
808
633
401
145
-101
-305
-440
-488
-445
-317
-123
111
353
571
736
829
837
761
614
418
203
1
-156
-242
-244
-158
8
231
480
720
916
1039
1067
994
827
586
301
9
-250
-443
-544
-538
-429
-230
31
319
594
820
966
1012
953
799
572
304
33
-202
-369
-447
-425
-311
-124
107
344
550
691
744
695
549
322
43
-252
-524
-737
-863
-884
-799
-620
-370
-86
194
429
588
648
600
451
221
-56
-341
-594
-780
-871
-857
-739
-537
-281
-10
239
428
530
532
436
256
20
-238
-479
-668
-780
-797
-717
-551
-322
-61
196
414
562
622
585
457
255
8
-248
-478
-646
-728
-708
-586
-372
-93
220
526
789
976
1066
1051
935
739
496
246
30
-108
-135
-32
208
572
1032
1549
2076
2564
2968
3255
3408
3428
3331
3148
2919
2689
2495
2370
2327
2366
2473
2619
2769
2885
2934
2896
2758
2527
2221
1870
1509
1174
898
702
598
585
647
761
897
1021
1107
1130
1078
949
753
507
238
-25
-253
-422
-513
-517
-437
-285
-84
137
347
515
613
624
544
378
146
-121
-388
-618
-777
-842
-805
-669
-456
-195
72
308
475
549
520
391
180
-82
-358
-610
-803
-910
-918
-828
-653
-417
-154
100
312
450
497
446
302
87
-172
-440
-679
-855
-943
-930
-817
-621
-368
-95
158
355
468
483
399
231
3
-253
-502
-710
-854
-918
-900
-807
-655
-467
-269
-87
57
145
166
118
7
-155
-345
-539
-709
-830
-881
-850
-737
-555
-328
-89
128
288
368
354
250
73
-148
-376
-573
-708
-761
-725
-607
-429
-221
-17
152
260
293
247
132
-35
-231
-425
-592
-709
-758
-731
-630
-465
-253
-19
208
399
531
582
544
417
214
-40
-312
-566
-767
-887
-905
-818
-634
-377
-81
213
466
641
715
679
536
309
29
-264
-527
-726
-831
-830
-724
-530
-277
0
262
472
603
637
571
417
199
-53
-303
-513
-655
-709
-665
-529
-317
-57
217
468
663
774
785
696
516
271
-5
-275
-498
-645
-693
-637
-484
-258
8
273
499
651
707
659
517
303
50
-201
-410
-544
-579
-505
-331
-79
219
522
787
979
1073
1055
928
713
442
154
-107
-304
-406
-398
-281
-70
204
506
792
1025
1173
1218
1154
991
750
464
171
-91
-289
-398
-404
-306
-118
136
423
703
940
1103
1169
1132
996
782
521
251
10
-169
-262
-260
-166
3
217
444
649
801
879
872
783
624
418
194
-18
-190
-298
-328
-277
-151
34
253
475
672
813
876
851
736
545
301
34
-220
-428
-563
-608
-559
-428
-235
-12
205
383
495
522
461
321
123
-104
-327
-513
-636
-676
-627
-496
-300
-66
175
387
541
615
596
486
297
54
-210
-460
-663
-791
-827
-767
-620
-408
-159
90
306
459
528
504
389
198
-45
-311
-565
-778
-920
-974
-932
-796
-583
-318
-34
229
437
558
573
477
279
7
-304
-607
-859
-1023
-1075
-1006
-829
-571
-272
22
268
431
492
446
306
101
-134
-358
-536
-639
-650
-567
-403
-181
68
312
516
653
705
662
530
323
68
-205
-460
-666
-796
-835
-776
-629
-413
-159
97
319
478
550
524
406
210
-36
-296
-534
-717
-817
-819
-724
-544
-304
-37
217
423
549
577
503
335
99
-171
-437
-659
-805
-855
-803
-658
-444
-191
62
279
429
493
463
347
163
-61
-292
-499
-650
-726
-717
-624
-459
-244
-9
214
395
507
534
470
323
111
-136
-385
-602
-754
-818
-786
-659
-455
-202
65
308
492
588
583
476
280
23
-258
-523
-732
-853
-864
-760
-551
-260
75
414
714
940
1067
1083
996
824
601
365
157
11
-43
7
163
411
723
1066
1402
1693
1910
2032
2053
1979
1828
1629
1417
1231
1100
1049
1091
1221
1425
1676
1941
2182
2366
2470
2478
2392
2223
1995
1742
1498
1300
1176
1143
1210
1369
1602
1877
2158
2406
2585
2667
2637
2493
2252
1944
1610
1296
1047
899
875
982
1203
1507
1848
2178
2444
2608
2644
2545
2326
2018
1666
1321
1030
833
754
799
956
1195
1479
1763
2003
2164
2221
2166
2006
1762
1465
1148
851
604
431
346
347
424
556
716
872
996
1063
1057
970
806
580
317
43
-209
-413
-545
-591
-548
-428
-250
-43
160
326
427
444
372
216
-2
-255
-507
-722
-869
-926
-886
-753
-547
-297
-39
190
355
431
405
280
74
-186
-463
-716
-910
-1016
-1018
-915
-720
-462
-175
98
319
458
495
423
251
2
-293
-597
-871
-1084
-1211
-1240
-1171
-1014
-794
-538
-280
-55
108
188
174
68
-118
-361
-627
-882
-1090
-1221
-1259
-1197
-1045
-828
-579
-337
-141
-23
-1
-81
-250
-484
-747
-999
-1205
-1332
-1364
-1295
-1137
-912
-651
-392
-170
-14
55
28
-91
-288
-536
-803
-1055
-1258
-1385
-1416
-1346
-1184
-949
-673
-393
-150
22
96
61
-82
-311
-594
-889
-1152
-1346
-1439
-1420
-1291
-1073
-799
-510
-250
-57
44
39
-68
-261
-508
-773
-1018
-1208
-1315
-1327
-1240
-1067
-832
-565
-302
-80
73
135
98
-33
-239
-493
-757
-996
-1175
-1268
-1261
-1154
-962
-713
-440
-181
28
158
193
128
-26
-248
-507
-768
-996
-1159
-1236
-1219
-1109
-921
-679
-416
-165
43
181
234
197
78
-103
-318
-535
-722
-849
-899
-862
-742
-558
-336
-110
87
224
277
237
106
-99
-348
-606
-834
-997
-1065
-1025
-877
-638
-336
-11
294
540
693
734
659
481
228
-65
-356
-604
-775
-848
-814
-680
-467
-205
68
313
497
592
586
476
277
12
-283
-572
-814
-979
-1045
-1001
-853
-624
-343
-50
216
416
524
527
426
238
-8
-274
-520
-709
-813
-817
-721
-540
-302
-42
199
384
484
481
372
169
-101
-404
-698
-942
-1104
-1159
-1100
-933
-681
-379
-67
214
425
541
549
453
270
30
-232
-476
-666
-777
-795
-718
-560
-346
-107
122
308
422
446
373
211
-22
-296
-575
-823
-1005
-1096
-1081
-961
-749
-473
-169
123
363
518
569
509
346
105
-182
-475
-736
-929
-1031
-1031
-931
-748
-510
-249
-2
197
321
355
295
148
-63
-308
-554
-765
-911
-971
-936
-811
-612
-367
-111
117
283
360
333
202
-18
-300
-607
-900
-1137
-1285
-1324
-1247
-1065
-802
-495
-189
75
260
340
304
162
-64
-338
-615
-854
-1015
-1072
-1016
-852
-603
-304
3
277
481
588
585
474
272
9
-281
-559
-788
-940
-996
-950
-811
-597
-341
-78
153
319
395
368
240
26
-244
-534
-802
-1009
-1124
-1129
-1020
-811
-528
-212
95
349
517
577
521
358
111
-185
-490
-762
-964
-1070
-1069
-962
-766
-508
-227
39
252
380
405
323
143
-110
-403
-694
-944
-1117
-1188
-1146
-997
-760
-468
-161
117
328
441
440
326
115
-164
-470
-759
-990
-1129
-1155
-1064
-868
-594
-279
34
301
486
565
531
390
163
-114
-401
-656
-844
-941
-936
-833
-651
-420
-175
48
217
307
307
218
54
-163
-401
-628
-815
-939
-984
-946
-832
-659
-449
-233
-39
108
186
185
105
-41
-234
-445
-642
-794
-877
-878
-795
-639
-433
-208
2
165
254
257
171
11
-201
-432
-650
-824
-929
-951
-888
-748
-552
-324
-95
105
253
328
322
233
73
-140
-378
-611
-807
-938
-984
-935
-794
-578
-315
-42
203
385
475
458
338
131
-132
-412
-668
-863
-968
-968
-864
-674
-426
-155
100
302
426
454
385
228
3
-257
-521
-753
-926
-1016
-1012
-916
-738
-503
-242
8
213
344
380
313
149
-89
-369
-651
-894
-1062
-1127
-1079
-924
-682
-391
-92
170
355
437
404
263
37
-239
-521
-768
-943
-1022
-994
-864
-655
-397
-127
116
301
402
408
319
150
-77
-330
-575
-780
-918
-970
-929
-800
-601
-358
-104
127
303
398
400
307
134
-95
-345
-580
-762
-865
-872
-781
-603
-365
-103
147
346
464
486
406
237
1
-271
-542
-776
-943
-1025
-1012
-908
-728
-496
-243
-2
198
330
381
343
222
35
-193
-430
-644
-804
-885
-874
-771
-586
-343
-74
183
392
522
553
478
305
57
-231
-520
-768
-939
-1008
-962
-809
-569
-277
24
291
482
568
534
385
138
-171
-502
-808
-1047
-1186
-1206
-1105
-898
-615
-293
21
287
471
552
522
391
182
-72
-333
-563
-731
-819
-818
-734
-586
-399
-205
-35
86
142
125
42
-93
-256
-420
-556
-642
-662
-607
-481
-298
-79
149
353
508
592
591
502
335
109
-146
-400
-618
-772
-842
-817
-699
-504
-254
19
282
505
659
729
706
598
418
192
-50
-274
-450
-554
-569
-492
-333
-110
148
405
625
778
840
800
663
449
189
-80
-315
-480
-547
-503
-354
-122
157
441
683
843
892
820
633
359
38
-285
-560
-746
-813
-751
-565
-282
61
416
736
978
1112
1123
1014
804
527
225
-57
-281
-416
-447
-377
-225
-19
199
392
524
572
528
396
198
-38
-276
-482
-627
-691
-668
-562
-386
-161
87
329
538
691
770
762
668
495
260
-12
-287
-531
-712
-804
-795
-686
-494
-252
1
220
368
415
350
179
-73
-371
-670
-925
-1099
-1165
-1115
-955
-707
-405
-86
209
447
601
655
606
464
248
-11
-283
-533
-728
-846
-871
-801
-645
-424
-167
92
318
483
562
547
439
252
13
-249
-499
-704
-838
-884
-835
-697
-490
-239
26
271
470
599
650
624
534
408
279
185
161
235
418
712
1097
1542
2005
2441
2806
3068
3206
3218
3116
2927
2686
2432
2200
2014
1891
1831
1824
1851
1889
1915
1905
1847
1735
1571
1366
1133
892
665
470
326
244
229
280
390
540
707
863
982
1039
1016
906
712
453
155
-147
-416
-619
-729
-733
-633
-448
-208
45
266
416
462
387
192
-105
-465
-842
-1184
-1440
-1573
-1561
-1399
-1108
-723
-295
120
466
699
791
735
543
248
-104
-462
-775
-999
-1107
-1088
-950
-718
-431
-133
131
323
413
390
255
29
-258
-566
-853
-1081
-1219
-1249
-1167
-986
-731
-437
-144
111
292
378
357
236
34
-218
-483
-723
-904
-1001
-1001
-905
-728
-497
-246
-10
177
289
308
234
74
-147
-402
-654
-870
-1021
-1086
-1054
-931
-731
-482
-217
24
209
311
314
218
35
-209
-477
-727
-923
-1034
-1043
-947
-760
-511
-236
25
233
359
384
308
142
-90
-354
-613
-831
-980
-1041
-1006
-883
-690
-453
-205
21
196
296
310
238
92
-107
-330
-544
-719
-832
-866
-816
-691
-509
-296
-83
99
225
278
249
144
-22
-224
-433
-618
-751
-809
-781
-669
-483
-247
11
256
457
588
633
584
451
251
12
-235
-457
-626
-720
-729
-654
-505
-304
-77
145
332
461
516
488
382
213
4
-216
-414
-560
-630
-610
-498
-305
-54
222
486
702
839
878
812
651
418
148
-123
-355
-515
-582
-547
-417
-212
37
295
524
693
779
769
666
485
253
2
-230
-408
-504
-502
-396
-197
70
374
674
931
1113
1195
1169
1041
831
571
298
51
-137
-242
-250
-163
3
224
469
702
893
1016
1056
1009
884
700
485
272
91
-30
-73
-30
93
279
499
722
913
1043
1092
1050
923
726
486
236
9
-164
-260
-267
-184
-24
194
442
685
893
1039
1103
1075
958
764
517
247
-13
-230
-379
-441
-410
-293
-107
119
352
558
705
771
745
629
439
202
-47
-271
-436
-516
-497
-381
-184
63
324
555
718
785
741
586
340
34
-288
-583
-809
-934
-940
-828
-614
-331
-16
286
536
700
760
709
559
331
59
-221
-468
-650
-744
-737
-632
-443
-199
67
317
514
630
649
569
400
165
-103
-365
-585
-732
-787
-745
-612
-410
-168
79
296
454
530
515
411
233
2
-251
-494
-696
-831
-882
-844
-722
-533
-302
-62
156
321
412
419
343
199
10
-192
-376
-512
-580
-569
-482
-334
-148
48
223
351
413
399
311
161
-30
-237
-432
-588
-684
-705
-645
-508
-308
-69
179
405
579
678
682
587
402
149
-140
-427
-674
-846
-918
-879
-734
-503
-219
77
341
536
633
620
498
286
16
-273
-539
-747
-866
-882
-794
-617
-376
-107
152
367
508
557
509
372
164
-85
-340
-567
-736
-822
-815
-716
-539
-310
-64
162
332
417
402
284
78
-190
-481
-752
-961
-1072
-1067
-940
-707
-397
-52
280
552
725
776
698
502
219
-109
-434
-709
-895
-966
-914
-748
-494
-190
119
388
581
671
650
522
308
39
-247
-510
-715
-837
-860
-782
-616
-383
-114
157
394
565
647
626
503
292
17
-288
-582
-828
-991
-1049
-993
-830
-583
-287
17
285
478
570
549
421
207
-59
-333
-573
-741
-809
-768
-623
-398
-127
149
386
550
614
568
418
185
-96
-386
-640
-823
-906
-876
-733
-496
-194
135
447
705
873
931
871
701
443
131
-193
-486
-707
-825
-824
-701
-471
-164
180
512
786
962
1015
938
743
458
128
-198
-470
-646
-701
-628
-438
-164
153
463
718
883
933
866
694
446
162
-116
-344
-492
-540
-484
-332
-107
162
438
687
878
988
1003
925
761
533
268
-4
-251
-446
-565
-597
-540
-403
-207
19
240
424
540
567
496
331
91
-194
-487
-749
-943
-1042
-1031
-915
-711
-451
-178
65
241
319
285
144
-86
-370
-664
-925
-1111
-1194
-1157
-1004
-754
-439
-100
219
477
640
690
622
447
189
-115
-426
-704
-912
-1024
-1027
-925
-734
-482
-207
52
258
382
407
331
166
-61
-317
-563
-763
-887
-916
-844
-681
-448
-177
97
339
518
612
611
517
344
117
-133
-370
-564
-687
-718
-652
-493
-254
38
355
664
938
1153
1297
1369
1380
1351
1309
1283
1302
1388
1552
1792
2096
2440
2792
3114
3370
3531
3575
3493
3290
2984
2604
2187
1772
1395
1089
873
756
731
781
878
990
1084
1133
1117
1029
873
664
429
196
-3
-145
-212
-197
-104
50
240
436
607
723
761
708
566
347
77
-212
-482
-698
-830
-863
-793
-634
-416
-175
46
209
282
252
119
-99
-370
-653
-907
-1093
-1186
-1173
-1056
-853
-591
-304
-30
199
358
431
415
315
147
-67
-301
-526
-715
-844
-898
-869
-758
-577
-349
-101
131
314
417
419
312
100
-195
-539
-890
-1202
-1431
-1544
-1523
-1370
-1102
-756
-378
-19
272
459
520
455
282
33
-246
-510
-715
-828
-835
-737
-552
-310
-49
191
375
477
484
397
227
-3
-264
-525
-755
-931
-1036
-1060
-1006
-883
-710
-509
-308
-130
3
75
78
15
-101
-250
-404
-539
-627
-650
-600
-476
-294
-75
149
346
488
551
525
411
223
-12
-264
-498
-682
-791
-813
-747
-606
-414
-201
-1
154
239
242
160
5
-202
-428
-638
-797
-880
-868
-757
-556
-287
15
311
565
741
817
785
650
435
170
-106
-354
-542
-644
-651
-564
-400
-186
45
260
428
527
543
476
334
136
-91
-319
-518
-660
-726
-704
-592
-401
-153
126
400
635
801
877
855
739
548
311
68
-143
-288
-345
-302
-165
46
300
559
786
947
1019
992
868
665
410
136
-122
-331
-464
-503
-446
-300
-82
180
455
708
909
1032
1064
1002
859
656
428
210
37
-59
-60
36
220
465
735
989
1186
1291
1285
1163
936
635
299
-26
-295
-472
-533
-471
-297
-37
271
585
861
1065
1172
1171
1067
880
638
378
136
-57
-176
-209
-155
-27
154
358
556
715
813
834
773
635
440
211
-22
-227
-379
-458
-455
-373
-225
-35
169
354
490
556
538
438
265
44
-196
-421
-598
-699
-705
-611
-426
-171
121
413
664
839
913
873
722
481
181
-138
-432
-661
-796
-818
-729
-544
-293
-13
253
467
601
636
571
417
199
-48
-290
-491
-623
-666
-616
-478
-270
-22
233
461
629
714
702
594
402
150
-130
-403
-635
-797
-870
-848
-736
-551
-320
-75
151
332
445
478
428
306
131
-70
-267
-429
-531
-556
-496
-355
-151
89
330
538
678
726
671
515
278
-10
-309
-577
-775
-875
-863
-743
-533
-263
27
295
503
623
640
555
384
154
-101
-340
-530
-642
-659
-579
-412
-180
87
351
578
736
803
768
635
419
148
-145
-421
-644
-786
-828
-765
-607
-375
-101
178
423
600
688
674
564
375
134
-122
-357
-537
-636
-640
-548
-374
-140
120
370
577
711
754
700
555
339
82
-180
-411
-578
-656
-632
-509
-302
-40
238
491
683
782
771
646
423
129
-197
-511
-769
-937
-991
-925
-747
-485
-173
144
424
631
740
741
637
450
211
-42
-272
-443
-528
-517
-410
-223
17
275
514
698
801
804
707
519
266
-19
-299
-539
-707
-784
-766
-661
-491
-286
-79
95
210
249
209
101
-57
-236
-405
-534
-598
-583
-486
-313
-85
173
431
657
823
909
903
807
632
398
134
-129
-360
-531
-624
-631
-555
-409
-216
-4
198
362
468
501
460
355
203
28
-143
-283
-370
-391
-340
-222
-54
144
345
522
650
712
701
616
469
281
78
-112
-260
-345
-353
-278
-128
79
316
552
753
888
937
889
745
522
249
-37
-298
-495
-600
-595
-480
-268
11
320
615
855
1010
1059
1000
845
622
368
120
-82
-209
-244
-181
-29
190
446
705
933
1099
1181
1166
1054
855
593
296
2
-251
-432
-514
-484
-341
-104
195
514
806
1024
1133
1113
964
705
377
30
-281
-506
-606
-564
-387
-103
243
596
902
1112
1195
1140
957
673
330
-22
-337
-573
-703
-714
-613
-419
-164
113
372
576
698
721
640
468
227
-51
-329
-570
-741
-820
-798
-676
-475
-222
48
296
490
603
620
541
377
151
-105
-356
-569
-716
-777
-743
-621
-426
-185
69
303
485
590
604
524
360
136
-118
-366
-573
-708
-752
-697
-549
-328
-62
213
460
649
754
765
686
530
325
103
-99
-249
-322
-301
-185
16
279
573
865
1118
1307
1415
1438
1386
1285
1167
1068
1023
1061
1199
1438
1767
2158
2576
2980
3329
3589
3735
3755
3650
3437
3140
2793
2433
2095
1810
1601
1480
1448
1493
1595
1724
1848
1933
1953
1888
1734
1497
1199
870
547
269
67
-37
-35
65
241
461
684
871
986
1007
926
747
494
198
-102
-366
-560
-659
-654
-549
-366
-133
108
319
464
516
463
309
74
-210
-505
-767
-958
-1049
-1027
-892
-663
-370
-53
244
482
628
664
584
403
145
-152
-448
-702
-879
-955
-920
-781
-560
-290
-11
232
404
475
434
282
38
-263
-581
-870
-1090
-1209
-1210
-1091
-865
-562
-221
117
409
620
724
713
589
371
88
-222
-521
-770
-937
-1003
-961
-817
-591
-315
-26
238
440
555
566
475
294
50
-223
-487
-705
-850
-902
-853
-714
-502
-248
15
251
430
528
534
446
278
52
-199
-440
-638
-763
-798
-736
-588
-373
-126
116
315
440
469
397
236
9
-247
-491
-684
-794
-802
-704
-514
-259
24
294
513
650
686
616
452
216
-58
-334
-576
-751
-837
-824
-714
-521
-270
8
277
503
659
726
696
575
380
141
-109
-331
-493
-566
-540
-413
-202
63
343
597
786
879
862
734
515
236
-61
-332
-537
-647
-648
-544
-352
-106
155
391
567
658
653
555
384
165
-64
-271
-424
-500
-488
-387
-208
27
290
546
764
915
979
946
818
610
348
65
-201
-413
-540
-562
-472
-278
-2
322
655
955
1185
1318
1339
1251
1069
822
546
281
65
-73
-116
-58
91
309
568
832
1066
1238
1327
1323
1227
1053
824
571
327
124
-12
-63
-25
94
277
495
717
906
1033
1076
1026
887
676
418
151
-87
-261
-345
-326
-205
1
262
542
800
998
1106
1108
1003
805
541
249
-32
-263
-414
-465
-411
-264
-46
209
466
685
836
895
853
716
499
230
-54
-316
-523
-645
-669
-592
-425
-192
73
332
548
690
737
681
529
302
30
-250
-499
-684
-783
-782
-687
-513
-289
-48
173
341
431
429
336
165
-61
-310
-545
-732
-842
-858
-775
-600
-353
-66
224
479
668
763
755
643
445
189
-87
-345
-544
-657
-664
-565
-372
-113
173
444
657
781
793
690
483
200
-119
-431
-692
-866
-929
-871
-701
-442
-129
197
492
719
851
870
778
589
329
33
-259
-511
-689
-772
-751
-630
-428
-173
98
347
539
647
657
568
393
160
-96
-337
-529
-644
-669
-601
-458
-264
-53
140
282
350
333
234
68
-138
-350
-536
-665
-716
-679
-552
-352
-101
171
430
646
791
849
813
687
486
235
-35
-292
-504
-647
-702
-666
-544
-354
-123
118
335
498
588
593
516
372
185
-14
-191
-316
-366
-328
-204
-3
252
531
804
1039
1211
1305
1315
1247
1120
959
795
660
585
588
680
855
1100
1385
1676
1938
2136
2247
2259
2174
2011
1798
1572
1373
1237
1188
1241
1391
1623
1908
2209
2488
2709
2844
2876
2805
2642
2408
2137
1865
1627
1453
1364
1371
1468
1640
1860
2094
2306
2464
2543
2528
2420
2229
1981
1709
1449
1238
1103
1064
1125
1277
1498
1752
2000
2203
2326
2343
2244
2036
1740
1390
1030
705
457
318
305
420
645
948
1288
1615
1882
2054
2104
2025
1824
1522
1156
765
394
80
-144
-260
-264
-165
14
239
469
663
782
797
692
468
143
-249
-661
-1040
-1333
-1497
-1506
-1352
-1053
-648
-189
261
640
898
1002
944
739
424
50
-325
-646
-868
-965
-931
-780
-543
-261
20
257
417
479
436
298
86
-170
-436
-677
-861
-968
-985
-911
-759
-550
-314
-83
112
241
285
236
101
-102
-344
-591
-805
-954
-1013
-972
-833
-613
-343
-60
195
385
479
462
331
102
-196
-526
-847
-1118
-1306
-1393
-1372
-1254
-1059
-821
-577
-363
-210
-138
-156
-260
-435
-655
-890
-1105
-1269
-1359
-1358
-1263
-1080
-831
-545
-256
-1
188
287
283
177
-16
-268
-543
-801
-1005
-1126
-1149
-1071
-905
-677
-423
-181
13
129
150
72
-93
-327
-598
-872
-1113
-1291
-1385
-1384
-1289
-1113
-880
-620
-365
-149
1
65
38
-75
-257
-481
-712
-918
-1066
-1136
-1114
-1005
-825
-599
-363
-151
5
80
62
-44
-223
-447
-680
-885
-1028
-1086
-1046
-911
-698
-436
-163
84
269
367
362
258
71
-170
-430
-668
-850
-949
-949
-851
-670
-433
-175
66
255
365
379
297
130
-98
-355
-602
-804
-932
-967
-902
-744
-513
-239
43
293
478
572
559
438
223
-58
-369
-668
-915
-1074
-1123
-1052
-872
-605
-288
35
318
523
620
597
457
222
-75
-391
-682
-907
-1035
-1048
-945
-741
-463
-151
153
409
583
652
607
457
224
-59
-351
-610
-799
-891
-872
-744
-526
-247
52
331
551
681
704
617
435
183
-105
-389
-631
-801
-877
-852
-731
-534
-289
-30
207
389
491
497
408
236
4
-257
-511
-721
-858
-903
-850
-707
-493
-240
18
241
398
465
431
300
88
-178
-461
-724
-930
-1051
-1071
-986
-810
-566
-291
-27
185
310
326
224
17
-269
-593
-907
-1161
-1314
-1339
-1227
-989
-656
-273
106
430
653
746
698
519
238
-103
-455
-767
-997
-1114
-1107
-979
-753
-464
-154
132
355
485
505
417
233
-17
-300
-576
-807
-966
-1032
-1001
-879
-687
-451
-205
17
188
284
295
221
73
-131
-361
-586
-774
-899
-944
-899
-768
-567
-323
-70
157
324
407
393
283
90
-159
-429
-683
-887
-1014
-1049
-993
-858
-668
-455
-251
-89
9
29
-30
-157
-332
-527
-712
-857
-937
-938
-852
-686
-456
-188
87
335
524
631
638
543
355
96
-202
-501
-764
-955
-1047
-1029
-901
-679
-395
-87
200
424
551
561
448
228
-69
-403
-725
-988
-1155
-1200
-1115
-914
-627
-294
38
320
513
592
546
385
133
-174
-492
-777
-992
-1108
-1114
-1010
-816
-561
-283
-22
185
309
332
252
81
-158
-430
-695
-914
-1056
-1099
-1037
-875
-636
-352
-64
189
373
461
443
321
112
-156
-446
-718
-934
-1066
-1096
-1019
-845
-597
-310
-20
232
413
495
467
331
104
-184
-494
-782
-1008
-1136
-1148
-1039
-822
-526
-192
132
401
577
634
566
383
115
-200
-513
-780
-964
-1040
-1002
-860
-636
-367
-91
152
329
420
416
319
147
-76
-320
-554
-748
-879
-932
-901
-791
-617
-403
-176
32
193
285
293
216
66
-138
-366
-584
-761
-869
-891
-825
-680
-476
-243
-15
175
297
335
283
149
-48
-282
-517
-721
-867
-932
-908
-798
-617
-391
-150
71
242
338
345
261
98
-122
-368
-605
-798
-920
-952
-887
-733
-508
-244
25
263
438
526
516
408
218
-28
-298
-555
-766
-902
-948
-899
-764
-563
-326
-89
113
250
302
259
127
-74
-317
-564
-779
-926
-982
-933
-784
-551
-267
29
293
486
578
553
415
182
-113
-424
-707
-921
-1034
-1031
-917
-712
-448
-168
85
274
373
372
273
95
-134
-379
-606
-782
-885
-899
-823
-664
-443
-183
83
323
507
609
613
513
316
43
-275
-598
-884
-1095
-1199
-1179
-1036
-787
-465
-115
216
481
646
690
608
417
147
-163
-465
-719
-890
-959
-920
-782
-570
-316
-58
167
329
407
392
290
116
-102
-333
-542
-699
-781
-776
-683
-513
-291
-45
190
383
505
537
473
319
93
-176
-453
-702
-887
-982
-975
-863
-662
-396
-103
176
403
541
572
488
301
34
-273
-577
-831
-998
-1053
-988
-813
-554
-251
50
305
476
540
490
336
103
-170
-445
-680
-844
-916
-890
-773
-584
-349
-100
133
322
445
491
457
349
183
-19
-227
-414
-550
-614
-589
-474
-279
-24
256
525
741
872
897
808
615
344
33
-275
-535
-713
-783
-738
-586
-352
-71
215
466
646
732
714
596
397
148
-113
-349
-525
-612
-595
-473
-260
16
320
610
845
993
1034
961
787
537
248
-36
-275
-433
-490
-438
-285
-55
220
500
745
926
1018
1011
908
725
487
223
-33
-251
-407
-481
-469
-374
-209
3
233
451
628
739
769
713
579
383
152
-81
-285
-433
-505
-495
-406
-256
-71
118
280
389
425
382
262
83
-133
-354
-550
-694
-765
-752
-656
-490
-277
-48
164
326
412
405
301
111
-141
-423
-693
-913
-1048
-1078
-993
-802
-530
-212
109
391
594
693
673
538
308
13
-305
-605
-845
-995
-1035
-962
-785
-530
-233
65
323
505
588
563
437
233
-14
-262
-470
-600
-628
-546
-362
-101
200
497
749
920
985
938
789
564
301
44
-162
-280
-281
-153
101
463
901
1376
1845
2267
2606
2840
2959
2966
2877
2720
2527
2331
2163
2044
1986
1991
2046
2133
2226
2296
2320
2279
2163
1974
1722
1425
1109
801
530
317
178
122
144
233
366
516
656
756
794
757
643
460
228
-22
-259
-449
-565
-593
-526
-376
-164
78
312
502
618
639
559
384
135
-157
-455
-720
-920
-1030
-1036
-942
-763
-527
-270
-32
150
247
242
134
-64
-322
-602
-864
-1065
-1175
-1176
-1065
-855
-574
-260
44
298
470
538
493
343
106
-187
-498
-791
-1030
-1186
-1242
-1192
-1041
-810
-528
-231
41
256
384
408
328
155
-86
-358
-623
-841
-982
-1025
-964
-809
-585
-324
-64
156
304
358
310
164
-57
-325
-602
-849
-1034
-1131
-1126
-1023
-836
-593
-328
-77
124
249
280
216
66
-149
-398
-647
-861
-1013
-1082
-1058
-944
-755
-517
-262
-26
159
267
280
195
22
-217
-485
-746
-959
-1091
-1118
-1034
-846
-580
-271
38
303
485
559
515
359
112
-188
-499
-777
-983
-1089
-1080
-959
-743
-462
-155
137
373
523
570
509
352
123
-145
-412
-640
-796
-860
-823
-692
-485
-233
25
254
419
497
475
357
158
-93
-361
-606
-793
-895
-894
-788
-590
-327
-34
249
484
637
688
629
471
238
-37
-312
-547
-706
-766
-717
-567
-337
-59
226
479
665
758
748
636
440
190
-80
-333
-533
-656
-684
-613
-454
-227
39
308
547
726
824
830
746
587
380
156
-48
-199
-273
-257
-150
33
266
513
738
907
995
987
885
703
469
217
-16
-196
-295
-298
-204
-23
219
493
761
989
1146
1209
1172
1038
825
562
286
35
-155
-257
-254
-146
52
314
602
875
1094
1226
1251
1166
984
730
442
159
-78
-236
-293
-245
-98
126
395
672
919
1100
1192
1179
1063
855
579
268
-39
-306
-499
-596
-585
-470
-270
-14
260
510
699
797
790
677
474
213
-69
-328
-524
-627
-622
-508
-299
-24
277
563
796
945
989
924
759
516
226
-70
-336
-536
-646
-652
-557
-374
-133
132
381
577
691
705
617
436
187
-96
-375
-611
-774
-845
-813
-685
-482
-231
30
267
446
545
549
460
291
68
-175
-402
-579
-677
-681
-590
-415
-184
69
305
486
582
578
473
280
29
-244
-499
-698
-811
-824
-732
-547
-296
-11
270
512
683
763
742
626
431
182
-89
-348
-563
-707
-763
-725
-597
-396
-147
117
360
550
658
665
567
372
101
-211
-525
-796
-985
-1062
-1013
-841
-568
-229
128
450
691
814
801
654
395
64
-287
-605
-843
-965
-954
-813
-566
-250
86
395
632
768
786
687
490
224
-71
-353
-585
-736
-786
-731
-579
-351
-79
201
451
637
735
730
622
426
166
-123
-399
-628
-778
-826
-767
-609
-374
-96
186
431
603
675
636
488
251
-43
-355
-640
-858
-975
-975
-855
-632
-335
-7
306
561
720
763
683
493
222
-89
-395
-649
-814
-868
-802
-627
-370
-69
233
491
671
747
712
572
349
76
-208
-465
-660
-769
-780
-696
-532
-313
-72
156
340
456
488
432
298
105
-119
-341
-528
-653
-694
-642
-499
-280
-10
276
542
749
868
878
774
565
278
-50
-373
-646
-828
-891
-824
-633
-347
-5
343
647
862
958
924
768
515
207
-109
-386
-583
-673
-646
-507
-280
1
295
563
768
885
902
819
651
425
172
-72
-274
-407
-451
-400
-259
-43
220
498
755
958
1078
1099
1017
842
596
312
27
-221
-398
-479
-454
-325
-111
159
448
718
931
1059
1087
1011
845
613
346
82
-143
-298
-363
-329
-203
-2
245
503
735
908
996
984
873
674
413
125
-152
-381
-531
-583
-533
-391
-181
61
297
487
599
616
533
360
124
-142
-398
-607
-737
-772
-707
-555
-340
-94
144
341
468
507
451
310
102
-142
-391
-608
-765
-839
-820
-708
-516
-266
10
279
506
662
728
695
569
366
113
-155
-400
-590
-698
-711
-628
-464
-243
0
230
412
522
545
482
344
156
-52
-248
-400
-486
-490
-412
-257
-44
202
454
683
865
980
1021
988
892
756
608
483
416
437
565
809
1160
1595
2079
2565
3007
3360
3596
3697
3666
3523
3304
3052
2811
2620
2504
2475
2524
2631
2761
2876
2941
2928
2819
2611
2315
1954
1559
1166
810
521
323
227
234
331
497
701
910
1085
1194
1212
1126
935
657
320
-37
-369
-634
-795
-833
-741
-534
-242
91
416
685
858
909
829
631
343
5
-334
-628
-837
-935
-912
-772
-540
-249
56
332
539
646
638
515
293
3
-315
-615
-856
-1004
-1038
-955
-767
-502
-197
104
359
533
602
561
418
195
-75
-355
-607
-798
-905
-916
-831
-662
-432
-169
91
316
479
557
542
433
245
3
-260
-508
-707
-829
-857
-787
-632
-414
-169
66
254
365
382
306
149
-65
-300
-521
-694
-793
-804
-726
-571
-360
-120
115
316
459
525
506
403
229
4
-246
-489
-694
-833
-885
-842
-706
-495
-235
37
283
466
559
548
434
235
-17
-284
-521
-691
-766
-732
-595
-371
-95
195
458
656
762
761
654
456
192
-101
-386
-625
-786
-849
-805
-662
-437
-162
126
387
586
697
703
607
421
175
-95
-349
-551
-671
-692
-608
-434
-193
81
350
577
731
792
753
622
417
167
-92
-324
-496
-584
-577
-477
-296
-60
198
443
641
767
804
748
609
409
177
-52
-244
-370
-411
-357
-214
0
258
525
764
943
1035
1027
919
725
470
192
-71
-277
-396
-408
-307
-104
175
494
809
1078
1264
1342
1303
1153
915
623
319
46
-159
-268
-270
-165
28
283
563
829
1046
1185
1229
1173
1025
804
541
270
26
-160
-263
-268
-176
3
245
518
786
1012
1164
1222
1178
1038
823
564
300
70
-90
-157
-119
17
230
486
744
962
1103
1140
1063
876
601
273
-66
-371
-603
-731
-739
-627
-414
-130
184
484
728
882
926
856
684
438
155
-121
-349
-497
-542
-481
-326
-104
147
387
574
678
680
580
390
139
-138
-402
-616
-753
-794
-737
-592
-380
-129
127
356
531
629
642
566
412
199
-48
-298
-517
-678
-757
-740
-627
-429
-170
116
388
609
746
776
693
505
236
-78
-395
-671
-871
-967
-949
-821
-603
-328
-35
236
447
571
594
515
347
118
-139
-386
-586
-710
-740
-669
-507
-277
-10
256
482
636
696
651
509
287
18
-260
-507
-689
-778
-763
-645
-441
-181
97
352
547
652
651
543
341
73
-224
-510
-745
-896
-942
-876
-707
-458
-165
135
400
595
693
682
564
356
88
-205
-480
-699
-833
-862
-780
-599
-342
-44
256
515
696
774
735
583
340
37
-285
-579
-807
-938
-956
-859
-664
-400
-105
178
412
567
625
584
454
258
25
-211
-418
-569
-648
-647
-569
-427
-242
-41
150
304
401
426
376
255
80
-126
-332
-509
-627
-668
-622
-492
-295
-58
184
394
539
596
554
417
204
-51
-313
-540
-698
-763
-724
-586
-370
-105
169
413
591
679
662
544
339
74
-216
-494
-725
-879
-937
-892
-751
-532
-266
14
273
479
606
639
575
423
205
-50
-305
-525
-679
-743
-707
-574
-361
-98
176
420
595
667
621
455
187
-151
-512
-845
-1100
-1236
-1228
-1073
-786
-403
25
440
789
1027
1126
1080
902
625
295
-38
-323
-521
-607
-573
-430
-205
67
340
573
731
788
735
578
337
42
-265
-543
-751
-860
-851
-722
-487
-176
172
510
792
982
1053
999
831
578
278
-21
-273
-443
-506
-458
-309
-86
173
426
635
768
807
749
606
403
173
-49
-229
-340
-364
-296
-143
76
336
604
847
1036
1145
1160
1077
906
666
385
97
-165
-368
-492
-523
-462
-319
-119
110
335
523
648
693
652
528
339
109
-130
-349
-517
-613
-623
-547
-395
-190
41
263
444
555
578
505
345
116
-150
-415
-642
-796
-853
-801
-645
-408
-124
164
409
570
616
531
321
8
-368
-754
-1096
-1343
-1460
-1426
-1243
-935
-543
-121
275
591
786
838
743
521
208
-150
-500
-794
-991
-1066
-1013
-842
-581
-267
55
341
553
663
658
541
328
52
-251
-538
-770
-913
-948
-868
-678
-401
-69
277
599
857
1023
1080
1027
879
663
419
193
28
-36
27
227
555
985
1475
1977
2436
2808
3057
3170
3149
3017
2814
2584
2375
2227
2164
2195
2310
2481
2668
2829
2921
2915
2794
2558
2222
1816
1380
955
582
295
118
57
110
256
469
711
943
1129
1236
1242
1140
932
640
295
-64
-396
-660
-826
-876
-811
-643
-401
-124
146
370
515
564
510
363
147
-107
-364
-590
-755
-841
-839
-751
-595
-392
-172
32
193
286
297
224
75
-131
-368
-602
-800
-934
-984
-940
-809
-606
-362
-112
109
266
335
304
178
-26
-277
-539
-773
-944
-1027
-1011
-898
-706
-465
-211
18
189
277
271
170
-11
-246
-506
-757
-969
-1114
-1177
-1149
-1035
-848
-609
-347
-91
130
288
366
353
251
75
-154
-403
-638
-825
-936
-954
-876
-712
-485
-229
18
217
339
363
284
113
-126
-397
-661
-878
-1015
-1052
-980
-809
-562
-273
17
268
444
519
484
343
115
-166
-458
-719
-910
-1001
-978
-845
-620
-337
-38
232
432
533
518
390
166
-121
-430
-718
-943
-1075
-1096
-1004
-811
-542
-236
68
328
510
588
554
412
180
-108
-414
-694
-910
-1033
-1047
-951
-764
-516
-248
-1
186
285
282
180
-3
-236
-481
-698
-852
-918
-881
-745
-523
-241
69
370
629
813
901
880
750
526
230
-101
-427
-706
-900
-982
-937
-769
-499
-162
196
526
782
929
949
842
632
352
48
-230
-441
-552
-548
-432
-222
49
341
612
826
954
983
910
747
520
259
1
-220
-376
-443
-413
-288
-84
175
454
717
928
1057
1086
1008
832
583
294
6
-242
-413
-486
-451
-316
-101
159
424
656
819
892
865
745
549
308
58
-165
-330
-415
-410
-318
-153
60
290
503
669
763
771
692
535
320
76
-163
-366
-505
-562
-528
-409
-223
3
235
439
584
646
613
488
285
29
-246
-503
-707
-831
-858
-786
-625
-399
-139
117
332
476
528
481
340
125
-134
-402
-640
-816
-905
-894
-783
-587
-334
-60
196
398
515
528
432
236
-35
-345
-653
-919
-1104
-1183
-1144
-989
-741
-432
-106
192
422
549
557
443
222
-76
-411
-737
-1012
-1199
-1274
-1229
-1073
-828
-529
-218
63
276
395
406
308
119
-135
-416
-683
-900
-1033
-1064
-984
-804
-546
-244
59
323
507
586
545
387
134
-182
-515
-820
-1053
-1180
-1184
-1064
-837
-537
-207
107
360
517
559
483
303
48
-242
-524
-758
-912
-968
-920
-781
-576
-337
-103
90
214
249
193
52
-153
-392
-629
-831
-970
-1025
-988
-861
-661
-411
-144
108
315
451
500
456
322
113
-147
-430
-705
-943
-1117
-1209
-1210
-1120
-951
-723
-466
-210
11
168
245
233
137
-25
-224
-425
-592
-694
-710
-636
-480
-265
-26
198
369
456
443
328
124
-139
-423
-688
-894
-1013
-1030
-943
-769
-534
-274
-27
169
288
313
240
80
-145
-405
-664
-887
-1044
-1115
-1090
-973
-780
-537
-276
-33
161
280
310
247
102
-103
-339
-572
-770
-907
-963
-934
-827
-658
-453
-243
-57
78
145
135
51
-97
-285
-489
-680
-832
-926
-946
-890
-763
-582
-371
-158
27
158
214
184
70
-115
-345
-588
-809
-971
-1049
-1026
-901
-687
-411
-111
173
401
540
571
490
310
60
-222
-492
-709
-839
-864
-777
-592
-337
-48
232
459
603
642
570
396
146
-146
-437
-687
-860
-932
-891
-741
-502
-205
109
399
623
750
760
650
432
133
-208
-546
-836
-1038
-1124
-1081
-915
-647
-311
51
390
667
847
911
856
694
452
164
-130
-390
-584
-690
-697
-611
-447
-232
0
215
380
471
477
396
242
37
-186
-393
-550
-633
-628
-534
-365
-148
82
286
430
486
441
294
62
-227
-534
-819
-1043
-1175
-1197
-1107
-915
-649
-343
-39
222
403
479
436
278
26
-290
-627
-940
-1189
-1339
-1371
-1282
-1083
-805
-487
-174
90
268
336
287
129
-114
-407
-709
-978
-1178
-1285
-1288
-1186
-999
-752
-482
-227
-22
103
132
59
-106
-339
-607
-871
-1093
-1238
-1283
-1216
-1042
-782
-469
-143
153
382
513
530
434
238
-28
-326
-616
-856
-1015
-1068
-1009
-843
-590
-282
46
356
613
793
885
888
820
706
583
489
457
515
678
945
1300
1713
2144
2549
2888
3124
3234
3211
3062
2811
2492
2144
1809
1522
1309
1184
1144
1176
1255
1348
1423
1450
1409
1288
1088
824
520
205
-86
-322
-479
-540
-503
-376
-181
51
285
485
618
661
602
442
197
-104
-426
-732
-984
-1154
-1224
-1191
-1064
-865
-626
-382
-169
-15
58
42
-58
-228
-440
-666
-871
-1025
-1107
-1102
-1010
-841
-617
-368
-129
63
179
198
112
-72
-333
-637
-942
-1204
-1383
-1450
-1391
-1214
-940
-608
-264
41
261
365
336
180
-81
-410
-759
-1080
-1329
-1472
-1494
-1396
-1196
-923
-617
-321
-73
94
162
123
-12
-225
-486
-756
-999
-1183
-1279
-1275
-1170
-978
-724
-441
-169
54
199
244
184
28
-203
-474
-747
-984
-1150
-1222
-1191
-1061
-852
-595
-327
-88
89
177
160
40
-169
-437
-729
-1002
-1220
-1350
-1373
-1284
-1095
-831
-526
-222
39
225
311
287
160
-50
-313
-590
-843
-1039
-1152
-1169
-1091
-933
-719
-480
-251
-63
56
90
32
-109
-314
-554
-795
-1001
-1140
-1189
-1135
-982
-744
-454
-149
130
342
456
455
337
119
-169
-488
-790
-1033
-1183
-1218
-1132
-938
-663
-343
-22
260
468
576
577
473
283
37
-232
-486
-690
-818
-854
-795
-647
-432
-180
76
298
456
528
503
386
191
-53
-310
-540
-708
-786
-761
-634
-420
-151
136
398
596
703
702
594
395
134
-149
-413
-619
-736
-749
-654
-464
-205
88
374
616
782
852
815
678
461
191
-94
-356
-559
-676
-690
-598
-413
-160
127
407
641
798
856
810
669
459
212
-31
-231
-358
-392
-327
-175
41
289
533
738
876
930
892
768
575
339
89
-144
-333
-454
-496
-455
-338
-162
47
260
444
574
628
596
479
292
59
-187
-415
-592
-693
-706
-630
-478
-275
-53
153
313
400
400
313
150
-65
-302
-525
-703
-807
-823
-748
-589
-367
-112
141
356
501
556
511
372
155
-108
-382
-626
-806
-895
-882
-769
-575
-332
-79
140
289
342
287
128
-112
-399
-692
-948
-1131
-1213
-1184
-1047
-821
-534
-223
74
326
503
588
576
471
290
56
-202
-451
-661
-805
-866
-835
-716
-527
-292
-46
175
337
415
394
275
73
-184
-461
-719
-921
-1040
-1061
-981
-815
-587
-332
-84
122
261
313
274
152
-35
-258
-487
-688
-830
-891
-860
-739
-542
-294
-27
222
418
534
552
470
296
55
-221
-494
-728
-893
-969
-951
-846
-674
-465
-254
-74
45
85
41
-83
-265
-480
-692
-868
-979
-1004
-934
-775
-542
-262
29
294
501
622
641
557
381
135
-146
-427
-669
-841
-921
-898
-776
-573
-315
-39
220
426
550
576
501
334
95
-183
-465
-713
-893
-984
-972
-861
-665
-412
-138
118
317
429
435
332
132
-136
-435
-720
-946
-1078
-1094
-989
-776
-485
-159
154
406
560
592
499
296
14
-304
-608
-853
-1000
-1028
-931
-721
-427
-88
252
547
760
865
853
728
511
235
-59
-329
-536
-650
-652
-539
-323
-29
307
646
947
1174
1303
1322
1236
1061
828
575
343
168
81
99
227
454
753
1090
1425
1716
1927
2035
2028
1911
1703
1436
1151
890
690
582
582
691
894
1163
1463
1753
1995
2158
2222
2182
2045
1832
1574
1307
1068
888
794
797
899
1086
1334
1610
1875
2095
2238
2284
2225
2071
1841
1568
1293
1053
886
816
853
993
1215
1486
1764
2009
2181
2256
2220
2077
1847
1562
1263
991
782
664
649
734
900
1119
1351
1558
1703
1759
1712
1562
1324
1026
702
391
132
-45
-123
-98
20
209
436
666
861
988
1025
963
804
564
272
-38
-331
-570
-726
-783
-736
-594
-379
-123
137
361
516
577
530
380
144
-151
-467
-763
-1001
-1152
-1200
-1141
-989
-769
-515
-269
-69
53
76
-6
-185
-435
-720
-1001
-1235
-1387
-1431
-1360
-1182
-921
-616
-310
-48
132
205
161
8
-231
-519
-815
-1076
-1268
-1367
-1365
-1267
-1092
-869
-632
-416
-247
-148
-126
-182
-303
-472
-664
-852
-1013
-1124
-1173
-1151
-1064
-920
-739
-543
-360
-213
-123
-103
-158
-282
-459
-667
-878
-1062
-1193
-1252
-1229
-1124
-952
-736
-504
-291
-126
-35
-33
-122
-293
-524
-781
-1029
-1231
-1356
-1383
-1307
-1136
-892
-609
-326
-85
81
147
105
-40
-266
-540
-823
-1075
-1261
-1356
-1350
-1246
-1064
-832
-585
-358
-182
-80
-61
-125
-257
-435
-632
-818
-967
-1058
-1082
-1035
-926
-771
-595
-421
-275
-178
-146
-184
-287
-444
-631
-822
-986
-1098
-1137
-1090
-958
-754
-499
-225
35
247
382
424
368
224
14
-232
-478
-689
-835
-898
-869
-755
-573
-351
-122
83
232
305
291
191
17
-207
-452
-685
-874
-992
-1020
-953
-794
-564
-289
-5
250
442
545
544
439
245
-11
-292
-557
-768
-893
-913
-825
-641
-385
-94
192
432
592
649
595
435
193
-102
-409
-688
-903
-1026
-1042
-950
-764
-513
-231
41
265
411
463
416
280
78
-154
-379
-559
-666
-682
-602
-438
-210
48
301
513
657
710
666
528
312
44
-246
-523
-754
-914
-986
-962
-848
-659
-421
-166
72
261
377
406
345
205
11
-207
-416
-581
-678
-691
-619
-472
-275
-58
145
303
390
393
310
151
-62
-300
-532
-726
-858
-910
-877
-763
-585
-368
-143
61
215
298
296
210
53
-153
-379
-590
-754
-845
-847
-756
-582
-347
-83
172
383
518
556
490
328
89
-195
-484
-742
-934
-1035
-1032
-926
-734
-481
-201
67
289
434
485
435
291
73
-190
-462
-707
-890
-985
-978
-869
-671
-410
-124
148
367
501
529
445
262
8
-280
-559
-784
-921
-948
-858
-665
-395
-88
212
462
626
680
618
446
188
-123
-447
-746
-984
-1136
-1187
-1135
-992
-779
-526
-267
-33
148
253
275
214
85
-88
-276
-447
-569
-619
-584
-463
-270
-30
224
454
624
705
683
556
340
64
-234
-512
-728
-852
-867
-773
-586
-338
-69
178
361
452
433
308
93
-180
-472
-742
-951
-1069
-1080
-983
-789
-525
-223
78
343
538
643
647
553
376
142
-116
-362
-562
-689
-726
-667
-523
-315
-72
170
374
510
556
505
361
144
-119
-393
-640
-828
-932
-937
-843
-662
-418
-142
129
358
517
584
550
421
214
-41
-305
-540
-709
-785
-754
-619
-396
-117
175
438
628
716
684
532
280
-41
-386
-710
-965
-1119
-1148
-1049
-835
-534
-186
164
469
692
803
792
661
430
133
-188
-490
-729
-873
-902
-813
-618
-348
-40
260
510
675
731
673
510
267
-21
-312
-565
-745
-829
-806
-683
-480
-227
39
279
459
552
547
443
253
6
-265
-519
-721
-840
-857
-769
-586
-334
-47
233
467
619
669
608
447
208
-74
-358
-603
-774
-850
-819
-688
-475
-210
70
329
531
653
678
606
447
221
-41
-307
-541
-715
-806
-804
-709
-535
-304
-47
202
410
547
598
553
420
217
-27
-278
-500
-660
-734
-709
-588
-385
-128
146
398
592
698
698
591
391
125
-168
-446
-669
-804
-832
-748
-564
-307
-13
276
521
690
760
724
588
374
112
-161
-409
-600
-707
-718
-632
-462
-234
21
266
465
588
617
544
380
147
-123
-388
-609
-752
-793
-725
-553
-303
-8
286
538
711
778
727
565
311
0
-325
-621
-848
-975
-987
-881
-672
-388
-68
248
517
704
785
751
606
370
75
-240
-534
-769
-912
-945
-862
-676
-411
-103
204
470
656
735
698
550
314
26
-268
-524
-698
-763
-705
-533
-271
42
359
633
823
903
861
708
470
182
-110
-364
-545
-630
-610
-492
-297
-56
197
427
604
706
719
643
490
281
40
-200
-411
-565
-642
-630
-528
-348
-109
160
427
657
821
898
877
763
572
331
76
-154
-326
-413
-401
-291
-97
152
421
670
862
970
976
881
697
449
173
-91
-307
-442
-480
-413
-252
-17
260
541
788
970
1065
1063
966
791
564
319
92
-84
-184
-194
-113
49
268
514
749
941
1059
1084
1008
838
594
306
13
-247
-438
-532
-515
-388
-168
115
422
710
938
1073
1093
996
792
509
187
-130
-398
-580
-652
-606
-453
-218
58
332
558
699
730
645
452
178
-139
-455
-726
-917
-1002
-973
-836
-613
-336
-45
222
432
559
589
524
376
170
-64
-292
-481
-605
-644
-593
-456
-253
-11
236
453
606
671
633
494
268
-17
-325
-616
-850
-996
-1033
-956
-774
-510
-198
121
409
629
757
783
710
556
348
123
-82
-232
-301
-277
-159
39
290
563
818
1021
1146
1176
1113
972
784
588
432
357
398
575
890
1326
1846
2402
2937
3398
3738
3927
3955
3833
3590
3267
2916
2586
2317
2138
2058
2071
2156
2281
2407
2498
2523
2462
2307
2063
1750
1394
1028
687
402
198
89
80
161
312
505
703
872
978
998
920
743
482
162
-181
-507
-779
-963
-1037
-992
-835
-588
-283
40
339
575
718
751
670
488
231
-67
-365
-622
-805
-890
-870
-748
-546
-295
-33
201
370
449
423
293
78
-194
-484
-750
-955
-1067
-1069
-957
-749
-474
-170
118
345
476
492
387
175
-115
-441
-757
-1019
-1188
-1242
-1171
-987
-715
-395
-70
215
422
524
508
379
156
-128
-433
-715
-936
-1065
-1085
-994
-808
-555
-274
-7
205
330
349
259
75
-176
-455
-718
-924
-1042
-1053
-955
-760
-496
-201
84
322
478
535
484
335
108
-166
-450
-710
-913
-1033
-1058
-987
-830
-609
-352
-95
131
296
380
371
273
100
-124
-367
-592
-767
-862
-862
-764
-578
-329
-52
216
434
569
602
523
344
86
-213
-513
-770
-950
-1027
-992
-853
-631
-359
-75
181
374
481
491
407
243
23
-219
-452
-645
-771
-814
-769
-641
-446
-209
39
265
436
527
522
419
230
-21
-298
-560
-764
-878
-877
-758
-532
-230
104
423
678
829
853
744
517
205
-143
-477
-747
-912
-949
-851
-634
-328
22
370
667
875
972
950
818
601
336
63
-176
-347
-426
-404
-284
-83
171
444
701
909
1043
1086
1037
901
699
457
206
-22
-198
-300
-314
-238
-82
135
385
636
852
1004
1072
1044
922
723
473
207
-34
-215
-307
-292
-168
50
334
647
943
1181
1327
1359
1275
1086
822
521
226
-19
-181
-239
-185
-31
197
465
732
956
1105
1154
1095
934
692
398
91
-188
-404
-528
-545
-454
-269
-15
274
556
794
956
1019
976
832
607
332
45
-216
-415
-526
-535
-441
-259
-14
257
515
721
844
864
776
591
333
38
-253
-499
-667
-733
-691
-548
-328
-65
200
427
583
644
602
461
243
-23
-297
-540
-719
-807
-791
-672
-464
-197
94
369
590
726
757
677
497
243
-50
-341
-589
-759
-829
-792
-656
-444
-190
66
287
441
505
473
351
159
-75
-318
-539
-708
-805
-819
-750
-610
-416
-194
28
223
366
438
431
344
187
-18
-247
-467
-650
-769
-807
-757
-628
-437
-212
12
201
326
367
317
185
-10
-236
-458
-641
-755
-780
-711
-554
-331
-69
195
427
598
684
676
574
391
148
-126
-402
-648
-838
-953
-981
-922
-785
-589
-359
-123
87
245
332
339
266
129
-51
-241
-409
-525
-566
-522
-394
-200
32
269
473
611
661
611
467
248
-17
-290
-534
-715
-808
-801
-696
-509
-267
-3
244
440
557
576
492
314
64
-226
-516
-768
-946
-1023
-988
-841
-602
-302
17
312
540
668
681
576
370
94
-210
-496
-722
-856
-876
-782
-587
-321
-24
260
487
625
650
557
356
72
-261
-599
-900
-1127
-1252
-1261
-1154
-947
-667
-350
-38
231
425
525
523
425
253
37
-186
-379
-510
-554
-504
-362
-147
112
377
608
769
833
783
621
363
43
-299
-615
-860
-998
-1006
-880
-636
-307
61
416
708
896
954
875
675
385
52
-273
-543
-717
-773
-705
-527
-267
35
335
593
775
859
838
719
522
279
24
-207
-382
-476
-475
-378
-196
48
322
590
816
968
1024
973
820
583
293
-11
-288
-501
-622
-635
-539
-349
-94
190
462
683
822
862
797
638
405
133
-142
-383
-558
-643
-629
-519
-329
-87
173
413
597
698
699
599
407
146
-149
-442
-696
-877
-965
-951
-841
-654
-418
-171
52
219
305
299
201
26
-203
-453
-690
-880
-999
-1027
-963
-813
-598
-348
-97
119
270
334
299
168
-41
-302
-580
-835
-1032
-1141
-1147
-1047
-852
-587
-289
3
249
416
482
441
301
85
-172
-432
-655
-807
-864
-818
-675
-455
-188
88
334
518
616
615
517
338
107
-143
-372
-546
-638
-628
-513
-304
-27
284
589
848
1026
1103
1075
956
775
576
409
321
351
522
835
1270
1789
2341
2867
3312
3632
3796
3795
3638
3352
2976
2554
2133
1754
1449
1239
1134
1126
1201
1330
1480
1615
1699
1702
1605
1401
1099
726
319
-75
-407
-637
-734
-689
-512
-232
105
445
731
919
978
899
694
393
40
-315
-622
-841
-945
-927
-795
-576
-305
-25
222
400
482
456
323
99
-189
-506
-811
-1066
-1241
-1316
-1284
-1151
-937
-673
-398
-149
37
137
137
39
-141
-376
-629
-860
-1033
-1118
-1099
-974
-759
-481
-179
102
320
440
441
317
82
-233
-586
-928
-1209
-1389
-1441
-1357
-1146
-837
-474
-106
216
447
556
528
366
93
-255
-630
-982
-1263
-1435
-1474
-1375
-1151
-829
-451
-67
272
524
655
651
518
276
-37
-373
-685
-927
-1069
-1091
-994
-799
-537
-251
14
219
333
337
232
29
-244
-551
-851
-1105
-1278
-1349
-1307
-1157
-916
-616
-293
12
261
424
479
425
272
42
-229
-502
-739
-905
-979
-954
-834
-640
-402
-156
62
219
291
269
154
-37
-277
-532
-766
-944
-1038
-1033
-925
-728
-467
-177
102
332
479
523
458
294
58
-214
-481
-700
-837
-870
-794
-621
-375
-92
186
419
574
631
582
436
216
-48
-318
-556
-730
-819
-809
-702
-512
-264
9
274
493
640
693
648
509
295
39
-225
-457
-625
-703
-679
-556
-352
-98
169
408
583
670
657
546
357
121
-126
-343
-496
-560
-523
-390
-177
88
373
640
857
998
1050
1007
878
681
442
191
-41
-225
-339
-369
-311
-172
30
269
510
720
865
921
874
723
484
184
-137
-436
-672
-808
-823
-711
-485
-173
185
541
848
1066
1168
1143
1000
761
463
150
-133
-347
-467
-479
-387
-210
21
268
492
657
736
715
596
393
133
-150
-418
-634
-771
-810
-746
-591
-366
-104
157
379
529
587
542
400
181
-83
-358
-603
-786
-883
-882
-788
-616
-394
-158
58
223
312
314
230
75
-130
-354
-567
-739
-845
-871
-812
-674
-475
-239
4
223
388
476
474
379
201
-37
-303
-562
-778
-917
-959
-895
-732
-491
-204
87
339
514
585
538
376
118
-202
-543
-858
-1106
-1252
-1277
-1177
-967
-673
-337
-3
283
485
576
544
397
157
-143
-457
-743
-961
-1083
-1091
-986
-784
-513
-212
77
316
473
528
475
325
98
-173
-449
-693
-872
-964
-957
-855
-674
-441
-190
44
227
333
347
270
113
-100
-336
-558
-730
-824
-823
-723
-535
-285
-12
245
446
559
563
452
240
-46
-367
-677
-935
-1102
-1157
-1092
-917
-657
-350
-38
235
434
531
516
392
179
-94
-390
-668
-891
-1027
-1059
-979
-800
-543
-243
60
323
511
596
565
421
184
-112
-426
-711
-930
-1050
-1057
-950
-750
-486
-202
62
267
385
403
321
156
-64
-305
-529
-704
-804
-815
-738
-583
-373
-137
96
293
429
485
453
336
150
-84
-336
-574
-766
-888
-920
-855
-700
-472
-201
77
323
500
578
541
388
136
-185
-532
-857
-1116
-1269
-1293
-1184
-954
-635
-270
91
397
609
699
660
498
241
-70
-390
-673
-879
-979
-963
-834
-615
-340
-50
212
405
503
488
364
149
-125
-419
-689
-896
-1010
-1015
-911
-711
-444
-145
146
393
565
646
630
523
342
115
-128
-356
-540
-655
-688
-634
-499
-303
-69
169
378
525
588
553
423
214
-46
-319
-562
-737
-815
-779
-632
-392
-91
227
516
735
851
846
722
498
204
-115
-413
-645
-778
-789
-675
-451
-147
197
532
811
995
1057
989
800
518
186
-149
-437
-637
-719
-672
-502
-236
87
422
719
938
1051
1044
921
703
423
120
-163
-390
-532
-574
-517
-375
-170
64
292
481
606
649
605
483
298
76
-153
-358
-513
-596
-598
-515
-359
-152
80
306
491
607
633
557
383
127
-184
-512
-816
-1057
-1202
-1232
-1141
-942
-663
-343
-29
234
409
469
407
234
-23
-326
-626
-877
-1040
-1090
-1017
-830
-557
-235
88
366
561
644
605
449
200
-107
-427
-717
-936
-1057
-1066
-964
-768
-509
-224
47
267
407
451
397
255
49
-190
-426
-623
-753
-795
-740
-592
-366
-86
212
494
724
876
929
878
732
512
250
-12
-233
-373
-402
-303
-77
263
685
1146
1601
2004
2319
2522
2606
2580
2472
2315
2152
2022
1958
1976
2079
2254
2473
2701
2897
3022
3046
2953
2740
2421
2024
1586
1151
763
460
267
198
246
393
605
841
1058
1215
1284
1246
1102
866
566
239
-75
-340
-527
-620
-615
-523
-366
-172
28
200
317
360
322
205
21
-206
-449
-675
-853
-958
-973
-892
-724
-490
-221
44
267
412
455
384
206
-57
-371
-691
-974
-1179
-1278
-1255
-1114
-874
-568
-239
70
318
473
518
451
284
45
-230
-500
-727
-878
-932
-881
-734
-511
-244
28
266
437
514
487
357
140
-135
-432
-713
-940
-1085
-1128
-1066
-905
-669
-392
-111
135
313
400
383
267
67
-185
-454
-699
-884
-980
-973
-861
-658
-393
-102
172
388
516
533
434
231
-51
-374
-694
-965
-1149
-1221
-1169
-1002
-744
-435
-119
157
352
438
404
255
15
-279
-583
-851
-1042
-1128
-1095
-946
-702
-396
-67
239
483
635
674
596
413
150
-159
-473
-751
-960
-1072
-1076
-972
-776
-515
-226
57
295
459
529
497
370
165
-90
-359
-608
-802
-914
-926
-836
-654
-401
-110
180
430
603
673
631
480
242
-47
-343
-599
-772
-832
-765
-577
-294
43
386
681
885
968
917
743
473
149
-180
-464
-663
-752
-720
-578
-351
-75
207
456
637
728
722
625
455
239
8
-206
-374
-473
-490
-423
-279
-74
168
418
647
827
934
956
888
740
532
295
63
-128
-246
-271
-196
-29
206
476
739
954
1087
1117
1037
856
602
310
20
-225
-392
-461
-425
-290
-77
184
459
712
912
1035
1069
1010
870
667
431
194
-13
-160
-227
-204
-91
95
329
576
800
964
1041
1016
886
667
385
78
-213
-449
-597
-637
-566
-393
-145
143
431
679
852
927
894
759
540
269
-17
-278
-476
-584
-587
-485
-292
-37
240
498
694
797
785
656
421
111
-235
-570
-851
-1038
-1107
-1050
-877
-612
-292
38
335
559
684
698
604
418
171
-103
-365
-578
-713
-753
-692
-540
-317
-53
217
454
628
711
690
565
351
74
-230
-521
-757
-908
-950
-880
-706
-453
-156
141
395
570
642
604
461
238
-32
-306
-544
-709
-779
-743
-607
-389
-123
154
401
584
678
667
553
349
81
-216
-506
-750
-918
-989
-955
-822
-610
-350
-81
159
335
421
403
285
85
-168
-433
-670
-843
-924
-899
-771
-556
-285
6
276
491
621
651
581
420
193
-69
-330
-554
-713
-784
-756
-632
-428
-173
98
346
534
634
626
508
294
13
-295
-585
-814
-947
-963
-859
-648
-361
-39
271
526
691
744
680
511
262
-29
-323
-580
-766
-859
-846
-734
-538
-286
-12
246
455
584
616
547
386
154
-116
-388
-622
-786
-855
-821
-687
-472
-207
71
322
509
607
601
494
303
55
-211
-456
-643
-741
-737
-627
-425
-156
145
437
682
848
914
876
741
532
281
29
-188
-336
-391
-341
-193
37
321
624
910
1148
1310
1384
1367
1269
1112
925
741
595
514
519
620
813
1079
1389
1706
1987
2192
2291
2265
2113
1853
1517
1152
811
544
391
376
505
760
1105
1494
1872
2188
2401
2486
2439
2274
2020
1718
1413
1149
961
872
891
1009
1206
1452
1711
1948
2130
2233
2244
2160
1993
1764
1503
1244
1022
866
799
827
948
1144
1384
1631
1848
1998
2053
2000
1842
1595
1290
966
665
429
289
262
350
539
800
1094
1377
1605
1742
1762
1655
1427
1099
708
298
-85
-397
-599
-672
-607
-417
-131
210
555
855
1066
1154
1106
925
635
273
-111
-466
-747
-919
-964
-882
-689
-418
-111
186
431
590
643
585
427
196
-74
-341
-567
-718
-773
-726
-582
-364
-104
155
376
523
573
515
355
115
-172
-465
-723
-908
-996
-973
-845
-630
-362
-80
175
366
464
455
339
133
-135
-430
-711
-941
-1090
-1139
-1083
-931
-705
-438
-166
70
238
313
280
141
-88
-380
-698
-1001
-1251
-1414
-1468
-1405
-1234
-978
-673
-360
-81
127
235
231
119
-85
-348
-632
-896
-1101
-1215
-1219
-1111
-906
-633
-329
-39
192
328
341
222
-19
-355
-745
-1136
-1476
-1716
-1819
-1769
-1571
-1249
-847
-422
-32
271
445
470
348
101
-230
-593
-935
-1204
-1362
-1386
-1276
-1047
-734
-379
-32
261
462
547
507
351
102
-204
-526
-822
-1053
-1191
-1223
-1146
-977
-742
-473
-209
14
169
236
211
101
-74
-288
-509
-702
-840
-903
-881
-777
-604
-384
-147
74
249
352
368
295
142
-70
-311
-546
-739
-861
-890
-818
-652
-412
-131
152
397
568
637
594
445
208
-84
-388
-661
-863
-965
-949
-818
-588
-289
40
354
611
777
828
757
572
296
-33
-373
-678
-905
-1024
-1017
-884
-641
-323
27
360
629
797
840
755
555
272
-51
-366
-624
-789
-837
-763
-577
-309
0
306
565
741
808
757
597
351
54
-252
-528
-734
-843
-841
-727
-519
-244
62
359
606
770
828
771
604
346
28
-309
-625
-879
-1041
-1090
-1020
-841
-577
-263
58
344
557
670
671
563
367
115
-152
-391
-566
-647
-623
-497
-289
-30
239
478
648
721
685
539
302
2
-322
-627
-876
-1035
-1085
-1019
-848
-595
-295
12
284
485
588
582
472
275
24
-243
-482
-655
-736
-708
-577
-361
-91
192
446
632
722
702
575
356
77
-224
-505
-730
-868
-903
-833
-670
-440
-175
87
307
456
511
464
319
95
-178
-463
-720
-911
-1008
-993
-866
-640
-345
-20
291
545
706
753
682
507
255
-33
-315
-549
-702
-755
-706
-566
-363
-128
100
288
409
448
402
281
104
-104
-313
-495
-624
-683
-665
-568
-405
-193
43
275
475
618
685
666
561
379
142
-124
-389
-622
-797
-895
-906
-831
-683
-484
-261
-45
135
256
303
273
175
27
-145
-309
-435
-496
-478
-375
-199
29
276
505
680
770
760
645
438
165
-134
-420
-652
-798
-837
-766
-596
-352
-69
211
450
613
680
640
500
279
6
-281
-543
-745
-860
-870
-776
-589
-336
-51
224
452
599
643
579
417
181
-94
-366
-595
-746
-796
-738
-579
-343
-63
222
473
655
743
727
610
407
146
-137
-403
-615
-743
-769
-688
-510
-260
28
309
540
682
710
613
400
97
-256
-608
-907
-1109
-1182
-1114
-911
-601
-225
165
519
788
939
955
836
603
288
-64
-405
-691
-882
-954
-896
-716
-437
-96
261
586
833
966
965
826
563
211
-185
-569
-890
-1102
-1176
-1103
-891
-572
-190
198
539
786
905
882
724
456
119
-236
-559
-803
-934
-934
-804
-563
-247
99
428
694
860
905
824
628
347
21
-305
-584
-779
-862
-824
-670
-426
-125
187
466
673
779
768
644
425
142
-165
-452
-679
-817
-848
-767
-587
-335
-44
245
495
672
750
720
588
371
101
-187
-451
-656
-771
-780
-681
-489
-231
55
326
541
668
686
593
401
138
-156
-440
-672
-821
-866
-804
-646
-415
-145
127
364
537
626
623
531
367
156
-72
-285
-451
-547
-557
-479
-322
-107
136
371
562
678
698
615
436
182
-112
-409
-667
-851
-936
-911
-781
-564
-290
4
281
504
646
693
643
505
302
63
-177
-381
-522
-576
-536
-406
-203
43
298
521
678
744
705
563
336
57
-237
-501
-699
-799
-787
-663
-445
-162
146
437
672
818
857
783
606
349
47
-264
-541
-751
-867
-874
-772
-577
-315
-21
265
503
662
719
667
514
282
5
-277
-523
-698
-775
-743
-608
-388
-117
166
418
604
695
679
560
355
95
-181
-431
-619
-715
-705
-588
-379
-105
195
482
718
871
922
866
711
480
206
-73
-319
-498
-586
-571
-454
-253
6
288
554
768
902
937
869
707
470
191
-95
-350
-545
-656
-672
-594
-435
-218
25
262
461
597
655
631
532
379
199
23
-117
-194
-190
-99
72
303
563
816
1028
1166
1206
1139
970
718
418
107
-172
-382
-494
-493
-378
-166
114
423
718
958
1108
1146
1065
876
602
282
-42
-325
-528
-622
-593
-446
-200
111
445
757
1004
1152
1184
1096
903
634
327
24
-234
-411
-487
-455
-324
-118
131
382
596
740
789
734
581
349
70
-218
-476
-667
-766
-760
-652
-459
-211
57
302
489
587
582
472
273
14
-270
-537
-748
-872
-889
-797
-608
-348
-57
224
453
597
632
553
369
105
-203
-513
-784
-979
-1072
-1051
-920
-695
-409
-97
198
441
600
659
613
474
263
13
-237
-450
-595
-647
-597
-447
-214
73
379
665
896
1040
1080
1010
839
591
302
14
-228
-384
-421
-320
-75
298
770
1299
1836
2329
2736
3022
3174
3191
3092
2912
2694
2482
2317
2228
2230
2318
2473
2661
2841
2972
3016
2948
2761
2462
2078
1645
1212
824
524
342
291
367
547
795
1065
1309
1483
1554
1504
1332
1055
706
327
-39
-348
-566
-673
-662
-546
-347
-100
157
385
550
627
605
484
280
17
-270
-543
-768
-914
-960
-900
-742
-509
