-469
0
0
0
0
0
0
0
0
0
0
0
0
0
0
0
0
0
0
0
0
0
0
0
0
0
0
0
0
0
0
0
0
0
0
0
0
0
0
0
0
0
0
0
0
0
0
0
0
0
0
0
0
0
0
0
0
0
0
0
0
0
0
0
0
0
0
0
0
0
0
0
0
0
0
0
0
0
0
0
0
0
0
0
0
0
0
0
0
0
0
0
0
0
0
0
0
0
0
0
0
0
0
0
0
0
0
0
0
0
0
0
0
0
0
0
0
0
0
0
0
0
0
0
0
0
0
0
0
0
0
0
0
0
0
0
0
0
0
0
0
0
0
0
0
0
0
0
0
0
0
0
0
0
0
0
0
0
0
0
0
0
0
0
0
0
0
0
0
0
0
0
0
0
0
0
0
0
0
0
0
0
0
0
0
0
0
0
0
0
0
0
0
0
0
0
0
0
0
0
0
-459
-389
-455
-462
-391
-392
-502
-320
-169
-344
-400
-270
-430
-458
-456
-523
-321
-267
-247
-335
-335
-301
-416
-428
-468
-353
-200
-434
-362
-11
-213
-216
-217
-357
-63
31
-52
-132
-237
-65
148
104
-169
-131
-10
-129
-42
-77
-274
-273
-326
-430
-473
-585
-429
-206
-295
-489
-572
-451
-415
-610
-420
-408
-950
-1177
-1025
-660
92
1554
3022
4406
5292
4690
3253
1512
43
-573
-499
-296
-169
-335
-628
-486
-139
-150
-296
-435
-534
-245
-142
-398
-299
-108
-243
-296
-126
-245
-265
-137
-198
0
-126
-145
73
-77
176
449
252
355
482
283
562
736
514
792
961
848
881
721
925
1169
888
657
516
271
188
350
104
-144
-57
-329
-332
-148
-411
-538
-426
-330
-427
-372
-590
-686
-283
-240
-230
-537
-697
-222
-215
-536
-323
-276
-612
-452
-256
-295
-411
-473
-284
-404
-395
-228
-472
-476
-212
-183
-290
-396
-483
-583
-618
-267
-112
-288
-203
-314
-453
-266
-142
-205
-315
-167
-156
-199
-330
-557
-99
300
117
-78
-43
45
-44
-279
-400
-390
-532
-447
-456
-592
-426
-371
-338
-537
-703
-481
-428
-512
-433
-405
-572
-701
-1098
-1485
-1045
-50
1170
2501
4051
5189
4821
3323
1838
249
-887
-628
-329
-499
-335
-366
-773
-503
-358
-372
-188
-243
-237
-448
-536
-317
-249
-276
-185
-207
-305
-250
-216
-62
-12
-207
-37
168
-44
-118
149
328
82
225
416
269
808
946
695
830
838
752
655
913
1114
744
336
394
413
81
198
366
-21
-273
-321
-282
-338
-511
-293
-313
-469
-376
-376
-407
-456
-585
-555
-427
-405
-330
-368
-429
-522
-578
-431
-377
-234
-296
-375
-189
-344
-438
-221
-258
-263
-299
-417
-436
-594
-436
-231
-215
-310
-474
-354
-201
-242
-341
-422
-428
-202
-205
-223
-76
-344
-425
-228
-95
46
22
-119
-66
32
-179
-300
-195
-62
-221
-465
-258
-172
-302
-637
-742
-496
-432
-327
-430
-746
-601
-356
-290
-212
-378
-751
-1232
-1406
-1094
-469
733
2239
3689
4814
4594
3384
1849
561
-245
-751
-468
-269
-287
-334
-627
-443
-356
-566
-293
-368
-538
-210
-308
-509
-340
-347
-446
-121
-18
-325
-460
-322
-236
-131
69
-113
-159
93
195
71
70
240
362
454
592
600
422
713
1022
785
655
858
827
762
633
428
428
261
11
-58
37
-60
-230
-253
-248
-408
-403
-313
-475
-293
-171
-582
-673
-367
-384
-438
-481
-312
-193
-480
-513
-371
-406
-518
-437
-343
-440
-484
-350
-210
-331
-402
-221
-426
-428
-135
-327
-367
-264
-558
-562
-195
-223
-461
-462
-290
-194
-79
-123
-201
-208
-415
-394
-148
-104
-55
-63
-94
-10
-169
-155
102
-26
-194
-220
-187
-205
-334
-376
-562
-633
-357
-298
-473
-386
-458
-447
-439
-862
-454
-297
-812
-870
-1141
-808
-96
691
2349
3916
4790
4589
3428
2172
676
-531
-431
-138
-170
-272
-375
-304
-305
-296
-481
-488
-110
-55
-245
-347
-285
-205
-202
-217
-175
-280
-196
117
-205
-253
-17
-312
-57
334
142
216
267
334
509
301
248
441
682
953
1081
980
805
1016
1048
810
757
765
706
521
225
32
90
-5
41
121
-136
-155
-341
-436
-132
-485
-337
-151
-502
-144
42
-294
-522
-439
-163
-374
-601
-335
-180
-168
-375
-240
-208
-382
-233
-216
-195
-150
-114
-272
-475
-352
-128
-231
-426
-265
-391
-340
-125
-419
-372
-32
-75
-337
-273
-56
-71
-154
-154
-122
-114
-110
-29
88
-14
-106
150
163
-176
-334
65
243
-107
-101
-302
-835
-509
30
-207
-329
-255
-335
-413
-607
-511
-250
-156
-161
-397
-592
-1094
-1355
-774
38
1398
2844
4040
5104
4603
2899
1611
710
-97
-496
-432
-315
-120
-44
-98
-373
-462
-166
-186
-297
-276
-103
-83
-118
-24
-126
-276
-40
-85
-575
-67
234
-17
179
87
-69
155
268
236
406
338
47
227
652
760
876
947
818
966
1085
1003
1083
943
737
567
553
595
500
448
147
6
155
-4
-173
-80
-198
-322
-188
-68
-289
-722
-260
39
-486
-416
-57
-143
-303
-402
-426
-135
-182
-314
-206
-211
-223
-456
-477
-102
5
-101
-150
-456
-411
-85
-409
-366
-127
-210
-162
-379
-508
-256
-156
-216
-254
-234
-105
-135
-247
-149
-118
-204
-112
64
-37
-85
120
4
-224
3
176
136
153
52
-176
-308
-460
-502
-267
-269
-524
-318
-104
-356
-453
-281
-248
-472
-406
-177
-300
-585
-882
-1185
-1096
-373
807
1909
3144
4651
5157
4237
2592
899
-106
-477
-434
-139
-298
-253
-83
-486
-562
-216
-68
-132
-250
-506
-507
-139
-137
-247
-21
-118
-465
-310
-218
-73
219
-52
-188
109
1
-120
256
316
273
469
510
342
408
826
913
939
926
879
940
650
714
894
597
615
752
530
127
-48
202
192
-74
-190
-204
-274
-307
-188
-268
-507
-341
-227
-369
-352
-449
-581
-280
-54
-219
-245
-231
-294
-361
-311
-47
-95
-457
-257
-40
-160
-203
-350
-167
27
-145
-312
-478
-322
-124
-180
-116
-82
-124
-195
-321
-254
-299
-274
-150
-225
-172
25
-42
-349
-219
-75
-186
35
207
224
296
167
31
74
83
-124
-232
-208
-288
-271
-326
-352
-517
-665
-169
-182
-452
-178
-303
-452
-283
-615
-651
-338
-865
-1181
-1020
-311
1139
2718
4235
4939
4679
3703
2085
602
-312
-661
-512
-576
-393
-56
-251
-256
-271
-228
0
-133
-299
-302
-228
-311
-270
-42
-288
-424
-72
78
-38
-186
-92
176
289
211
146
143
-93
228
709
506
542
611
457
517
838
924
883
1098
1032
807
890
866
715
691
615
524
358
100
45
110
-50
-138
-100
-140
-161
-381
-413
-262
-346
-453
-412
-318
-305
-326
-391
-506
-373
-72
-303
-296
-223
-362
-200
-233
-108
-39
-242
-345
-395
-252
-106
-544
-550
125
-130
-387
-130
-100
-219
-303
-356
-442
-314
-292
-326
-122
-27
-200
-361
-331
-43
-35
-194
-83
28
112
29
-82
-17
-54
-223
-97
-121
-296
-151
-166
-433
-522
-249
-492
-765
-253
-179
-439
-368
-263
-378
-661
-563
-475
-957
-1190
-1201
-757
867
2468
3585
4675
4916
3769
2101
591
-342
-698
-489
-50
-345
-542
-353
-366
-204
-74
-344
-476
-221
-175
-259
-190
-83
-774
-941
232
197
-279
-174
-236
-7
240
144
195
12
-286
35
307
424
286
176
556
528
680
874
721
671
849
1094
1088
932
558
735
869
592
331
-88
132
308
-64
-162
-263
-256
-131
-305
-398
-390
-273
-331
-396
-179
-138
-397
-551
-380
-245
-193
-388
-406
-170
-282
-404
-157
-130
-305
-167
-233
-301
-159
-261
-349
-363
-413
-380
-157
-15
-217
-254
-443
-575
-218
-83
-171
-185
-207
-170
-37
-182
-291
-31
-77
-397
-121
251
89
-87
93
132
-127
-92
31
-158
-376
-320
-262
-448
-382
-190
-316
-377
-425
-572
-401
-317
-429
-403
-464
-502
-696
-1113
-1072
-565
146
1527
2973
4009
4710
4498
3031
1072
137
-236
-742
-598
-126
-1
-61
-304
-412
-201
-136
-304
-360
-298
-241
-236
-408
-360
-106
-318
-364
-167
-408
-197
212
76
97
139
-177
-257
36
104
134
393
352
363
560
496
682
742
779
1055
829
865
1049
775
675
602
481
404
54
-16
127
42
-163
-265
-338
-433
-326
-317
-397
-470
-489
-206
-310
-636
-358
-212
-293
-445
-570
-388
-452
-584
-331
-267
-472
-265
-163
-540
-505
-363
-385
-263
-398
-539
-298
-134
-329
-608
-558
-391
-231
-236
-445
-397
-433
-563
-167
-226
-419
19
-113
-131
-17
-442
-292
37
-6
-177
-132
70
-31
-152
-121
-4
-235
-291
-97
-299
-349
-392
-663
-490
-329
-443
-519
-555
-478
-508
-565
-578
-443
-549
-1029
-1165
-850
-74
998
2268
3874
4969
4599
3114
1606
448
-379
-647
-591
-295
-181
-419
-416
-203
-223
-458
-471
-320
-238
-245
-243
-206
-128
-214
-385
-236
-214
-414
-235
-22
-194
-218
-230
-85
277
190
249
366
346
434
405
259
348
763
859
789
870
918
931
644
576
863
825
572
372
306
133
6
-18
36
-39
-285
-216
-341
-537
-262
-331
-540
-334
-362
-340
-300
-493
-273
-249
-511
-322
-268
-476
-244
-257
-568
-325
-230
-239
-462
-539
-148
-277
-322
-164
-158
-280
-385
-247
-335
-340
-259
-233
-261
-404
-333
-176
-168
-292
-272
-247
-177
40
-142
-294
-59
-34
65
179
107
-157
-170
208
101
-425
-442
-162
-148
-193
-397
-479
-404
-450
-347
-297
-570
-565
-355
-483
-511
-481
-642
-580
-869
-1074
-669
-177
1088
2642
4005
4818
4199
3177
1616
224
-46
-533
-695
-230
-80
-142
-292
-468
-429
-245
-259
-469
-219
-180
-453
-290
-248
-191
-118
-281
-114
-66
-550
-406
193
190
-20
122
34
-251
245
483
329
463
508
589
609
743
786
791
848
765
882
816
664
777
723
367
263
388
302
244
234
-20
-204
-178
-259
-281
-216
-400
-447
-416
-582
-484
-229
-193
-310
-259
-301
-469
-370
-466
-570
-169
-208
-580
-437
-300
-278
-202
-418
-425
-196
-133
-214
-342
-340
-310
-305
-441
-412
-376
-301
-127
-220
-300
-253
-231
-348
-192
-53
-309
-405
-215
-27
28
10
-241
-225
58
-205
4
176
-228
-301
-314
-403
-445
-343
-390
-343
-373
-463
-502
-512
-243
-368
-454
-304
-428
-665
-765
-1039
-1263
-912
-264
1134
2720
3834
5085
4971
3356
1773
360
-362
-699
-808
-397
-197
-339
-350
-395
-522
-494
-376
-216
-146
-292
-435
-479
-360
-197
-172
-242
-203
-220
-316
-209
-214
-103
56
94
129
64
51
101
119
373
603
606
637
502
611
873
848
896
807
725
759
619
664
637
311
248
337
124
-105
-131
-244
-427
-319
-244
-291
-506
-634
-259
-288
-520
-388
-419
-506
-550
-476
-218
-336
-446
-379
-558
-649
-336
-276
-319
-32
-261
-475
-247
-237
-395
-342
-212
-345
-374
-326
-389
-258
-349
-373
-324
-548
-244
-92
-417
-314
-107
-103
-184
-319
-332
44
196
-3
-227
-222
162
108
-147
-349
-492
-311
-376
-645
-416
-242
-369
-459
-622
-561
-717
-693
-295
-513
-425
-456
-910
-1051
-1370
-994
-100
987
2559
3727
4666
4660
3404
1743
273
-402
-733
-792
-389
-289
-800
-813
-232
-289
-429
-283
-342
-301
-221
-435
-536
-365
-209
-139
-354
-490
-315
-335
-153
-248
-403
112
-23
35
206
1
122
250
123
157
416
410
531
808
756
497
567
879
931
565
649
681
326
292
112
58
146
-36
-260
-327
-346
-376
-389
-477
-373
-367
-478
-561
-571
-447
-449
-533
-547
-358
-360
-497
-517
-434
-364
-411
-507
-413
-332
-564
-539
-312
-296
-397
-295
-255
-401
-307
-507
-498
-90
-205
-386
-520
-435
-270
-340
-273
-297
-283
-202
-166
-221
-609
-377
125
-2
-146
-156
10
50
-185
-323
-383
-510
-476
-346
-412
-503
-499
-664
-856
-668
-514
-479
-412
-526
-490
-436
-701
-726
-1041
-1415
-1006
-497
596
2280
3418
4340
4759
3648
1931
463
-523
-638
-410
-237
-270
-487
-405
-418
-518
-447
-598
-636
-543
-306
-177
-232
-180
-398
-466
-200
-213
-374
-321
-272
-183
-139
-196
-107
-187
-414
-109
435
357
286
506
278
260
727
798
721
796
638
710
802
459
603
796
597
477
259
79
-85
-281
-54
-288
-570
-177
-399
-525
-431
-444
-279
-410
-349
-369
-485
-289
-368
-364
-565
-721
-340
-290
-558
-385
-280
-601
-426
-192
-268
-498
-470
-257
-375
-371
-419
-378
-171
-254
-440
-480
-229
-383
-613
-302
-241
-222
-13
-148
-258
-191
-304
-237
2
-1
-113
-69
83
-61
-69
124
-57
-460
-659
-270
-69
-371
-426
-258
-391
-480
-388
-495
-477
-318
-539
-750
-515
-260
-485
-1085
-1426
-1093
-206
858
2148
3678
4618
4568
3756
2056
391
-258
-509
-592
-310
-48
-52
-299
-393
-369
-416
-344
-532
-599
-280
-367
-440
-145
-68
-185
-207
-226
-164
-14
-131
-344
-39
149
-145
-45
92
37
174
198
315
556
426
546
917
753
566
843
1059
912
766
640
703
724
619
514
276
257
127
-187
-209
-80
-160
-204
-375
-544
-303
-155
-246
-358
-349
-479
-430
-424
-585
-310
-179
-163
-345
-589
-364
-206
-337
-502
-465
-362
-227
-309
-458
-258
-347
-417
-284
-236
-384
-520
-278
-289
-345
-422
-471
-244
-259
-121
-112
-305
-76
-39
-275
-215
-53
-166
-168
-4
-67
-39
-42
-45
27
111
-10
-299
-266
-342
-395
-341
-575
-462
-217
-351
-383
-440
-468
-593
-747
-359
-214
-506
-967
-1268
-872
-374
452
1935
3579
4739
4789
3739
2102
799
-4
-662
-582
-271
-251
-307
-464
-226
-118
-413
-386
-285
-352
-334
-145
-214
-391
-141
-92
-296
-196
7
15
-122
-120
-95
-50
216
175
-8
-46
84
245
441
624
642
717
766
866
874
903
880
810
1082
1104
836
755
714
613
367
139
138
292
125
-140
-232
-290
-67
-93
-312
-498
-427
-210
-345
-210
-157
-325
-212
-124
-278
-484
-327
-334
-233
-163
-522
-253
52
-165
-270
-219
-210
-111
-97
-256
-465
-373
-120
-209
-137
-83
-151
-107
-134
-182
-169
-95
-81
-291
-287
-48
-14
-212
-306
173
476
-30
-112
293
122
-166
28
193
-233
-396
-68
-125
-393
-290
-231
-447
-392
-300
-319
-461
-535
-314
-360
-556
-377
-301
-860
-1006
-876
-680
557
2145
3431
4667
5150
4358
2683
946
-110
-683
-631
-169
-37
-136
-256
-273
-268
-354
-369
-379
-330
-175
-170
-368
-308
-144
-186
-62
-58
-60
-44
-99
-155
-194
-76
-182
126
347
90
338
386
441
653
476
552
715
712
907
878
858
1091
961
765
728
622
642
664
476
406
189
-26
-16
-97
-268
-305
-96
-237
-505
-420
-362
-343
-378
-489
-369
-369
-462
-467
-546
-177
-125
-481
-187
-32
-229
-304
-386
-338
-358
-382
-269
-238
-230
-246
-400
-555
-330
-24
-191
-317
-257
-245
-174
-238
-283
-250
-141
-163
-226
-110
-105
-182
-74
-166
-207
205
77
-312
-16
248
-113
-197
-124
-338
-247
-253
-414
-311
-421
-637
-374
-270
-404
-577
-587
-374
-424
-301
-343
-775
-1141
-1151
-793
-24
1228
2531
3954
5020
4506
3065
1649
272
-532
-669
-399
-257
-277
-370
-586
-463
-289
-232
-397
-399
-204
-350
-182
9
-85
-193
-416
-240
-164
-164
-66
-326
-249
-11
-134
-233
145
261
132
327
427
440
314
524
770
408
658
975
651
630
712
876
1011
776
592
446
365
323
185
50
-14
-7
-152
-353
-543
-471
-177
-237
-467
-461
-258
-245
-410
-538
-551
-427
-320
-248
-349
-593
-296
-239
-489
-160
-188
-360
-334
-296
-439
-577
-51
-134
-349
-38
-181
-313
-495
-481
-245
-240
-143
-198
-312
-119
-300
-374
48
-44
-155
24
-2
-70
1
-8
-117
-180
2
146
-338
-521
-316
-402
-309
-354
-476
-319
-190
-489
-677
-468
-451
-579
-486
-191
-287
-580
-1062
-1598
-1134
-312
563
2035
3472
4601
4795
3769
2171
765
14
-399
-650
-344
-148
-680
-403
-167
-629
-421
-202
-301
-339
-272
-322
-433
-187
-277
-546
-196
-160
-263
-60
-303
-341
39
148
-2
16
136
-92
36
151
46
513
596
532
746
654
785
967
930
1005
744
644
836
704
535
362
303
81
-29
181
-109
-192
-199
-334
-92
-467
-569
-112
-374
-542
-255
-261
-735
-604
-236
-546
-390
-47
-238
-571
-460
-302
-376
-290
-417
-489
-372
-268
-332
-476
-379
-251
-303
-522
-334
-123
-568
-609
-12
-80
-607
-366
-247
-501
-145
-41
-221
-216
-150
-33
-225
-220
-84
23
193
-68
-367
-145
194
-187
-488
-327
-506
-382
-120
-523
-648
-270
-346
-435
-457
-672
-574
-396
-322
-426
-600
-1048
-1373
-916
-587
-387
884
2822
4011
4715
4583
3426
1762
286
-194
-735
-678
-56
-96
-279
-457
-379
-368
-384
-130
-425
-486
-128
-266
-301
-298
-401
-390
-101
53
-390
-288
140
77
-29
-68
-47
121
140
-16
125
380
269
235
593
770
682
670
863
940
970
999
701
548
841
983
685
379
260
128
-43
22
23
-163
-236
-258
-220
-306
-375
-256
-325
-390
-446
-388
-452
-439
-163
-428
-408
-206
-356
-349
-514
-460
-148
-237
-369
-338
-343
-488
-617
-431
-214
-54
-5
-311
-413
-266
-306
-303
-374
-463
-350
-425
-501
-202
5
-177
-120
-82
-63
-129
-157
19
-23
-64
-67
-68
-37
-96
-38
77
-202
-296
-367
-377
-198
-332
-525
-648
-380
-213
-421
-581
-403
-230
-338
-326
-424
-673
-995
-1171
-1074
-629
398
1753
3281
4611
4816
4098
2649
874
-27
-483
-572
-291
-338
-231
-216
-308
-250
-356
-457
-441
-291
-168
-308
-480
-317
-24
-98
-189
-9
-34
-235
-254
-138
-29
18
-191
48
198
-45
207
278
410
668
456
463
716
761
711
798
964
925
934
919
781
710
590
645
561
270
77
-180
-171
-25
-142
-262
-445
-460
-92
-350
-518
-238
-359
-369
-349
-306
-312
-502
-308
-160
-407
-346
-303
-453
-439
-563
-466
-233
-207
-236
-370
-422
-297
-74
-142
-310
-282
-275
-281
-296
-320
-399
-418
-396
-375
-196
-50
-194
-463
-103
30
-243
-85
-220
-59
98
-314
-89
225
21
25
120
-165
-230
-161
-326
-493
-495
-288
-321
-307
-524
-721
-306
-440
-600
-423
-320
-157
-424
-815
-923
-1089
-1195
-590
381
1783
3577
4866
5198
4073
2343
900
17
-390
-651
-383
-247
-398
-433
-455
-263
-120
-364
-407
-128
-171
-409
-359
-322
-379
-230
-208
-214
-38
-105
-209
-53
-49
-155
-58
151
208
230
211
216
347
477
401
279
713
865
692
943
1045
926
712
780
994
800
644
515
241
190
155
-7
-148
-127
-153
-315
-256
-301
-388
-509
-511
-148
-387
-822
-340
-142
-457
-323
-352
-622
-400
-265
-501
-378
-138
-230
-418
-454
-272
-169
-286
-304
-333
-358
-242
-269
-502
-410
-144
-221
-352
-284
-202
-315
-400
-295
-279
-280
-264
-267
-178
-157
-74
-197
-461
-117
211
-66
-99
117
-42
27
17
-163
26
-235
-495
-211
-208
-361
-350
-456
-445
-470
-552
-446
-663
-683
-228
-425
-658
-401
-557
-896
-1071
-876
-268
962
2593
3908
4992
4813
3475
1842
325
-536
-771
-507
-362
-370
-357
-234
-287
-370
-429
-360
-335
-374
-223
-427
-335
-200
-451
-262
-25
-157
-210
-96
-211
-306
-52
31
55
131
0
90
391
334
240
322
554
789
768
739
788
861
1040
1016
718
785
883
578
379
291
300
288
89
-1
-37
-91
-92
-211
-336
-360
-435
-414
-448
-639
-384
-175
-408
-360
-356
-482
-424
-461
-315
-228
-440
-337
-171
-305
-398
-301
-266
-427
-433
-189
-154
-231
-208
-184
-332
-621
-332
-110
-330
-376
-454
-329
-192
-302
-270
-131
-136
-192
-79
-101
-108
0
11
-8
-316
-367
10
97
52
42
-187
-323
-179
-189
-325
-407
-363
-396
-584
-725
-812
-343
-45
-449
-610
-391
-237
-473
-869
-1061
-1095
-782
-193
965
2648
4013
4800
4627
3423
1624
335
-159
-543
-448
-162
-366
-735
-638
-329
-462
-377
-104
-271
-332
-161
-338
-378
-102
-108
-235
-189
-228
-411
-285
-103
-126
-147
-3
112
57
96
220
279
235
363
457
465
708
808
579
565
954
982
946
1076
902
746
687
767
574
202
159
10
-167
-27
-74
-229
-353
-506
-283
-372
-552
-157
-145
-305
-264
-396
-429
-314
-227
-338
-597
-377
-184
-544
-605
-244
45
-223
-418
-217
-353
-325
-177
-438
-416
-240
-337
-340
-458
-460
-164
-206
-300
-224
-290
-331
-259
-214
-377
-368
-130
-1
-294
-505
-16
201
80
11
-39
-20
-22
24
-26
-176
-323
-493
-457
-322
-268
-396
-421
-236
-403
-537
-402
-554
-608
-338
-253
-286
-400
-599
-1212
-1535
-890
-232
856
2254
3486
4824
4917
3867
2363
443
-426
-337
-385
-347
-296
-213
-220
-480
-301
-162
-375
-538
-538
-225
-105
-170
-97
-210
-291
-307
-182
-175
-278
-159
-139
43
126
77
55
-5
3
180
384
235
142
486
759
776
794
767
958
1083
934
837
941
969
588
539
722
345
236
313
-178
-78
46
-355
-178
-175
-278
-225
-305
-250
-349
-331
-224
-264
-458
-566
-382
-230
-298
-415
-176
-272
-403
-229
-521
-492
-129
-342
-522
-184
-47
-241
-297
-330
-373
-303
-446
-401
-65
-122
-481
-609
-304
-52
-95
-84
-231
-216
-107
-527
-242
262
-204
-307
172
193
29
150
-1
-189
134
331
220
2
-246
-253
-123
-331
-729
-545
-157
-189
-364
-295
-314
-330
-295
-468
-293
-210
-528
-538
-664
-1262
-1140
-419
406
1845
3694
4854
4954
4180
2398
1064
224
-588
-452
-167
-104
-245
-316
-315
-438
-270
-226
-359
-379
-237
-207
-152
-92
-232
-302
-80
-263
-288
-5
-206
29
34
-284
61
255
173
201
150
270
506
518
379
514
570
818
1022
788
912
808
839
1264
1180
846
536
470
621
478
116
-139
-160
-63
88
-113
-296
-113
-211
-390
-363
-494
-452
-222
-341
-313
-252
-485
-311
-121
-338
-307
-296
-351
-223
-284
-422
-411
-464
-362
-159
-96
-150
-331
-397
-230
-78
-237
-383
-253
-282
-225
-152
-290
-214
-475
-499
-301
-503
-109
107
-100
-132
-112
74
-102
-210
-16
-14
45
61
-67
1
-23
-44
176
-33
-267
-296
-323
-213
-438
-543
-431
-365
-325
-301
-428
-617
-338
-306
-378
-386
-520
-635
-929
-1291
-1201
-57
1333
2640
4331
5266
4608
3440
1850
403
-176
-701
-554
-152
-159
-309
-443
-191
-236
-319
-290
-383
-284
-406
-374
-11
-56
-172
-278
-388
-170
-37
-36
37
79
-8
-22
-126
0
319
250
203
286
433
422
442
747
722
840
1107
1005
778
768
951
917
898
918
685
383
358
189
-41
214
137
-228
-114
-196
-484
-278
-259
-241
-209
-481
-347
-288
-412
-224
-306
-473
-289
-257
-357
-520
-533
-204
-170
-219
-283
-550
-123
-83
-561
-273
-187
-441
-520
-290
-137
-431
-495
-121
-109
-313
-325
-317
-143
-389
-539
-232
-176
-115
-31
-178
-197
-181
-256
-600
-465
260
173
125
100
-89
83
35
-92
-188
-270
-276
-377
-550
-619
-591
-466
-267
-301
-389
-333
-369
-480
-445
-301
-339
-499
-935
-1314
-1221
-677
660
2350
3861
5009
5093
3847
2230
698
-172
-388
-583
-565
-392
-339
-490
-376
-260
-559
-525
-154
-321
-293
-174
-374
-151
-124
-281
-143
-208
-102
165
-132
-314
-26
-63
-150
-7
133
402
351
172
346
548
521
419
668
883
759
770
904
893
1049
915
559
874
786
494
496
370
166
-145
-191
-70
-131
-169
-442
-497
-224
-384
-392
-343
-329
-208
-397
-584
-296
-155
-685
-531
-99
-380
-377
-307
-434
-395
-198
-213
-527
-337
25
-246
-394
-271
-343
-346
-296
-206
-415
-423
-37
-301
-417
-249
-368
-281
-188
-361
-430
-19
106
-279
-240
-130
-131
-14
-26
-76
-81
66
148
-102
-197
-221
-292
-371
-591
-616
-294
-253
-358
-218
-317
-558
-586
-472
-458
-641
-600
-320
-379
-764
-1223
-1213
-927
-456
704
2157
3547
4618
4871
3944
2274
767
-271
-732
-625
-336
-141
-246
-271
-175
-474
-378
-179
-477
-303
-164
-346
-285
-234
-219
-207
-354
-204
-118
-255
-206
-92
-2
26
39
-23
132
308
221
337
453
229
477
660
666
847
638
731
1129
1203
999
958
933
437
605
849
349
309
228
-173
-156
-166
-121
-26
-455
-462
-110
-149
-168
-479
-744
-261
-144
-242
-194
-331
-453
-360
-329
-476
-212
-109
-390
-376
-294
-312
-80
-181
-521
-323
-314
-314
-174
-312
-240
-318
-387
-258
-267
-164
-104
-199
-199
-239
-221
-69
-362
-361
60
-190
-177
-16
-95
3
61
228
4
-73
205
-36
-359
-199
-202
-371
-380
-352
-346
-526
-440
-323
-419
-501
-614
-356
-138
-473
-490
-236
-717
-1270
-1055
-699
-54
1586
3287
4330
4815
4293
2848
1354
239
-543
-522
-111
-155
-354
-345
-337
-237
-100
-267
-358
-396
-371
-96
-137
-305
-319
-223
-113
-143
-67
68
68
-257
-280
9
-101
-177
226
495
124
16
445
680
556
442
582
962
947
781
980
941
890
811
706
867
784
585
536
378
308
-44
-128
83
-118
-243
-348
-393
-235
-110
-317
-282
-123
-364
-438
-290
-358
-348
-226
-210
-248
-534
-461
-143
-250
-193
-123
-371
-560
-245
103
-85
-267
-241
-232
-280
-197
-181
-246
-416
-576
-279
-151
-393
-327
-78
-115
-247
-166
79
-144
-268
81
-48
47
212
67
84
-72
-196
-143
-21
191
-16
-453
-367
-139
-173
-464
-354
-178
-502
-347
-425
-800
-378
-260
-516
-425
-499
-583
-779
-964
-1008
-792
317
1677
2973
4380
4991
4281
2901
1410
203
-388
-657
-408
46
-216
-503
-255
-394
-433
-171
-246
-168
-305
-260
-51
-293
-353
-179
-216
-511
-445
46
-41
-427
-72
215
69
134
158
141
123
160
323
527
336
210
649
838
799
732
867
972
937
1036
829
554
675
629
314
381
358
-49
-91
52
-155
-285
-269
-203
-154
-361
-283
-146
-469
-453
-334
-557
-440
-207
-163
-232
-377
-294
-377
-676
-500
-409
-369
-309
-386
-241
-206
-230
-225
-376
-482
-264
-178
-279
-281
-431
-410
-404
-451
-230
-358
-383
-292
-272
-147
-262
-295
-259
-140
-23
-284
-352
-91
36
79
-59
-199
-117
-130
-183
-83
-290
-604
-432
-348
-540
-343
-195
-387
-547
-457
-460
-662
-488
-275
-561
-839
-729
-1005
-1279
-895
-445
414
1882
3266
4464
5047
4362
2660
972
79
-340
-728
-754
-401
-270
-210
-473
-755
-274
-177
-369
-364
-283
-168
-387
-304
-382
-459
-52
-143
-139
-171
-217
-50
-160
-104
-91
5
336
173
-142
235
424
374
495
336
398
715
881
853
881
898
772
782
918
859
603
529
339
212
231
9
-230
-159
-12
-338
-481
-263
-144
-354
-540
-351
-249
-223
-330
-387
-350
-492
-451
-286
-411
-431
-254
-344
-488
-348
-157
-137
-233
-330
-278
-208
-283
-232
-193
-342
-408
-281
-342
-195
-90
-380
-295
-151
-207
-169
-341
-656
-235
38
-168
-73
-246
-227
-34
-69
182
247
-125
-118
179
96
-53
-158
-272
-451
-243
-177
-524
-545
-623
-345
-112
-355
-422
-282
-427
-655
-396
-498
-447
-307
-1030
-1319
-991
-626
487
2147
3439
4448
5022
4249
2634
1115
-113
-747
-675
-402
-330
-305
-353
-326
-376
-326
-205
-462
-429
-171
-137
-260
-299
-108
-480
-478
13
-208
-169
-11
-50
-117
-164
64
59
-48
94
239
321
451
457
252
221
680
985
753
835
1034
835
814
930
764
586
630
565
488
209
-317
-118
194
-7
-107
-93
-312
-376
-144
-330
-570
-404
-423
-549
-564
-451
-200
-349
-391
-207
-292
-409
-368
-284
-377
-377
-495
-680
-264
53
-334
-330
-179
-406
-347
-145
-153
-345
-444
-350
-141
-507
-598
-107
-194
-232
-290
-535
-222
-47
-398
-276
2
-12
-152
-150
56
62
-33
-5
36
-153
-403
-375
-198
-365
-697
-541
-274
-268
-561
-551
-233
-566
-574
-227
-498
-795
-618
-435
-959
-1246
-878
-648
163
1794
3240
4314
4893
4086
2472
1170
128
-746
-690
-143
-459
-392
-72
-285
-481
-491
-232
-283
-365
-429
-291
-344
-619
-99
52
-281
-230
-271
-550
-354
34
39
14
-5
54
-44
-10
265
255
306
421
556
682
565
645
882
762
564
777
1035
1013
879
730
482
386
444
373
253
-6
-112
-211
-420
-280
-182
-374
-301
-223
-369
-333
-515
-569
-137
-130
-461
-345
-196
-329
-419
-409
-302
-341
-456
-401
-277
-283
-461
-399
-162
-416
-462
-99
-137
-278
-249
-427
-449
-236
-346
-432
-209
-187
-343
-106
-26
-226
-255
-174
-58
-181
-124
-154
-130
94
-54
-57
24
12
-134
-286
-550
-434
-80
-345
-420
-372
-391
-623
-655
-301
-390
-427
-425
-567
-516
-388
-573
-1233
-1266
-801
-485
723
2149
3469
4843
4907
3644
2061
762
10
-482
-634
-244
-124
-209
-319
-643
-549
-248
-308
-419
-209
-315
-333
-79
-260
-218
-105
-427
-337
-57
-79
-25
-167
-205
7
-30
48
175
241
287
159
271
441
452
684
886
713
663
686
619
964
1129
832
858
789
395
347
524
370
182
44
-188
-391
-402
-244
-370
-329
-142
-368
-329
-211
-316
-312
-496
-394
-261
-241
-243
-382
-358
-507
-384
-316
-382
-149
-251
-453
-345
-237
-315
-247
-136
-334
-432
-140
-89
-362
-400
-316
-419
-378
-165
-196
-300
-396
-168
-123
-444
-168
114
5
-41
-168
-53
185
23
-33
41
-7
-169
-272
-178
-214
-286
-447
-491
-300
-445
-540
-317
-345
-635
-452
-284
-428
-482
-476
-494
-838
-1084
-1055
-900
-203
1502
3359
4587
4956
4231
2872
1437
227
-706
-547
-209
-372
-228
-340
-547
-440
-261
-253
-319
-352
-353
-356
-374
-330
-366
-185
-21
-198
-200
-281
-448
-155
68
-8
5
-45
-50
-28
-83
290
574
547
413
468
551
780
984
694
932
939
761
1029
899
451
482
756
369
62
268
258
-200
-248
-155
-558
-325
-42
-413
-555
-384
-344
-285
-111
-341
-430
-226
-457
-687
-621
-286
-46
-221
-424
-394
-360
-430
-265
-244
-361
-359
-444
-478
-112
-58
-389
-287
-214
-326
-413
-326
-189
-307
-280
-236
-365
-284
-238
-191
-106
-394
-489
-211
-221
-40
165
-18
71
148
-40
-93
14
-65
-284
-306
-188
-255
-452
-483
-436
-431
-524
-590
-368
-182
-524
-605
-425
-410
-361
-486
-729
-1089
-1270
-948
-114
1181
2783
4001
4787
4792
3296
1679
474
-277
-437
-596
-486
-198
-364
-591
-359
-260
-368
-515
-322
-206
-554
-221
25
-237
-275
-206
-133
-229
-255
-257
-295
-176
-110
54
87
26
102
84
148
163
342
460
440
767
770
735
850
802
933
953
616
707
1007
824
468
344
319
294
77
-115
-140
-413
-130
108
-171
-425
-554
-305
-362
-630
-299
-142
-501
-454
-435
-431
-199
-478
-447
-212
-340
-354
-423
-320
-216
-430
-354
-303
-294
-282
-373
-226
-136
-255
-367
-359
-311
-267
-514
-398
-59
-425
-783
-223
137
-194
-78
35
-108
-253
-372
-127
28
-119
-136
17
62
-103
-48
4
5
-28
-180
-406
-497
-361
-352
-310
-423
-398
-546
-615
-316
-435
-390
-316
-407
-288
-456
-878
-1120
-1102
-604
463
1930
3432
4512
4777
4003
2515
923
-159
-536
-756
-577
-96
-166
-340
-292
-318
-437
-457
-285
-344
-400
-305
-341
-181
-67
-182
-198
-431
-550
-12
94
-264
-89
57
21
30
-67
-36
221
403
174
246
623
609
577
584
647
996
1078
791
761
913
875
712
662
594
190
162
266
-35
-114
-252
-341
-127
-97
-411
-534
-200
-342
-378
-207
-510
-462
-518
-647
-312
-155
-284
-535
-366
-175
-525
-516
-314
-523
-484
-170
-261
-172
-76
-373
-365
-205
-283
-349
-278
-380
-415
-267
-419
-509
-398
-352
-325
-193
-4
77
-77
-301
-151
-120
-245
-86
-24
64
29
-67
-87
-138
77
97
-199
-270
-364
-706
-656
-329
-256
-556
-685
-283
-234
-510
-564
-465
-271
-244
-563
-908
-1248
-1330
-788
-141
852
2715
4256
4690
4522
3388
1562
261
-283
-481
-350
-182
-562
-690
-253
-277
-410
-319
-362
-341
-286
-311
-451
-490
-372
-388
-357
-114
-238
-382
-47
-22
-310
-272
-114
154
46
-135
222
57
53
364
326
518
651
760
748
483
820
1013
846
946
851
662
519
472
537
322
64
4
-116
-193
-285
-351
-266
-217
-242
-482
-511
-144
-388
-633
-369
-344
-327
-366
-312
-359
-589
-512
-491
-398
-174
-234
-341
-391
-415
-333
-435
-558
-354
-345
-483
-331
-114
-438
-595
-246
-488
-557
-143
-131
-437
-429
-131
-36
-178
-332
-268
-256
-326
-312
-254
-6
79
39
-21
-134
32
63
-314
-507
-242
-290
-472
-603
-697
-437
-344
-311
-401
-580
-437
-613
-942
-620
-431
-756
-996
-941
-1037
-1097
-370
1075
2649
3969
4909
4723
3263
1557
433
-425
-856
-520
-129
-172
-301
-524
-668
-409
-238
-441
-464
-213
-219
-209
-391
-501
-195
-246
-381
-303
-176
-155
-242
-107
-176
-471
-211
202
157
141
196
204
268
440
624
568
656
719
680
780
609
767
1013
951
648
350
640
490
78
153
96
88
-18
-282
-204
-473
-621
-328
-492
-546
-299
-458
-396
-216
-526
-587
-409
-461
-444
-377
-426
-306
-338
-591
-492
-503
-508
-196
-190
-316
-348
-426
-358
-242
-405
-443
-312
-178
-349
-621
-450
-286
-265
-212
-235
-291
-246
-260
-274
-241
-394
-496
-45
298
85
-196
-69
150
-144
-59
137
25
-259
-443
-139
-463
-654
-424
-318
-365
-717
-397
-227
-389
-330
-334
-325
-501
-405
-484
-827
-1086
-1270
-833
-222
955
2949
4673
5305
4642
3382
1525
27
-181
-413
-574
-189
-182
-435
-213
-164
-417
-511
-514
-268
-142
-392
-424
-255
-366
-220
-104
-132
-5
-228
-112
19
-219
20
92
-113
100
237
192
286
366
345
343
496
638
752
877
814
783
821
971
1050
929
987
813
541
508
351
136
95
-29
-287
-165
-74
-266
-310
-405
-360
-122
-187
-546
-535
-224
-310
-410
-345
-444
-440
-427
-355
-216
-339
-370
-512
-365
-138
-246
-138
-315
-264
-112
-435
-210
-154
-546
-290
-329
-485
-262
-220
-172
-338
-335
-60
-66
-210
-248
-179
-296
-247
-127
-250
-13
224
-59
-142
274
153
-240
-173
-173
-133
-169
-384
-298
-263
-447
-457
-515
-474
-386
-602
-440
-332
-512
-621
-403
-268
-716
-1023
-1130
-854
-13
1357
2850
3993
4796
4592
3463
1746
191
-308
-567
-743
-455
-175
-205
-323
-299
-299
-324
-488
-375
-157
-545
-452
49
-74
-87
-129
-574
-491
-181
-2
92
-15
41
117
97
172
-77
-262
270
256
171
872
773
498
849
888
762
946
942
764
798
633
578
599
620
758
481
148
6
-156
-132
-44
-154
-359
-304
-207
-360
-562
-598
-318
-437
-635
-302
-415
-551
-362
-310
-385
-639
-441
-63
-245
-520
-555
-382
-144
-256
-422
-370
-337
-233
-177
-303
-434
-428
-270
-139
-371
-376
-457
-687
-134
54
-202
-104
-46
-195
-279
-153
-174
-171
21
35
-118
-128
27
-47
-58
-210
-504
-345
-288
-336
-452
-451
-158
-302
-467
-357
-538
-571
-504
-504
-296
-358
-560
-838
-1427
-1386
-807
6
1526
2979
4227
4980
4459
2879
1172
455
-168
-768
-386
-187
-428
-422
-323
-266
-270
-312
-652
-509
3
-216
-426
-201
-160
-304
-177
-191
-215
-184
-270
-144
-31
-145
-246
23
68
-7
179
258
324
382
410
313
591
988
825
837
814
640
822
964
928
735
632
499
341
226
-150
-6
185
-38
-29
-154
-491
-555
-367
-350
-309
-366
-382
-289
-447
-500
-592
-581
-324
-250
-323
-296
-439
-563
-493
-439
-324
-346
-324
-369
-541
-486
-289
-315
-408
-331
-352
-430
-315
-292
-483
-456
-269
-314
-464
-211
-112
-253
-233
-215
-45
-225
-361
-29
43
-9
-71
-203
-78
-29
-225
-343
-340
-403
-439
-299
-323
-584
-592
-368
-430
-445
-363
-401
-696
-662
-269
-526
-799
-836
-1056
-1041
-632
-100
1148
2937
4295
4758
4179
3110
1543
284
-346
-653
-383
-232
-276
-294
-344
-360
-483
-385
-395
-510
-294
-445
-512
-233
-16
-73
-311
-340
-234
-203
-207
-102
-174
-136
17
-108
-145
-73
-6
351
373
230
442
418
503
778
879
749
749
943
900
977
791
576
798
501
-13
254
391
19
-6
-191
-399
-313
-424
-296
-261
-339
-216
-435
-438
-498
-550
-321
-454
-585
-497
-419
-393
-516
-450
-180
-346
-329
-339
-570
-356
-246
-252
-206
-514
-562
-273
-469
-527
-315
-247
-438
-698
-330
-92
-239
-306
-345
-273
-188
-99
-292
-315
-121
-212
-198
-67
-158
-214
52
-49
-197
-25
-191
-455
-436
-91
-72
-404
-375
-397
-525
-441
-412
-489
-559
-520
-614
-632
-444
-540
-594
-675
-1082
-1181
-896
-390
1053
2746
3840
4850
4833
3282
1435
92
-491
-386
-87
-114
-295
-195
-429
-569
-220
-450
-507
-302
-380
-309
-312
-305
-423
-510
-143
125
-150
-430
-145
40
-163
-119
3
-64
69
106
12
310
234
99
417
515
496
758
1027
922
724
790
993
951
774
763
733
531
339
210
374
169
-288
-4
-98
-639
-384
39
-24
-290
-288
-361
-621
-490
-274
-312
-480
-525
-287
-162
-285
-362
-394
-325
-209
-334
-582
-362
-150
-142
-158
-310
-405
-356
-241
-311
-457
-344
-148
-202
-150
-289
-465
-231
-56
-259
-474
-115
73
-209
-120
-158
-466
-133
171
106
144
25
-195
-149
60
32
-19
-86
-299
-186
-252
-487
-479
-521
-399
-177
-252
-399
-388
-344
-396
-588
-461
-346
-552
-767
-1161
-1115
-717
98
1794
3205
4530
5371
4432
2913
1314
88
-382
-433
-410
-516
-207
-152
-253
-305
-512
-208
-78
-455
-374
-243
-201
-199
-262
-77
-312
-512
-134
27
-115
-33
-162
-158
121
-222
17
454
282
248
200
437
575
492
605
733
774
706
760
1112
1077
780
886
890
673
418
186
245
317
-103
-189
105
-146
-331
-278
-177
-118
-164
-165
-415
-597
-300
-323
-534
-364
-403
-490
-410
-251
-144
-363
-570
-357
-159
-395
-193
29
-308
-358
-348
-436
-199
-205
-373
-205
-139
-294
-335
-228
-313
-343
-273
-307
-366
-315
-178
-265
-166
11
-227
-132
-9
9
120
-122
-188
-72
97
114
11
-94
-396
-216
-284
-647
-142
-62
-417
-368
-335
-258
-285
-555
-693
-371
-224
-397
-285
-407
-945
-1118
-952
-579
419
1896
3411
4777
5163
4271
2808
1153
79
-461
-703
-559
-421
-113
-178
-469
-255
-267
-507
-329
35
-271
-643
-410
-50
44
-200
-197
-42
-362
-488
-57
112
92
-101
-121
210
235
255
365
229
271
538
545
521
828
809
553
889
1094
872
935
960
792
894
719
249
333
465
279
48
-217
60
66
-324
-216
-122
-208
-300
-322
-246
-217
-373
-453
-418
-269
-371
-353
-42
-216
-621
-408
-10
-232
-120
18
-263
-244
-175
-308
-93
62
-233
-224
-186
-248
-202
-337
-279
-225
-384
-233
-235
-339
-47
0
-73
-43
-141
-190
-156
-210
-78
357
365
0
-66
-26
-81
127
135
-103
-270
-370
-262
-298
-474
-352
-238
-448
-503
-284
-263
-457
-380
-312
-354
-326
-699
-1193
-1089
-721
90
1402
2924
4479
5080
4284
2952
1576
416
-194
-478
-476
-298
-271
-178
-222
-552
-191
-130
-531
-308
-238
-515
-244
-39
-386
-171
-75
-296
-89
-85
-218
-39
27
-245
-336
18
225
70
71
243
268
371
562
597
631
825
671
584
978
760
642
1058
1066
785
576
627
407
-116
-16
430
161
-190
-74
-152
-196
-284
-435
-528
-537
-159
-233
-497
-373
-341
-208
-225
-412
-337
-182
-252
-377
-467
-498
-327
-345
-233
-33
-505
-583
-245
-260
-105
-51
-328
-408
-174
-264
-329
-235
-400
-355
-272
-365
-142
79
-89
-536
-362
117
-58
-161
-12
52
48
89
-66
-137
-217
-106
138
-145
-98
-264
-827
-400
-136
-388
-238
-248
-461
-448
-286
-446
-431
-248
-386
-391
-512
-830
-1303
-1273
-416
626
2029
3402
4462
4799
4124
2649
970
60
-440
-404
-170
-283
-250
-352
-307
-293
-417
-319
-346
-153
-392
-681
-172
-3
-213
-177
-30
-37
-150
-221
-130
-62
-169
-138
30
43
-117
24
259
382
398
290
519
656
513
748
871
834
1090
1093
837
685
807
821
599
460
374
294
147
-10
-62
-37
-150
-236
-137
-259
-262
-165
-346
-329
-345
-536
-541
-498
-280
-2
-354
-682
-390
-363
-296
-53
-258
-494
-282
-187
-410
-200
-152
-587
-391
-148
-249
-162
-215
-227
-257
-539
-353
-139
-325
-365
-365
-195
-6
-30
-105
-247
-246
-101
-159
-179
-54
-7
83
9
-207
-70
45
-95
-140
-274
-246
-147
-295
-332
-207
-375
-643
-554
-441
-509
-641
-482
-532
-564
-152
-412
-989
-1107
-1038
-387
542
1743
3551
4541
4707
4050
2248
826
13
-570
-368
-51
-144
-349
-494
-527
-480
-399
-488
-341
-80
-158
-181
-293
-425
-208
-215
-233
-67
-129
-268
-173
-261
-168
91
-248
-179
239
200
-74
1
391
576
618
439
504
833
958
821
751
911
771
662
862
760
560
448
289
237
57
-29
-73
-56
-10
-290
-205
-183
-623
-451
-61
-146
-280
-282
-498
-708
-378
-119
-259
-325
-358
-522
-426
-205
-229
-330
-369
-320
-421
-446
-232
-221
-433
-451
-318
-397
-251
-134
-327
-350
-294
-467
-483
-173
-278
-301
-90
-269
-399
-155
-7
-141
-244
-233
-41
107
7
-24
-246
-123
160
-206
-316
-278
-210
-52
-547
-643
-211
-262
-395
-378
-346
-377
-371
-788
-926
-341
-258
-594
-806
-1047
-1083
-827
-402
741
2202
3682
4862
4817
3760
2026
484
-244
-496
-537
-699
-454
-35
-297
-463
-432
-435
-283
-313
-331
-315
-341
-333
-323
-240
-128
-157
-255
-385
-295
-140
-96
31
-225
-182
188
158
133
164
229
357
203
374
793
660
699
889
791
853
1017
978
601
558
923
807
535
252
141
20
-171
-66
-366
-368
-107
-307
-489
-583
-518
-458
-226
-89
-311
-396
-395
-270
-410
-507
-285
-417
-416
-267
-466
-571
-287
-225
-491
-381
-182
-336
-414
-277
-377
-369
-252
-255
-373
-553
-438
-319
-284
-328
-223
-124
-281
-293
-251
-201
-141
-18
18
-287
-345
-91
-162
-249
-103
-120
21
78
-38
51
-46
-412
-599
-308
-287
-453
-373
-685
-804
-452
-333
-358
-328
-432
-537
-375
-473
-895
-1198
-1194
-760
-25
1401
3210
4525
5191
4645
3063
1320
185
-330
-682
-602
-303
-604
-673
-167
-288
-357
-291
-358
-245
-266
-339
-380
-224
-172
-244
-220
-345
-361
-56
14
-102
-77
-109
-93
50
-43
-122
131
294
423
518
342
551
703
601
693
772
938
706
755
1005
819
800
785
682
326
124
263
43
-158
-88
-232
-309
-278
-345
-381
-410
-351
-296
-264
-386
-473
-566
-512
-276
-356
-402
-341
-283
-243
-212
-338
-344
-145
-390
-390
-97
-322
-398
-234
-194
-281
-348
-284
-386
-360
-234
-269
-234
-186
-296
-343
-296
-295
-282
-95
-122
-208
-150
-127
-38
-432
-287
375
283
-67
-120
75
16
-62
-98
-277
-285
-271
-376
-431
-496
-368
-249
-407
-289
-326
-798
-478
-189
-607
-470
-390
-994
-1290
-993
-550
508
2023
3280
4666
5216
4119
2590
995
-307
-464
-613
-584
-263
-362
-284
-330
-417
-410
-189
-296
-631
-325
-84
-209
-311
-373
-283
-80
-256
-444
-229
-80
-92
-290
-190
242
154
23
68
285
370
278
357
384
570
662
731
720
622
971
990
746
734
646
811
754
451
381
362
175
-131
-122
-191
-237
-157
-208
-253
-374
-457
-371
-281
-263
-530
-685
-272
-187
-350
-414
-402
-214
-328
-408
-308
-494
-394
-116
-240
-514
-565
-187
-31
-233
-387
-198
-180
-319
-345
-534
-317
-217
-322
-282
-355
-280
-223
-156
-128
-287
-387
-210
-48
-126
-39
-136
-34
101
32
8
-124
8
-77
-412
-454
-214
-192
-600
-371
-162
-626
-377
-271
-664
-431
-251
-485
-704
-515
-269
-618
-1081
-1300
-1027
-216
781
2207
3927
4918
4734
3479
1956
681
-319
-557
-341
-155
-183
-333
-312
-571
-474
-54
-246
-416
-321
-679
-572
86
-208
-396
-88
-127
-192
-209
-31
-38
-391
-65
101
-113
113
-130
-88
340
201
245
546
665
693
659
649
865
876
662
745
836
938
1019
679
459
489
244
202
178
-288
-5
247
-186
-346
-226
-330
-414
-322
-456
-348
-269
-358
-376
-319
-332
-396
-136
-374
-587
-137
-322
-570
-310
-406
-402
-147
-66
-145
-266
-405
-513
-140
-90
-513
-391
-76
-386
-356
-136
-459
-230
-76
-251
-84
-123
-244
-60
-239
-410
-95
26
62
-94
-8
293
-78
-7
56
-326
-407
-483
-217
-114
-335
-513
-639
-517
-410
-433
-359
-232
-195
-408
-766
-451
-179
-684
-1194
-1202
-902
-302
959
2433
3837
4858
4828
3627
1797
391
-251
-380
-322
-237
-151
-348
-298
-362
-619
-257
-437
-445
-7
-198
-238
-161
-282
-221
-40
-262
-346
-77
-126
-332
-213
-95
-190
-45
174
80
3
223
390
404
378
487
498
548
756
779
876
834
737
782
646
773
812
396
345
521
137
-165
178
-212
-511
-22
-198
-299
-136
-543
-734
-413
-203
-281
-406
-434
-372
-274
-381
-532
-567
-364
-295
-380
-186
-626
-719
-170
-429
-414
-165
-332
-350
-442
-448
-303
-329
-555
-539
-186
-236
-469
-406
-426
-380
-386
-343
-86
-363
-544
-198
-137
-251
-63
-55
-41
65
-135
-94
-30
-169
-272
-345
-302
-410
-584
-524
-374
-372
-662
-509
-329
-545
-497
-607
-744
-556
-490
-411
-384
-972
-1467
-1214
-976
-361
1648
3425
4559
5034
4157
2799
865
-370
-314
-443
-498
-448
-443
-434
-519
-493
-412
-606
-697
-250
-191
-758
-651
-253
-391
-296
-387
-697
-295
-33
-360
-290
-185
-111
-88
-371
-38
84
-69
92
42
154
305
390
506
543
593
669
593
464
741
857
663
615
332
256
319
147
-174
-291
2
-138
-409
-287
-518
-678
-457
-639
-618
-398
-499
-754
-698
-513
-666
-550
-302
-479
-645
-518
-600
-605
-525
-602
-483
-539
-623
-470
-414
-455
-646
-566
-322
-478
-576
-497
-472
-618
-719
-384
-372
-686
-564
-438
-415
-342
-336
-436
-530
-402
-236
-165
-146
-267
-331
-325
-446
-358
-235
-346
-305
-388
-688
-658
-547
-639
-645
-504
-610
-858
-707
-512
-543
-466
-568
-687
-732
-1164
-1524
-1335
-1051
-290
1239
2817
4164
4826
4355
2843
1094
27
-622
-879
-655
-758
-712
-411
-412
-562
-632
-520
-508
-496
-471
-523
-490
-897
-944
-263
-143
-223
-234
-170
-240
-494
-363
-188
-193
-299
-393
-221
-9
102
214
235
285
488
451
438
645
513
580
831
487
337
518
511
479
308
141
-66
-12
36
-269
-252
-388
-656
-483
-325
-306
-495
-878
-736
-422
-611
-624
-616
-705
-539
-659
-680
-453
-463
-503
-469
-411
-674
-658
-530
-710
-406
-246
-467
-540
-390
-304
-544
-603
-335
-529
-617
-310
-502
-655
-529
-380
-376
-355
-213
-415
-407
-435
-481
-161
-137
-171
-94
-226
-436
-296
-225
-274
-340
-704
-651
-456
-298
-465
-751
-650
-707
-574
-618
-722
-519
-439
-587
-921
-818
-921
-1372
-1448
-1114
-116
1418
2866
3848
4580
4415
3049
1411
163
-578
-852
-745
-562
-384
-293
-451
-629
-542
-622
-724
-462
-244
-409
-592
-339
-216
-616
-549
-224
-436
-381
-182
-145
-200
-201
-123
-132
-82
-64
46
92
-56
225
312
191
547
706
755
854
712
634
762
537
614
911
535
81
90
132
87
89
-201
-239
-163
-330
-253
-325
-607
-521
-451
-489
-411
-455
-486
-378
-455
-520
-203
-253
-533
-393
-247
-414
-531
-217
-304
-589
-308
-241
-393
-323
-347
-300
-290
-411
-308
-265
-268
-342
-661
-276
-179
-751
-234
154
-162
-257
-263
-196
-158
-12
115
115
5
-25
59
-153
-43
75
-70
-182
-335
-456
-721
-471
-219
-361
-337
-419
-387
-242
-374
-558
-344
-483
-638
-389
-863
-1390
-1187
-732
73
1476
2996
4240
4936
4535
3127
1503
221
-549
-482
-206
-399
-394
-164
-248
-418
-426
-366
-147
-124
-291
-329
-448
-404
-239
-149
-122
-109
-126
-207
-283
-161
66
7
-44
100
147
95
227
287
277
339
465
624
615
672
707
842
968
958
917
765
952
1109
551
269
718
619
195
-44
33
46
-271
-313
-175
-174
-312
-162
-246
-408
-114
-178
-259
-179
-263
-345
-475
-339
-31
-42
-441
-404
-49
-120
-277
-221
67
-254
-423
-83
-296
-307
-40
-191
-257
-294
-261
-23
-111
-201
-34
-71
-138
-56
-175
-165
124
60
-154
63
204
135
241
120
-249
111
425
99
-63
-190
-240
-216
-383
-241
-119
-434
-471
-139
-104
-235
-345
-390
-390
-405
-228
-303
-785
-1209
-1008
-488
364
1967
3614
4699
4951
4078
2522
1316
296
-314
-329
-219
-137
-420
-382
-77
-291
-338
-88
-143
-326
-322
-83
-153
-235
-104
-56
-78
-204
-168
-68
16
81
28
-133
-112
140
191
203
275
444
360
365
637
702
828
775
746
908
918
851
915
972
983
704
430
648
672
513
79
-4
91
-107
91
-270
-308
14
-158
-151
-330
-383
-159
-257
-299
-273
-351
-153
-233
-369
-143
-262
-340
-137
-201
-329
-114
-62
-293
-255
-242
-165
-136
-175
-44
-152
-294
-207
-198
-116
-210
-455
-324
-43
23
-119
-74
-171
-261
-114
-65
39
-70
-79
204
94
37
113
39
213
38
-319
-266
-308
-470
-400
-293
-348
-344
-257
-404
-591
-460
-260
-179
-192
-310
-438
-977
-1416
-1013
-393
449
1932
3784
4836
4924
4359
2737
964
55
-628
-662
-148
-148
-318
-273
-33
-325
-571
-209
-85
-141
-223
-475
-275
55
-59
-178
-216
-245
-201
-296
-190
143
142
5
2
184
245
310
341
104
323
676
565
614
822
904
837
786
771
866
1043
930
809
778
650
347
127
188
316
252
5
-8
5
-322
-365
-40
-225
-524
-318
-387
-337
-161
-477
-308
-74
-265
-321
-280
-205
-329
-427
-142
-246
-346
-190
-483
-252
-33
-310
-150
-1
-179
-220
-127
-280
-434
-504
-363
-148
-187
-157
-190
-281
-48
-41
-330
-138
61
-159
-244
55
171
-29
44
98
35
77
15
-122
-273
-248
-476
-590
-448
-584
-312
-105
-297
-258
-215
-429
-489
-321
-394
-419
-426
-933
-1173
-1020
-768
363
1925
3115
4429
5144
4336
2804
1351
242
-451
-499
-480
-647
-276
-117
-317
-145
-176
-537
-522
-149
-115
-411
-379
10
-90
-399
-151
-36
-158
-48
2
49
93
-34
-74
100
285
226
214
277
236
566
663
440
588
741
859
861
750
808
1108
1019
729
844
793
741
540
319
324
185
-6
-168
-162
-181
-210
-143
-227
-234
-367
-484
-275
-271
-354
-272
-233
-320
-258
-153
-485
-460
-214
-271
-194
-229
-187
-88
-303
-354
-209
-229
-250
-302
-391
-277
-148
-323
-363
-334
-478
-299
-121
-172
-69
59
-200
-443
-136
104
-37
-204
-144
99
99
-18
-115
-89
8
-153
-350
-336
-378
-599
-434
-365
-475
-357
-516
-649
-383
-357
-623
-535
-415
-570
-749
-1216
-1463
-922
-201
856
2516
3930
4808
4683
3392
1738
511
-136
-741
-632
-224
-318
-390
-374
-327
-341
-503
-545
-444
-345
-152
-192
-272
-216
-365
-324
-117
-180
-275
-186
15
-20
-175
-38
-69
-39
131
43
218
469
289
228
388
531
766
927
937
825
844
798
754
891
804
683
603
191
-100
67
197
113
-10
-6
-176
-469
-277
-187
-330
-246
-255
-282
-300
-525
-714
-423
-370
-423
-146
-257
-479
-286
-227
-423
-141
-130
-376
-151
-138
-358
-373
-323
-347
-224
-168
-230
-238
-372
-413
-273
-294
-226
-38
-203
-510
-331
57
145
64
-119
-252
-117
125
-35
-190
6
139
255
-116
-385
-61
-104
-230
-361
-485
-312
-403
-626
-525
-358
-355
-430
-432
-360
-505
-581
-539
-929
-972
-697
-461
978
2898
4038
4773
4644
3330
1729
620
-193
-538
-377
-377
-198
-129
-363
-328
-557
-492
-55
-324
-431
-237
-236
-113
-71
-386
-347
-95
-62
15
-152
-226
-53
40
-46
-188
60
379
186
140
459
580
408
328
554
730
640
628
1000
1041
1021
1066
737
765
879
588
392
301
141
118
1
-133
-201
-305
-115
-138
-263
-258
-527
-435
-133
-296
-487
-303
-211
-438
-349
-58
-181
-381
-309
-238
-180
-337
-435
-141
-444
-416
-45
-177
-237
-418
-270
-73
-84
-166
-407
-324
-81
-35
-374
-440
2
13
-210
-215
-183
-67
-1
-47
84
341
207
-211
-59
193
239
47
-492
-356
-42
-201
-459
-477
-260
-478
-519
-213
-301
-451
-425
-301
-215
-517
-663
-585
-995
-1159
-851
-75
1358
2792
4140
4914
4481
3206
1534
39
-547
-406
-58
62
-331
-498
-264
-231
-371
-346
-379
-509
-240
-92
-139
-204
-414
-50
-51
-600
-304
78
-17
-106
-106
-192
-143
114
169
179
342
290
4
109
464
542
778
811
513
795
920
703
691
613
723
867
670
276
-3
126
119
-38
-2
-449
-736
-133
-151
-708
-513
-205
-396
-427
-514
-670
-450
-441
-501
-467
-523
-555
-615
-468
-331
-332
-527
-642
-385
-608
-661
-351
-453
-300
-429
-643
-591
-568
-189
-245
-546
-441
-583
-564
-176
-261
-335
-200
-276
-314
-428
-589
-415
-67
-186
-428
-69
75
-288
-448
-268
133
105
-384
-398
-242
-428
-518
-461
-431
-545
-719
-505
-414
-476
-665
-1210
-749
17
-236
-613
-1060
-1366
-982
-485
563
2414
3802
4801
4880
3657
2121
375
-431
-605
-707
-233
-179
-500
-460
-307
-325
-582
-639
-342
-169
-286
-363
-390
-470
-249
-260
-410
-244
-182
-268
-201
-17
39
69
106
11
45
84
44
280
288
321
671
647
567
666
809
784
638
814
854
826
861
730
603
443
398
229
196
205
-109
-112
-95
-304
-392
-373
-333
-270
-296
-304
-398
-561
-472
-357
-262
-194
-245
-341
-288
-257
-421
-669
-353
67
-256
-438
-321
-136
-115
-629
-478
52
-138
-235
-190
-413
-446
-348
-319
-232
-228
-227
-238
-232
-184
-399
-316
-125
-92
-160
-184
175
120
-63
-54
-52
-65
-60
-84
-222
-457
-578
-302
-261
-493
-551
-405
-365
-555
-481
-335
-320
-489
-638
-419
-632
-998
-965
-939
-964
16
1870
3176
4299
5133
4479
2959
1184
-112
-392
-601
-494
-320
-461
-365
-348
-538
-479
-178
-260
-412
-265
-342
-301
-222
-206
-99
-206
-257
-81
-120
-246
-146
-1
-10
-3
-150
-106
356
368
348
343
368
563
327
375
894
895
754
887
733
849
1021
927
834
605
462
285
255
273
192
-11
-163
-75
-235
-417
-217
-177
-264
-368
-532
-415
-272
-316
-435
-423
-261
-352
-384
-108
-331
-477
-159
-100
-246
-291
-189
-303
-540
-311
-203
-289
60
-76
-391
-234
-226
-263
-135
-238
-381
-402
-421
-71
15
-292
-168
-89
-250
-165
-12
62
-41
-9
-11
-67
139
-60
-273
41
223
-179
-471
-358
-289
-289
-454
-587
-527
-368
-350
-470
-422
-464
-415
-360
-437
-610
-1009
-1134
-912
-463
612
2099
3579
4668
4724
3926
2381
749
-65
-551
-675
-239
14
-376
-575
-276
-212
-375
-285
-252
-246
-228
-324
-104
-40
-208
-359
-300
-90
-209
-119
31
-101
-24
-72
-84
273
192
174
536
382
220
579
731
605
817
543
431
1095
1053
946
891
878
1012
548
450
516
331
460
397
122
18
-196
-350
-276
-237
-170
-293
-482
-335
-267
-299
-109
-77
-255
-191
-261
-386
-213
-265
-404
-310
-198
-344
-346
-114
-558
-545
50
-149
-290
-167
-128
-199
-326
-236
-209
-154
-100
-264
-467
-362
-133
-268
-398
-375
36
48
-414
-94
156
-51
59
229
-1
-26
-18
-123
138
78
-349
-544
-319
-100
-276
-277
-228
-333
-346
-480
-359
-326
-547
-397
-326
-473
-492
-604
-798
-1090
-1201
-661
420
2016
3406
4382
4733
4168
2847
1111
43
-574
-591
-151
-225
-142
-66
-332
-325
-390
-441
-174
-178
-351
-273
-366
-367
-228
-219
-113
-147
-113
-75
-40
-115
-219
66
92
-67
110
233
233
155
170
438
568
540
538
757
925
888
939
979
868
834
717
654
773
601
404
230
-204
-165
141
-68
-410
-439
-88
-248
-501
-131
-192
-441
-271
-316
-619
-540
-201
-145
-399
-507
-235
-256
-497
-373
-303
-428
-508
-475
-347
-422
-260
-126
-387
-364
-454
-439
-241
-427
-436
-276
-336
-329
-278
-240
-168
-291
-184
-151
-396
-203
-297
-492
-369
-224
-16
109
72
-109
-82
-16
40
-157
-386
-388
-299
-450
-966
-476
-101
-514
-337
-397
-607
-467
-533
-382
-385
-590
-620
-1084
-1355
-1354
-849
193
1257
2937
4420
4889
4379
2939
1238
131
-422
-506
-379
-510
-458
-260
-409
-494
-293
-493
-496
-216
-380
-366
-214
-326
-305
-259
-349
-202
-256
-227
-57
-273
-252
-60
87
42
-125
46
135
134
415
495
369
598
616
526
636
703
886
775
708
871
832
671
579
555
468
370
66
-149
-67
-129
-224
-268
-212
-375
-702
-603
-278
-158
-286
-255
-357
-551
-354
-408
-513
-230
-359
-596
-465
-369
-383
-375
-247
-121
-289
-520
-359
-239
-257
-272
-381
-246
-219
-348
-318
-360
-441
-335
-180
-339
-522
-399
-252
-240
-333
-171
9
-134
-497
-442
93
126
-59
41
60
-8
66
41
-130
-380
-325
-117
-328
-707
-619
-250
-273
-342
-383
-466
-353
-255
-534
-723
-560
-314
-594
-1268
-1280
-970
-389
911
2257
3641
4847
4884
4082
2247
552
-69
-610
-630
-359
-280
-282
-361
-517
-364
-289
-451
-162
-249
-477
-298
-237
-378
-517
-390
-234
-235
-310
-95
-7
-33
-15
-161
3
-62
26
234
67
206
422
448
274
339
784
801
814
764
541
833
944
757
621
715
645
333
224
135
164
78
-151
-230
-247
-278
-489
-435
-186
-322
-321
-391
-547
-315
-260
-429
-435
-404
-351
-350
-501
-529
-385
-398
-561
-434
-130
-221
-381
-303
-243
-359
-419
-225
-238
-525
-486
-364
-396
-245
-337
-423
-343
-318
-258
-331
-258
-204
-361
-413
-234
-78
-262
-228
112
-95
-424
-24
129
-27
152
26
-332
-479
-364
-410
-571
-410
-284
-288
-290
-500
-613
-544
-543
-419
-421
-451
-402
-555
-1018
-1522
-1161
-333
617
2190
3661
4670
4886
3875
2422
930
-109
-514
-750
-488
-221
-499
-531
-349
-294
-318
-479
-423
-309
-261
-420
-637
-274
74
-175
-426
-249
-68
-39
-140
-299
-248
-123
-35
128
154
93
121
210
174
258
547
513
587
765
829
997
861
652
872
867
593
675
778
501
133
305
242
-127
-92
-198
-100
26
-197
-377
-580
-691
-395
-206
-393
-487
-388
-253
-338
-380
-392
-354
-182
-306
-279
-351
-499
-329
-371
-310
-317
-473
-317
-201
-142
-203
-313
-317
-399
-324
-371
-595
-361
-172
-294
-339
-399
-491
-207
116
-201
-306
-204
-237
3
-57
-139
28
-148
-122
43
42
39
-279
-416
-418
-589
-512
-479
-448
-342
-507
-678
-439
-340
-489
-495
-406
-276
-457
-865
-1186
-1317
-931
-250
988
2680
3792
4709
4604
3270
1965
623
-249
-506
-676
-633
-204
-65
-333
-446
-506
-364
-405
-438
-298
-279
-231
-289
-338
-283
-194
-210
-419
-374
-49
-208
-411
-372
-199
87
209
281
264
279
293
189
465
459
2
567
912
585
817
933
862
614
627
820
701
575
379
232
-64
-173
12
-53
-264
-334
-228
-188
-405
-436
-333
-517
-401
-226
-346
-552
-640
-239
-298
-542
-383
-238
-313
-555
-331
-214
-323
-308
-572
-549
-279
-197
-540
-775
-141
-92
-429
-327
-388
-387
-218
-232
-360
-252
-274
-380
-279
-384
-260
34
-166
-437
-247
61
-9
-30
31
43
20
-40
-105
-292
-436
-474
-448
-521
-410
-360
-575
-800
-659
-92
-177
-414
-390
-424
-375
-497
-915
-1323
-1286
-951
-48
1519
3014
3967
4471
4558
3422
1503
271
-418
-772
-361
-77
-295
-283
-439
-452
-297
-527
-278
-303
-633
-208
-295
-549
-287
-292
-371
-231
-171
-191
-58
-161
-120
40
-143
-152
-72
-35
184
362
268
77
315
654
591
412
337
691
1164
866
645
909
741
602
526
408
381
64
63
292
36
-233
-312
-191
-167
-455
-470
-471
-435
-290
-560
-635
-405
-236
-296
-479
-434
-348
-333
-396
-391
-308
-446
-589
-365
-230
-467
-373
-347
-386
-240
-408
-213
-385
-644
-145
-206
-372
-330
-508
-323
-211
-393
-198
-33
-303
-443
-155
-116
-410
-166
-19
-37
177
-36
-195
22
7
-288
-377
-422
-485
-336
-374
-418
-415
-509
-519
-498
-351
-469
-662
-430
-456
-519
-644
-1351
-1599
-1004
-501
362
2048
3336
4501
4965
3980
2545
1044
22
-625
-722
-408
-334
-413
-571
-709
-390
-124
-520
-639
-368
-262
-389
-422
-243
-356
-477
-410
-459
-218
-31
-97
-193
-497
-469
-228
-7
220
141
235
381
190
228
394
465
607
573
692
786
663
775
509
483
738
662
663
467
201
52
-39
-100
-274
-304
-251
-278
-352
-573
-538
-305
-336
-443
-405
-340
-463
-519
-454
-390
-316
-449
-499
-510
-511
-486
-602
-590
-325
-228
-450
-448
-280
-295
-273
-269
-485
-449
-395
-453
-426
-438
-282
-390
-457
-330
-537
-371
-99
-183
-217
-231
-149
-55
-79
-131
-6
97
-125
-238
-55
-176
-384
-280
-407
-649
-651
-577
-260
-256
-415
-392
-618
-685
-515
-519
-533
-336
-482
-848
-1054
-1252
-1028
-354
922
2586
3852
4903
4702
3301
1982
627
-195
-732
-781
-330
-322
-303
-403
-613
-332
-210
-599
-648
-403
-329
-435
-212
-234
-570
-241
-230
-275
-261
-478
-134
-59
-193
-68
-66
-65
141
246
4
-164
265
590
390
349
559
792
754
748
803
678
633
630
709
715
422
138
266
271
-187
-71
123
-312
-388
-362
-529
-433
-358
-409
-654
-705
-418
-379
-364
-598
-709
-243
-260
-637
-630
-445
-325
-178
-242
-327
-408
-519
-318
-215
-395
-490
-479
-473
-419
-266
-239
-512
-462
-265
-483
-442
-249
-456
-325
-239
-423
-315
-428
-347
-159
-327
-243
-30
-118
-143
69
-29
-201
-152
-340
-464
-491
-387
-211
-537
-668
-566
-440
-320
-542
-669
-601
-601
-618
-666
-546
-331
-820
-1437
-1363
-1093
-134
1494
2796
3960
4801
4433
3006
1359
82
-465
-661
-550
-441
-508
-618
-675
-366
-277
-474
-545
-554
-471
-355
-615
-637
-99
-81
-480
-359
-243
-390
-271
-219
-325
-214
-102
-149
-68
99
155
158
13
-59
352
565
333
406
849
777
431
569
748
805
739
581
548
444
195
189
56
-162
-224
-178
-149
-455
-447
-125
-308
-606
-527
-531
-686
-530
-147
-470
-814
-340
-287
-637
-464
-218
-545
-576
-240
-451
-573
-180
-211
-357
-266
-467
-420
-295
-312
-230
-401
-525
-392
-420
-270
-316
-371
-59
-149
-287
-226
-163
-169
-350
-396
-21
0
-97
36
-295
-234
68
-76
-71
-148
-511
-522
-321
-286
-450
-576
-539
-564
-399
-425
-568
-509
-458
-458
-565
-538
-853
-1237
-973
-825
-100
1811
3245
4218
4806
3991
2587
1201
108
-398
-526
-290
-302
-393
-348
-463
-287
-192
-572
-599
-419
-437
-369
-468
-414
-66
-191
-472
-355
-141
-89
-295
-242
-44
-127
-53
-144
-262
69
185
61
239
507
483
528
512
579
730
538
730
920
736
652
662
729
492
250
390
249
104
197
-30
-424
-327
-249
-404
-315
-481
-527
-268
-331
-413
-589
-439
-205
-397
-209
-282
-638
-568
-350
-296
-345
-277
-451
-532
-300
-538
-493
-102
-189
-437
-504
-210
-248
-478
-429
-320
-256
-327
-311
-276
-196
-308
-415
-203
-455
-449
13
-46
-460
-458
166
181
-145
-45
-81
-165
-273
-450
-470
-481
-557
-503
-530
-706
-657
-496
-556
-603
-467
-513
-408
-412
-529
-867
-1315
-1087
-1253
-543
1418
2799
4062
4806
4400
3149
1565
234
-513
-620
-392
-273
-330
-536
-643
-381
-302
-344
-348
-355
-369
-285
-180
-402
-464
-287
-121
-226
-451
-301
-312
-449
-53
73
-127
2
187
230
-10
101
430
257
215
461
531
680
935
810
691
850
782
778
716
633
702
297
323
300
-93
-8
-127
-116
-170
-391
-280
-190
-209
-383
-319
-362
-811
-473
-116
-359
-605
-534
-147
-237
-417
-312
-341
-543
-234
-157
-751
-405
-96
-388
-419
-368
-479
-552
-214
-165
-324
-405
-404
-405
-304
-241
-317
-139
-237
-178
-110
-160
-102
-471
-219
43
-182
35
-14
-54
119
73
33
-367
-425
-264
-448
-314
-356
-444
-481
-623
-325
-442
-495
-211
-504
-385
-241
-390
-530
-1028
-1233
-1201
-990
64
1516
3187
4821
5139
4211
2906
1448
124
-505
-474
-354
-179
-188
-355
-342
-235
-398
-653
-257
-140
-497
-281
-178
-270
-161
-133
-339
-491
-163
88
36
84
87
3
37
-57
-123
106
310
363
224
255
447
421
514
946
1094
667
702
1133
1040
1001
1081
581
227
593
503
168
203
70
6
-47
-7
-83
-308
-304
-259
-352
-537
-355
-251
-412
-278
-383
-340
-237
-593
-336
-109
-531
-446
-25
-259
-382
-99
-302
-302
-201
-362
-241
-291
-335
-266
-169
-194
-400
-337
-135
-310
-379
96
-92
-387
-74
-220
-169
49
-223
-6
239
19
104
124
-99
-35
79
-138
-278
-219
-260
-189
-119
-250
-309
-282
-399
-529
-396
-259
-481
-466
-249
-510
-571
-431
-771
-1121
-1019
-459
514
2253
3856
4802
5231
4176
2469
975
51
-314
-576
-668
-631
-128
36
-203
-269
-489
-338
-107
-254
-195
-10
-151
-362
-259
-173
-101
25
13
-83
-215
-35
98
38
-28
-263
117
443
282
554
593
470
462
595
823
800
863
886
763
851
1080
1081
903
643
526
663
534
305
209
83
62
-74
-264
-185
-547
-509
-25
-365
-197
-102
-403
-326
-383
-271
-127
-256
-378
-222
-357
-375
-284
-433
-276
-320
-219
53
-23
-113
-77
-226
-367
-245
-183
-205
-399
-331
-170
-136
-146
-246
-101
-17
-89
-148
-230
-175
11
10
114
184
-57
-109
13
155
109
61
-22
-276
-334
-307
-209
-197
-186
-233
-389
-308
-394
-667
-381
-233
-568
-442
-224
-617
-872
-797
-1094
-904
-209
975
2772
4004
4910
4849
3502
1945
313
-408
-297
-502
-444
-134
-257
-270
-174
-233
-356
-490
-412
-136
-226
-453
-288
-81
-105
-411
-225
57
-107
-17
27
-173
-207
34
-2
-61
152
285
361
283
409
601
478
584
707
628
768
874
919
913
729
765
791
668
620
535
396
181
57
37
-63
-258
-309
-177
-171
-250
-183
-239
-203
-117
-341
-320
-339
-470
-319
-115
-344
-624
-240
-117
-170
-166
-301
-134
-235
-501
-143
42
-331
-259
-32
-148
-303
-363
-87
-10
-209
-193
-207
-22
-46
-382
-158
83
-70
-58
-71
-109
130
88
127
274
40
-123
-30
109
-100
-293
-172
-277
-259
-109
-534
-705
-333
-107
-246
-513
-402
-262
-257
-377
-445
-638
-998
-1063
-853
-233
838
2425
3962
4761
4581
3459
2091
873
-114
-667
-517
18
8
-245
-272
-284
-274
-324
-290
-182
-422
-554
-401
-327
-86
-21
-217
-201
5
-43
-251
-15
55
0
-31
-42
92
-34
120
327
147
422
691
517
737
791
718
901
805
999
1048
745
957
788
593
558
319
457
216
7
226
-33
-155
141
-70
-356
-388
-570
-331
-188
-382
-181
-245
-369
-156
-201
-258
-129
-236
-277
-255
-294
-244
-430
-451
-264
-156
-203
-345
-255
-170
-203
-57
-129
-378
-43
-104
-356
-113
-275
-419
-490
-215
182
34
14
-80
-24
116
-145
17
200
-28
40
-57
-64
71
-208
-245
-391
-611
-308
-186
-505
-271
-66
-491
-449
-309
-417
-439
-378
-291
-348
-779
-1095
-1012
-950
-694
249
2093
3367
4268
4904
4030
2657
1272
20
-529
-371
-106
-170
-198
-182
-331
-334
-274
-484
-451
-265
-405
-340
-92
7
-207
-485
-63
204
-124
-123
-138
-214
-173
-8
221
81
97
247
178
270
316
279
576
744
640
780
838
754
877
993
1043
987
862
756
743
479
159
304
200
-60
91
145
-151
-231
-105
-317
-365
-199
-353
-268
-160
-415
-266
-175
-290
-301
-315
-173
-592
-502
-85
-356
-163
-219
-430
-254
-506
-413
26
-77
-243
-200
-289
-463
-276
-199
-305
-174
-281
-431
-350
-253
-40
13
-14
-58
-134
-191
-199
-6
37
12
49
66
54
-27
11
-519
-643
6
-307
-463
-93
-135
-381
-477
-384
-519
-585
-403
-360
-337
-494
-670
-749
-1165
-1152
-824
-498
812
2497
3800
4693
4599
3607
2118
644
-183
-548
-431
-307
-373
-208
-320
-277
-237
-499
-302
-248
-489
-418
-268
-219
-204
-204
-163
-119
-306
-286
-83
-53
-17
-111
-217
-64
81
213
125
24
335
380
379
590
654
562
664
936
800
458
733
1090
801
663
731
586
387
61
121
98
-69
82
0
-159
-250
-362
-403
-258
-246
-273
-343
-608
-457
-301
-561
-439
-62
-164
-795
-530
50
-219
-214
-247
-435
-439
-284
-201
-442
-461
-148
-271
-631
-251
47
-217
-270
-329
-447
-311
-118
-269
-327
-56
-189
-323
-187
-370
-441
-80
225
108
-2
37
-103
-84
-38
-68
-175
-199
-282
-410
-388
-487
-528
-674
-526
-212
-392
-379
-254
-432
-548
-494
-382
-818
-1240
-1262
-1135
-100
1454
2943
4114
4931
4767
3330
1466
256
-68
-505
-563
-320
-299
-170
-423
-525
-306
-320
-310
-447
-444
-317
-252
-309
-403
-124
-73
-200
-90
-165
-339
-65
-57
-287
28
182
200
186
-92
104
325
230
508
686
504
637
729
695
960
936
801
906
799
732
734
354
316
485
152
-122
-192
-169
26
10
-269
-475
-348
-144
-270
-318
-278
-455
-459
-393
-436
-298
-318
-482
-570
-572
-273
-227
-333
-73
-145
-447
-198
-222
-400
-43
-229
-353
-150
-331
-285
-173
-270
-414
-413
-413
-677
-446
19
-51
-53
-85
-257
-71
-94
-303
-317
-221
-88
-119
-53
37
57
-26
-186
-139
-127
-300
-450
-460
-492
-377
-341
-637
-517
-504
-519
-126
-350
-645
-595
-437
-444
-1096
-1334
-948
-193
1322
2868
4108
5125
4813
3279
1798
406
-310
-567
-760
-323
-121
-317
-355
-418
-440
-265
-267
-443
-393
-199
-294
-463
-302
-342
-228
10
-282
-252
-8
-89
-92
59
103
-37
-30
152
204
66
297
547
543
444
302
555
922
832
562
634
941
1033
817
774
673
522
455
306
300
190
-76
-363
-228
-13
-179
-226
-478
-559
-405
-324
-228
-175
-379
-596
-339
-319
-506
-463
-270
-367
-613
-324
-128
-253
-264
-383
-263
-62
-322
-471
-387
-165
-51
-276
-395
-289
-406
-687
-381
-35
-285
-292
-163
-499
-218
42
-226
-258
-271
-159
-25
79
-125
-159
-29
26
14
-155
-139
-354
-526
-373
-460
-622
-515
-444
-286
-280
-488
-497
-569
-505
-416
-641
-566
-458
-922
-1258
-1428
-1062
-28
1225
2711
4183
4864
4319
3275
1702
241
-372
-864
-774
-279
-312
-453
-456
-181
-191
-525
-395
-262
-373
-490
-553
-445
-368
-271
-254
-485
-363
-104
-263
-316
-68
35
-127
-79
172
22
64
275
100
208
437
385
489
612
788
900
625
697
727
747
971
687
560
525
246
244
172
-58
-86
-174
-230
-327
-325
-221
-287
-394
-617
-509
-352
-535
-356
-250
-664
-566
-205
-261
-453
-432
-332
-379
-306
-297
-466
-491
-246
-267
-329
-365
-661
-369
-141
-259
-111
-355
-443
-318
-323
-292
-438
-283
15
-111
-502
-329
80
-131
-272
-187
-55
58
66
-80
-245
-93
-56
-73
-219
-422
-360
-437
-406
-339
-629
-575
-227
-294
-429
-423
-457
-480
-531
-726
-697
-736
-1226
-1203
-738
-191
1084
2657
4014
4937
4729
3535
1869
487
-349
-757
-725
-306
-96
-338
-160
-176
-635
-498
-224
-376
-279
-257
-497
-320
-196
-386
-327
-164
-208
-126
-35
-147
-306
-124
162
19
-50
70
108
134
175
390
519
341
549
825
815
806
688
901
1044
696
692
938
691
563
489
125
44
-11
-72
-200
-277
-207
-217
-397
-527
-500
-608
-242
28
-433
-465
-322
-362
-303
-314
-347
-470
-378
-295
-553
-741
-445
-157
-142
-283
-390
-338
-436
-284
-221
-242
-218
-397
-457
-338
-420
-545
-225
26
-52
-224
-343
-240
-160
-182
-249
-124
81
-101
-66
200
86
-65
-68
-35
-22
-193
-402
-416
-222
-273
-578
-513
-374
-380
-290
-304
-559
-591
-395
-525
-385
-263
-867
-1169
-1057
-939
-484
830
2528
3905
4841
4657
3595
2099
710
-187
-605
-450
-296
-424
-424
-399
-363
-116
-204
-334
-355
-582
-421
-104
-54
-259
-432
-160
-158
-378
-176
-77
-193
-153
11
75
-202
-278
216
328
247
404
385
424
412
589
838
732
721
894
849
893
908
651
826
767
535
568
319
93
174
68
-161
-167
-345
-417
-244
-320
-361
-255
-281
-341
-320
-201
-275
-347
-232
-293
-329
-234
-479
-457
-129
-345
-543
-490
-232
-70
-186
-215
-403
-307
-50
-354
-364
-87
-167
-261
-450
-460
-390
-351
-148
-186
-281
-130
-15
-183
-142
-110
-220
-59
115
160
95
93
54
-84
-110
30
-55
-296
-317
-406
-585
-731
-200
192
-335
-410
-278
-443
-393
-338
-515
-343
-196
-628
-998
-1071
-1165
-945
236
1968
3377
4487
5171
4558
2747
1071
188
-373
-452
-189
-242
-348
-237
-177
-252
-447
-492
-362
-326
-133
-114
-467
-365
-173
-239
10
-16
-383
-225
65
-40
-98
84
21
-192
41
190
211
479
381
304
539
629
756
753
748
989
840
748
868
873
906
787
566
353
306
291
282
188
-71
-131
-95
-142
-229
-209
-218
-610
-599
-248
-493
-484
-232
-364
-207
-101
-234
-372
-543
-353
-322
-330
-313
-404
-217
-241
-605
-610
-162
12
-145
-232
-264
-332
-308
-242
-297
-336
-204
-385
-455
-40
-10
-143
-168
-236
-206
-147
-69
-108
-33
14
6
83
-115
-177
86
194
-43
-276
-453
-491
-326
-360
-323
-209
-331
-488
-591
-391
-315
-501
-352
-314
-602
-862
-914
-950
-856
-354
783
2457
3689
4855
5271
3819
2240
927
-153
-460
-418
-429
-544
-548
-301
-201
-316
-283
-121
-264
-543
-191
-57
-291
-194
-216
-300
-219
-155
-172
-150
-167
-124
202
16
-292
72
253
178
152
262
517
519
562
590
521
539
562
775
853
1018
1018
754
737
424
465
808
373
81
166
140
-206
-504
-92
-72
-358
-307
-337
-378
-384
-478
-509
-342
-491
-602
-362
-378
-496
-600
-394
-294
-378
-154
-202
-335
-306
-302
-328
-351
-311
-363
-355
-283
-226
-273
-588
-634
-287
-37
-143
-241
-128
-298
-430
-129
-114
-209
-261
-349
-138
40
-15
73
-11
-305
-21
111
-113
-348
-479
-376
-523
-563
-234
-481
-764
-340
-546
-646
-431
-653
-387
-447
-773
-475
-631
-1246
-1350
-981
-312
1042
2691
3989
4872
4461
3161
1810
227
-499
-662
-786
-551
-451
-382
-407
-416
-373
-410
-503
-585
-415
-322
-479
-423
-154
-546
-608
-39
-439
-616
-52
-175
-383
-119
-102
-23
130
19
20
136
260
317
105
308
800
688
435
589
728
606
693
869
809
543
418
554
479
290
54
-189
-26
-54
-237
-267
-486
-418
-290
-511
-437
-315
-454
-329
-274
-557
-670
-369
-286
-515
-214
-148
-550
-540
-529
-507
-279
-263
-282
-379
-330
-361
-698
-390
-68
-221
-218
-257
-406
-389
-407
-463
-125
-1
-225
-197
-140
-373
-381
-179
-72
77
34
-264
-471
60
229
10
-116
-530
-449
-435
-456
-240
-471
-626
-451
-414
-566
-424
-227
-360
-570
-512
-411
-555
-916
-1443
-1294
-790
-10
1482
3057
4466
4997
4061
2708
1496
375
-384
-648
-375
-62
-292
-749
-616
-258
-364
-462
-346
-325
-348
-305
-350
-340
-460
-526
-269
-193
-313
-388
-162
-82
-260
-64
77
53
46
-76
102
108
114
501
326
273
689
684
643
834
766
680
867
795
792
770
305
487
531
-127
-115
63
-207
-242
-95
-238
-270
-204
-336
-332
-343
-471
-470
-427
-321
-399
-718
-669
-356
-280
-290
-403
-457
-240
-227
-390
-302
-257
-404
-477
-447
-354
-275
-503
-571
-172
-167
-438
-414
-327
-186
-338
-695
-228
111
-192
-48
-57
-320
-101
49
-121
-76
-5
-130
-236
-191
-247
-321
-199
-290
-460
-420
-441
-572
-492
-429
-567
-601
-397
-382
-877
-689
-199
-475
-887
-1241
-1243
-829
-24
1354
2928
4065
4601
4226
3040
1404
-35
-267
-335
-386
-111
-358
-424
-184
-362
-529
-428
-562
-482
-533
-656
-290
-145
-120
-212
-381
-185
-31
-161
-111
-216
-209
-3
-22
-202
-385
-78
94
152
340
308
525
605
418
560
855
897
577
581
1019
930
701
733
521
336
397
298
-26
-170
29
-93
-408
-279
-362
-567
-433
-328
-337
-357
-499
-503
-274
-259
-461
-451
-297
-343
-446
-347
-529
-685
-244
-411
-509
-121
-189
-342
-499
-444
-211
-285
-388
-394
-375
-561
-438
-253
-608
-370
-148
-139
-65
-269
-196
-196
-273
-286
-252
101
68
-276
-80
10
-100
81
-57
-376
-427
-419
-522
-683
-491
-326
-466
-524
-384
-411
-607
-382
-273
-453
-544
-613
-863
-1190
-1207
-978
-403
944
2657
4057
4835
4577
3198
1400
347
-55
-569
-566
-210
-286
-354
-222
-243
-541
-399
-194
-330
-312
-447
-318
-365
-348
-11
-365
-341
-86
-216
-83
-60
-305
-165
204
11
-121
277
238
-7
243
480
423
376
638
829
780
590
578
922
1053
930
757
764
570
102
268
566
175
-355
-98
270
-318
-392
12
-241
-462
-331
-183
-238
-396
-548
-418
-388
-407
-139
-347
-566
-305
-253
-332
-313
-474
-417
-125
-77
-208
-400
-362
-242
-404
-335
-180
-339
-320
-331
-330
-408
-413
-134
-92
-286
-305
-38
-75
-216
-169
-132
-176
-269
-186
100
122
-13
44
118
135
-56
-267
-459
-427
-154
-353
-722
-451
-351
-589
-337
-284
-249
-277
-539
-496
-406
-370
-815
-1092
-948
-1067
-154
1492
2733
4337
5363
4607
3078
1411
180
-225
-517
-378
-118
-282
-354
-734
-532
25
-337
-259
-8
-284
-245
-167
-311
-228
-83
-129
-144
-83
-277
-425
-86
7
-95
59
36
-11
172
252
326
408
528
549
347
606
772
616
784
849
877
879
878
933
627
507
482
247
321
300
14
-6
0
-259
-246
-193
-304
-318
-371
-398
-500
-314
-310
-551
-351
-178
-270
-387
-264
-235
-365
-239
-113
-273
-371
-311
-287
-191
-287
-465
-402
-355
-230
-89
-269
-259
-366
-447
-73
-53
-255
-351
-301
6
-332
-607
32
81
-84
-65
-24
78
-7
84
165
70
-114
-271
-263
-309
-394
-178
-261
-468
-521
-677
-427
-221
-268
-378
-493
-336
-305
-369
-403
-826
-1130
-1143
-965
-58
1461
2987
4329
5228
4680
3310
1828
225
-307
-398
-582
-503
-465
-275
-164
-336
-508
-353
-132
-165
-319
-357
-188
-304
-416
-176
-184
-291
-106
-86
-171
-202
-62
30
-302
-20
314
89
324
352
108
324
532
628
666
692
821
757
657
711
773
905
902
698
704
681
293
228
239
-200
-87
-122
-492
-112
-163
-523
-187
-180
-472
-330
-214
-347
-280
-355
-623
-393
-469
-456
-97
-416
-512
-212
-289
-320
-182
-59
-222
-346
-311
-342
-284
-346
-281
-284
-315
-208
-272
-424
-291
-306
-508
-208
-88
-201
-257
-259
-154
-96
204
212
-66
-78
18
19
-63
-158
-355
-382
-246
-370
-636
-480
-271
-601
-665
-227
-183
-415
-573
-656
-471
-350
-341
-535
-1127
-1415
-1055
-351
754
2307
3580
4458
4848
3874
2227
544
-531
-403
-428
-534
-159
-310
-715
-460
-156
-362
-466
-316
-356
-558
-400
-96
-234
-218
-207
-443
-296
-82
-69
-93
-259
-273
-179
-177
-14
174
97
186
466
328
333
502
479
644
757
706
662
824
655
378
705
820
608
659
554
198
244
242
-135
-76
-104
-377
-161
-160
-320
-234
-408
-472
-398
-700
-413
-13
-236
-260
-340
-456
-320
-293
-316
-252
-303
-388
-291
-200
-341
-230
-28
-312
-407
-222
-303
-297
-320
-362
-188
-192
-262
-164
-169
-503
-299
130
-243
-338
-150
15
166
164
41
-275
-53
116
-17
-9
-276
-477
-311
-260
-476
-522
-562
-650
-522
-279
-239
-510
-554
-531
-366
-169
-521
-836
-1132
-1136
-684
-288
940
2786
4201
4846
4483
3157
1449
270
-383
-536
-333
-184
-224
-226
-190
-281
-378
-448
-471
-460
-205
-211
-287
-155
-366
-362
-74
-198
-371
-62
-86
-214
-264
-395
177
316
-35
85
251
369
403
254
387
686
667
570
563
718
879
858
794
931
719
396
627
534
363
397
109
-19
55
-107
8
-241
-638
-371
-228
-187
-471
-472
-173
-575
-399
-47
-305
-232
-406
-519
-291
-351
-341
-297
-366
-609
-471
-37
-350
-487
-107
-182
-461
-584
-397
-233
-411
-424
-238
-284
-318
-170
-252
-200
-99
-319
-178
-148
-214
0
-135
-143
3
-32
63
9
-250
-196
-307
-516
-275
-296
-466
-341
-379
-509
-598
-467
-316
-476
-558
-707
-582
-403
-501
-713
-1275
-1270
-644
248
1660
3110
4400
4794
4064
2675
1110
106
-452
-506
-279
-293
-379
-270
-122
-311
-576
-629
-463
-190
-240
-284
-227
-330
-150
-127
-362
-215
-216
-155
-20
-186
-155
-51
-85
100
117
56
163
326
494
233
270
585
614
688
882
918
727
811
965
892
715
727
741
311
190
352
226
-168
-211
86
-239
-525
-230
-92
-249
-319
-288
-378
-272
-314
-507
-270
-289
-360
-211
-283
-379
-280
-331
-300
-224
-443
-272
-163
-508
-410
-441
-478
-204
-175
-156
-189
-178
-159
-294
-435
-216
-18
-138
-30
-96
-329
-215
-245
-102
61
-66
-186
36
178
-115
-76
-55
-118
-7
-206
-349
-149
-315
-685
-370
-82
-418
-405
-303
-305
-305
-665
-548
-287
-444
-781
-1453
-1338
-687
-57
1177
2671
4209
5031
4463
3290
1807
168
-527
-393
-299
-226
-130
-170
-242
-245
-176
-207
-350
-331
-335
-376
-285
-249
-252
-260
-272
-52
-5
-133
-52
39
112
-30
-94
57
-49
180
404
310
215
13
467
849
698
765
775
807
861
880
994
955
754
662
731
509
371
543
-58
-383
244
0
-364
-57
-164
-299
-79
-127
-321
-310
-171
-235
-497
-377
-299
-403
-344
-376
-488
-502
-297
-99
-274
-343
-121
-182
-202
-256
-412
-140
-231
-356
-28
-163
-345
-283
-383
-490
-334
-134
-67
-50
-292
-294
-123
-253
-53
-2
-124
33
8
109
-81
-190
157
62
-19
-133
-425
-449
-322
-336
-352
-280
-423
-415
-236
-417
-635
-423
-277
-408
-353
-593
-909
-957
-1076
-644
707
2369
3764
5071
5027
3784
2543
832
-97
-330
-593
-279
-199
-349
-179
-155
-484
-476
-321
-297
-230
-430
-350
-93
-243
-299
-118
-156
-303
-224
-26
-29
-108
-32
145
23
-63
85
174
335
183
164
497
493
661
790
533
593
937
1073
753
698
929
841
670
561
384
289
237
-126
-170
36
-283
-326
109
-133
-616
-323
-216
-518
-417
-503
-442
-227
-243
-266
-518
-446
-217
-207
-351
-436
-281
-226
-184
-365
-524
-298
-260
-307
-251
-254
-371
-392
-165
-269
-383
-185
-191
-183
-301
-461
-343
-246
-59
-66
-319
-289
-84
71
68
55
-37
-99
-128
-30
50
-57
-180
-448
-362
-326
-348
-400
-625
-436
-227
-341
-421
-289
-431
-390
-178
-525
-577
-665
-1193
-1139
-493
722
2299
3682
4894
5142
3828
2071
685
-213
-601
-537
-358
-205
-263
-460
-325
-319
-501
-413
-347
-251
-157
-306
-337
-160
-124
-131
-106
-151
99
-303
-564
60
148
0
-107
64
269
154
219
434
587
588
419
598
633
502
840
906
924
786
673
886
633
516
906
769
407
242
42
45
-112
-135
64
-302
-435
-75
-269
-646
-372
-104
-321
-253
-361
-698
-430
-269
-290
-233
-398
-237
24
-251
-417
-210
-171
-302
-331
-233
-186
-269
-212
-204
-218
-218
-401
-575
-605
-56
211
-220
-274
-10
1
-191
-183
88
-38
-182
130
36
-38
57
-95
46
175
-203
-630
-496
-214
-255
-407
-412
-220
-184
-450
-606
-483
-473
-469
-356
-296
-481
-904
-1211
-1251
-833
-30
1170
2845
4285
4688
4428
3377
1388
106
-227
-605
-538
-132
-187
-291
-337
-511
-462
-380
-337
-291
-288
-456
-535
-145
-24
-174
-161
-357
-279
-59
-172
-70
-81
-237
-251
-9
269
286
145
216
191
246
684
656
610
672
646
774
778
693
724
779
734
650
543
594
537
278
154
15
61
-40
-242
-285
-421
-241
-292
-576
-394
-258
-275
-641
-634
-111
-323
-245
-151
-442
-308
-372
-204
-246
-481
-230
-398
-518
-399
-388
-355
-248
-250
-379
-138
-183
-310
-196
-399
-364
-46
-192
-416
-211
45
-172
-405
-195
-159
1
182
30
109
111
-57
9
101
-145
-438
-298
-177
-370
-535
-337
-472
-738
-272
-155
-383
-374
-552
-503
-278
-396
-469
-832
-1387
-1133
-586
65
1381
3082
4622
5129
4193
2732
1264
75
-390
-504
-222
-74
-440
-576
-531
-177
-195
-513
-330
-343
-459
-359
-228
-250
-311
-241
-221
-163
-157
-196
-200
-466
-223
120
-70
29
27
42
379
317
325
491
417
523
720
834
639
420
693
776
683
965
955
650
700
572
222
212
102
-114
-78
-181
-362
-342
-280
-157
-208
-474
-457
-216
-380
-568
-267
-342
-485
-238
-211
-298
-421
-416
-409
-450
-244
-212
-360
-446
-393
-323
-313
-149
-325
-551
-440
-355
-271
-288
-393
-425
-391
-273
-121
-284
-273
-18
-108
-131
-205
-336
-114
-133
-155
83
-88
-104
58
-314
-558
-314
-361
-316
-112
-331
-386
-388
-606
-524
-424
-674
-558
-258
-691
-822
-553
-828
-952
-998
-946
37
1580
3133
4328
4752
4311
2934
1330
97
-633
-496
-349
-473
-224
-424
-568
-213
-479
-397
-169
-578
-309
-86
-285
-281
-361
-256
-263
-381
-120
-186
-530
-193
107
-51
-151
-108
128
162
3
22
180
416
383
396
712
625
583
733
629
771
737
735
911
704
506
435
375
171
165
-203
-527
-62
-171
-435
-261
-401
-669
-518
-389
-432
-229
-293
-475
-324
-329
-355
-455
-647
-477
-312
-435
-497
-394
-324
-395
-340
-258
-334
-340
-311
-254
-345
-335
-280
-644
-720
-340
-152
-191
-233
-340
-445
-348
-197
-199
-360
-215
-73
-219
-76
-27
-18
-261
-377
181
-25
-304
-46
-195
-340
-356
-517
-455
-286
-354
-467
-584
-560
-442
-666
-677
-413
-413
-421
-486
-761
-1132
-1250
-1066
-439
1008
2791
4158
4864
4694
3661
1857
184
-291
-430
-650
-444
-281
-420
-421
-416
-485
-646
-489
-169
-312
-274
-194
-516
-537
-123
-137
-326
-81
-69
-313
-193
-142
-251
-38
61
66
151
-193
-118
447
536
440
495
658
637
595
796
824
897
1051
891
781
768
502
365
352
103
-24
-57
-107
-101
-18
-54
-314
-300
-158
-384
-442
-497
-479
-300
-486
-460
-242
-421
-417
-312
-416
-345
-273
-285
-283
-409
-476
-332
-290
-240
-276
-355
-368
-446
-266
-78
-272
-391
-262
-141
-351
-598
-439
-137
-257
-403
-106
-61
-226
-420
-279
83
-23
-138
-84
-113
-98
111
140
-34
-227
-454
-489
-156
-201
-725
-416
-182
-457
-322
-483
-616
-451
-301
-199
-575
-454
-278
-832
-1162
-1077
-752
-213
1008
2594
3906
5007
4935
3492
1774
232
-443
-549
-593
-475
-199
-146
-351
-466
-369
-165
-297
-193
-130
-502
-426
-153
-195
-287
-338
-222
-162
-192
-100
-86
-314
-241
121
-52
-10
236
337
399
140
268
508
546
577
597
805
921
888
619
674
806
708
940
562
224
470
333
263
211
-324
-409
-20
-71
-254
-374
-339
-296
-312
-412
-563
-358
-302
-624
-463
-418
-547
-149
-285
-495
-287
-401
-444
-319
-255
-348
-411
-276
-250
-228
-251
-297
-401
-278
-155
-481
-622
-400
-362
-431
-317
-294
-297
-327
-206
-20
-56
-63
-168
-62
64
-242
-276
-215
-71
55
-205
73
-56
-580
-321
-179
-286
-587
-869
-534
-344
-389
-396
-258
-237
-475
-470
-423
-509
-850
-1263
-1244
-995
-609
682
2342
3832
4967
4762
3678
2275
733
-210
-468
-480
-366
-339
-674
-753
-351
-54
-107
-238
-209
-381
-465
-158
-181
-377
-384
-485
-413
-194
-185
-45
71
-26
-59
-58
-76
-61
47
12
113
332
264
239
565
597
575
840
912
816
824
881
698
607
663
705
649
579
396
111
29
-61
-240
-245
-162
-254
-325
-464
-503
-294
-348
-343
-245
-306
-455
-484
-291
-448
-584
-430
-472
-554
-427
-120
-237
-439
-267
-285
-390
-310
-297
-478
-419
-533
-846
-582
-294
-315
-237
-148
-253
-331
-281
-134
-220
-322
-246
-227
-194
-674
-715
83
140
-133
7
33
-115
-121
0
-135
-361
-415
-522
-435
-604
-967
-724
-374
-304
-469
-357
-342
-642
-519
-532
-689
-793
-1158
-1298
-1002
-463
846
2304
3619
4862
4693
3524
2069
477
-180
-577
-1125
-474
-131
-356
-320
-513
-276
-270
-571
-429
-381
-354
-313
-369
-304
-405
-333
-67
-331
-334
-97
-388
-390
-248
-1
191
-8
39
40
26
144
351
494
589
656
594
740
615
486
655
793
711
626
870
826
485
207
172
269
61
-90
-123
-146
-273
-509
-405
-270
-457
-753
-542
-360
-491
-212
-362
-597
-360
-405
-452
-353
-342
-345
-468
-467
-331
-359
-583
-604
-459
-448
-277
-270
-327
-232
-276
-312
-329
-464
-326
-197
-366
-488
-380
-177
-121
-362
-391
-183
-282
-211
9
-93
-272
-181
18
46
69
172
-72
-261
-209
-437
-462
-450
-565
-355
-365
-486
-460
-668
-637
-367
-492
-590
-441
-507
-727
-1035
-1329
-1200
-471
596
2034
3776
4852
4895
3984
2250
749
-67
-638
-752
-386
-157
-402
-626
-370
-230
-354
-386
-464
-489
-414
-401
-406
-245
-283
-378
-185
-150
-204
-308
-213
-75
-110
-84
-58
76
55
19
12
103
221
246
572
763
689
631
615
741
840
843
964
824
536
589
441
278
200
221
296
-90
-180
-138
-303
-247
-381
-655
-547
-326
-357
-423
-478
-504
-283
-271
-555
-425
-328
-416
-313
-470
-562
-405
-429
-320
-372
-779
-450
-54
-287
-378
-502
-373
-266
-343
-375
-451
-367
-467
-423
-243
-401
-398
-173
-298
-273
-285
-510
-120
-162
-327
16
-246
-139
164
-111
-51
160
3
-123
-243
-298
-302
-466
-264
-551
-782
-377
-439
-434
-501
-511
-371
-682
-712
-231
-110
-510
-1198
-1376
-870
-289
1025
2852
4175
4908
4819
3642
2083
587
-463
-589
-503
-431
-174
-303
-532
-520
-598
-491
-197
-222
-415
-542
-364
-108
-160
-166
-141
-168
-190
-99
-107
-61
-184
-425
-117
165
96
29
162
108
58
227
386
643
613
552
738
517
529
1014
972
848
869
787
762
441
193
228
116
109
97
-89
-348
-367
-244
-288
-211
-409
-548
-410
-380
-360
-483
-469
-322
-288
-394
-379
-404
-497
-369
-244
-276
-271
-395
-446
-111
-254
-364
-329
-466
-313
-266
-394
-344
-276
-288
-406
-451
-309
-263
-214
-218
-260
-90
-277
-496
-145
-136
-249
-82
-57
-62
-241
-175
-33
-242
25
-28
-407
-249
-370
-527
-403
-360
-340
-423
-499
-458
-543
-582
-571
-443
-398
-513
-437
-664
-1162
-1188
-1020
-673
573
2410
4195
4969
4384
3494
2052
307
-385
-448
-438
-463
-386
-209
-306
-388
-316
-522
-619
-352
-264
-426
-551
-437
-158
-142
-274
-250
-444
-322
50
-247
-315
-22
-254
-60
41
-181
17
123
419
537
257
328
602
486
435
789
863
555
627
898
629
637
774
482
430
342
106
-205
-135
-108
-493
-286
-367
-585
-179
-240
-598
-372
-242
-510
-372
-352
-655
-625
-431
-530
-483
-507
-614
-267
-476
-405
-152
-224
-290
-522
-387
-378
-396
-450
-643
-373
-156
-486
-589
-349
-239
-353
-370
-246
-274
-208
-227
-177
-327
-490
-162
-64
-112
-136
-408
-238
51
-123
-37
67
-165
-330
-361
-659
-512
-283
-460
-391
-463
-564
-545
-635
-611
-531
-629
-603
-454
-615
-1094
-1259
-1042
-686
433
2082
3436
4534
4881
3954
2186
422
-205
-255
-443
-457
-381
-427
-388
-277
-427
-576
-282
-257
-603
-276
-346
-647
-410
-294
-13
-159
-440
-221
-179
-183
-95
-34
-40
-410
-334
352
176
116
419
254
379
462
385
622
710
680
934
938
669
860
945
667
619
533
429
170
64
266
48
-136
-131
-326
-366
-196
-243
-251
-231
-572
-580
-227
-235
-480
-433
-196
-358
-424
-425
-503
-314
-251
-346
-301
-261
-543
-545
-242
-180
-170
-268
-320
-263
-403
-407
-218
-402
-750
-343
-220
-517
-181
32
-183
-445
-129
35
-234
-114
-152
-182
72
98
-123
-267
-98
-153
-73
130
-373
-560
-219
-300
-448
-427
-429
-569
-664
-389
-396
-392
-99
-441
-696
-392
-330
-700
-1257
-1267
-839
-67
1391
2795
4062
5000
4681
3064
1345
348
-500
-711
-146
-13
-443
-356
-340
-573
-210
-178
-300
-209
-467
-547
-206
-208
-226
-311
-358
-251
-371
-90
-195
-458
23
59
-7
49
-94
175
208
16
156
282
516
693
392
448
881
841
793
863
840
762
715
838
696
398
363
281
0
-53
64
-100
-254
-388
-313
-60
-261
-560
-514
-305
-343
-355
-267
-443
-283
-284
-668
-464
-259
-385
-393
-437
-386
-213
-409
-386
-233
-222
-235
-408
-394
-382
-260
-363
-472
-240
-308
-599
-594
-91
-77
-260
-93
-205
-120
-69
-145
-66
-241
-246
-78
35
237
64
-215
30
132
-185
-216
-165
-251
-228
-365
-406
-351
-515
-566
-467
-214
-128
-453
-438
-373
-672
-440
-353
-951
-1201
-1277
-783
216
1283
2937
4223
4944
4710
3196
1576
278
-464
-747
-459
-32
-274
-465
-288
-271
-362
-224
-401
-554
-250
-244
-222
-403
-535
-35
-121
-307
37
-164
-318
-36
-197
-161
121
-103
-70
286
220
265
516
231
232
665
663
589
618
754
921
849
707
806
921
878
725
353
332
420
258
36
-100
-196
-372
-233
-263
-390
-198
-407
-539
-278
-416
-552
-504
-311
-216
-326
-350
-471
-397
-265
-319
-363
-275
-253
-395
-322
-286
-385
-265
-166
-347
-339
-211
-390
-396
-509
-441
-144
-349
-431
-247
-177
-228
-112
13
-233
-402
-239
-103
-372
-101
262
-138
4
26
-152
52
-89
-231
-292
-411
-297
-288
-349
-326
-324
-411
-681
-781
-494
-307
-357
-337
-459
-632
-600
-745
-1068
-1185
-886
229
1937
3434
4440
5128
4451
2553
1101
97
-548
-584
-359
-210
-85
-293
-380
-354
-580
-405
-258
-319
-510
-540
-213
-57
-152
-222
-214
-226
-207
-251
-144
-23
-64
-56
18
-31
-7
147
-1
111
455
295
279
696
791
591
621
703
709
908
983
879
806
654
395
405
447
176
108
67
34
24
-258
-413
-312
-370
-470
-558
-456
-220
-816
-780
-94
-258
-402
-387
-386
-337
-194
-278
-387
-355
-357
-363
-394
-362
-405
-315
-433
-388
-122
-234
-346
-305
-366
-487
-307
-286
-442
-302
-216
-361
-295
-229
-262
-387
-364
-108
-143
-180
11
144
-217
-323
-45
-71
-115
-177
-201
-86
-200
-439
-390
-488
-617
-432
-395
-478
-610
-602
-456
-548
-772
-441
-208
-551
-690
-983
-1274
-1073
-443
671
2426
4054
4900
4742
3438
1676
307
-269
-467
-567
-449
-342
-450
-471
-411
-480
-396
-384
-582
-357
-99
-192
-425
-508
-212
-212
-277
-198
-229
-198
-128
-36
-180
-187
-190
-194
149
114
122
316
315
436
399
290
348
744
926
856
955
573
552
979
607
236
415
604
314
53
168
57
-218
-262
-162
-216
-277
-502
-465
-377
-603
-416
-281
-424
-453
-589
-603
-303
-221
-337
-423
-491
-406
-203
-190
-425
-479
-488
-377
-207
-580
-698
-248
-287
-288
34
-198
-516
-437
-305
-235
-243
-341
-305
-195
-124
-160
-278
-482
-466
-52
156
106
-67
-105
-188
-173
103
72
-144
-370
-219
-344
-542
-309
-590
-705
-384
-159
-344
-656
-409
-360
-485
-448
-554
-650
-1125
-1462
-980
-685
225
2124
3586
4628
4856
3990
2449
818
34
-456
-566
-290
-482
-435
-262
-618
-727
-186
-59
-270
-248
-352
-430
-518
-429
-124
-167
-345
-419
-112
70
-44
-141
-228
-194
-213
174
203
-13
269
284
315
427
406
412
692
833
545
744
965
864
786
755
831
686
454
420
377
237
129
19
-50
-79
-205
-377
-360
-304
-368
-569
-413
39
-181
-431
-378
-452
-269
-344
-597
-367
-67
-248
-717
-232
221
-287
-420
-242
-223
-184
-271
-518
-456
-221
-279
-321
-315
-393
-376
-328
-272
-287
-295
-185
-45
-97
-122
-138
-225
-226
-217
-85
-101
83
277
57
34
120
97
-92
-230
-120
-235
-508
-375
-318
-585
-375
-342
-632
-375
-251
-452
-365
-289
-360
-545
-516
-705
-1215
-928
-692
-16
1898
3507
4454
4842
4235
2764
1073
-101
-522
-354
-176
-208
-278
-356
-244
-477
-526
-150
-235
-251
-177
-209
-268
-300
-276
-316
-123
-102
-162
54
-57
-243
-100
3
-71
-59
248
346
117
247
343
315
444
508
601
741
789
879
951
726
639
526
699
981
656
446
415
312
153
-70
-35
6
-262
-252
-244
-413
-379
-272
-321
-410
-186
-162
-313
-352
-430
-498
-398
-212
-171
-214
-538
-582
-269
-289
-271
-304
-327
-255
-416
-308
-200
-194
-332
-544
-172
-9
-319
-369
-307
-601
-664
-246
-19
-6
-135
-140
-105
-174
-186
-190
18
133
-46
-69
-21
-237
-141
-124
-373
-174
-240
-390
-341
-399
-380
-413
-499
-474
-372
-320
-583
-651
-301
-525
-768
-527
-841
-1346
-1262
-521
835
2396
3773
4753
4535
3439
2060
531
-363
-731
-461
-269
-369
-148
-364
-627
-432
-271
-429
-582
-308
-227
-393
-373
-392
-357
-161
-270
-507
-485
-79
143
-178
-230
-119
-150
-83
192
358
214
216
326
307
299
415
549
725
615
470
813
811
723
635
587
805
467
272
497
259
-2
-143
-364
-234
-189
-131
-361
-635
-270
-328
-529
-530
-584
-420
-278
-456
-552
-255
-352
-411
-321
-634
-367
-172
-306
-150
-203
-427
-365
-197
-432
-542
-411
-428
-246
-247
-383
-265
-532
-454
-155
-318
-202
-195
-238
-211
-207
-155
-291
-260
-254
-229
-27
108
193
-115
-308
85
120
-177
-292
-199
-299
-693
-467
-288
-508
-293
-280
-586
-520
-402
-588
-719
-486
-310
-425
-680
-1185
-1289
-928
-205
1036
2539
4194
5076
4692
3353
1640
490
-346
-1153
-704
22
-346
-365
-244
-378
-261
-309
-398
-486
-405
-263
-308
-279
-348
-470
-407
-135
-207
-343
-45
-70
-28
95
-94
97
74
-93
281
258
196
410
425
439
623
738
633
624
803
1010
917
564
631
872
731
569
520
321
134
107
-88
-97
-149
-336
-240
-109
-285
-439
-300
-419
-459
-173
-238
-438
-379
-472
-411
-365
-567
-212
-17
-426
-262
-5
-395
-376
-180
-247
-328
-452
-304
-142
-157
-359
-402
-337
-373
-201
-300
-368
-246
-314
-368
-256
-240
-145
40
-148
-127
43
-84
-83
-68
-8
-13
-312
-116
64
-99
-210
-405
-360
-271
-289
-317
-537
-524
-428
-429
-315
-502
-467
-406
-666
-563
-396
-641
-1008
-1178
-973
-305
909
2448
3863
4987
5007
3399
1624
511
-439
-820
-626
-284
-186
-306
-217
-194
-440
-504
-300
-403
-419
-188
-243
-210
-195
-269
-381
-358
-184
-376
-391
-29
-17
-183
73
128
-146
-223
41
475
381
284
348
166
372
733
715
709
823
859
809
775
851
631
442
566
438
119
23
132
-5
-258
-192
-294
-572
-409
-412
-335
-178
-534
-446
-209
-303
-442
-502
-292
-384
-561
-346
-297
-337
-259
-264
-377
-349
-276
-380
-322
-252
-396
-193
-379
-716
-207
-90
-349
-338
-350
-408
-530
-488
-110
-143
-286
-55
-296
-438
-29
-111
-297
-60
29
13
-94
-127
13
-100
-327
-384
-147
-140
-363
-405
-510
-597
-650
-333
-299
-543
-426
-533
-566
-369
-462
-453
-484
-853
-1175
-1188
-855
-194
1375
3111
4293
4885
4375
3091
1471
91
-484
-507
-521
-413
-227
-514
-399
-209
-355
-275
-426
-478
-211
-134
-356
-332
-189
-278
-290
-497
-425
-73
-52
87
198
-97
-344
-43
318
342
193
137
401
295
247
703
538
294
874
1082
731
827
960
887
934
823
588
528
430
98
70
11
-280
-95
-145
-171
-90
-419
-303
-255
-233
-149
-322
-380
-293
-195
-479
-407
-106
-284
-314
-299
-294
-232
-471
-440
-278
-311
-261
-188
-280
-480
-237
-156
-295
-224
-139
-281
-659
-513
-250
-237
-107
-414
-352
154
-254
-298
30
-156
-124
65
-193
-235
187
-107
-127
198
-163
-263
-57
-130
-353
-654
-559
-152
-176
-464
-550
-291
-330
-697
-640
-301
-163
-284
-418
-481
-1029
-1354
-1254
-956
539
2149
3318
4542
4904
4053
2355
952
203
-471
-539
-381
-243
-219
-369
-217
-328
-392
-192
-248
-302
-362
-437
-262
-169
-226
-259
-426
-416
-95
101
-410
-381
51
6
68
-143
53
292
202
396
468
258
379
647
553
671
803
663
649
815
847
585
733
910
428
213
448
390
81
-123
-15
-105
-389
-275
-288
-435
-425
-333
-397
-677
-639
-309
-89
-255
-483
-358
-289
-384
-464
-365
-234
-352
-334
-312
-534
-535
-336
-167
-234
-372
-502
-487
-304
-308
-226
-105
-314
-453
-260
-173
-273
-261
-233
-205
-52
-241
-451
-191
-109
-106
71
79
-183
-113
23
-223
57
144
-288
-238
-166
-455
-511
-435
-430
-353
-422
-664
-557
-341
-308
-354
-524
-434
-426
-861
-1212
-1200
-999
120
1468
2346
4053
5145
4386
3005
1443
180
-446
-510
-345
-252
-173
-203
-414
-492
-463
-576
-446
-543
-540
-156
-241
-486
-276
-78
-261
-144
90
-119
-199
-12
-46
-260
-304
65
173
-22
35
162
433
483
453
480
414
732
755
494
733
851
873
871
736
766
580
327
366
349
135
24
-24
-85
-190
-419
-394
-372
-456
-342
-504
-447
-329
-453
-333
-415
-306
-249
-485
-432
-400
-420
-342
-296
-369
-360
-319
-313
-332
-370
-420
-435
-300
-370
-439
-355
-282
-456
-398
-271
-594
-338
-83
-326
-307
-165
-73
-260
-430
-63
-72
-173
-93
-313
-55
54
-108
-10
-96
-158
-307
-291
-261
-594
-655
-472
-422
-644
-644
-451
-452
-449
-467
-502
-653
-450
-354
-959
-1227
-1109
-882
67
1787
3372
4447
4987
4281
2577
930
24
-187
-575
-828
-446
-207
-219
-276
-496
-421
-226
-528
-574
-200
-279
-480
-230
-13
-387
-435
-97
-249
-101
-40
-284
-124
-10
65
-38
7
365
335
-27
82
573
516
374
456
653
841
799
958
895
646
748
732
661
663
542
326
89
94
91
-19
-39
-153
-212
-196
-394
-597
-457
-328
-361
-491
-389
-237
-393
-389
-365
-360
-290
-280
-248
-250
-450
-451
-163
-250
-293
-181
-309
-213
-326
-513
-317
-400
-437
-171
-137
-180
-183
-376
-495
-389
-246
-81
-55
-148
-179
-236
-200
-93
6
51
-26
0
-30
-180
-166
-172
-320
-451
-528
-347
-55
-241
-441
-242
-244
-507
-475
-341
-393
-447
-496
-510
-459
-512
-799
-1046
-1194
-852
235
1469
3031
4354
4710
4413
3123
1484
315
-422
-569
-531
-410
-181
-204
-379
-359
-451
-322
-167
-540
-261
-212
-721
-231
24
-341
-81
-51
-215
-59
-343
-423
-34
34
-135
-77
239
337
347
331
387
429
329
648
892
657
550
780
981
989
859
767
820
832
588
453
390
196
-49
-143
-74
-68
-132
-121
-71
-51
-22
-147
-263
-438
-372
-351
-742
-612
-370
-387
-94
-94
-540
-485
-124
-228
-293
-109
-229
-270
-107
-249
-552
-390
-165
-519
-296
37
-417
-387
-184
-325
-377
-239
-95
-208
-202
-112
-56
-123
-254
-182
-100
17
99
-135
-143
25
-246
-59
45
-347
-259
-208
-599
-764
-362
-248
-405
-376
-470
-486
-513
-713
-463
-331
-630
-613
-927
-1262
-956
-768
129
1996
3430
4451
4902
4106
2605
1009
-183
-746
-596
-177
-62
-282
-332
-279
-609
-523
-257
-254
-344
-461
-446
-544
-215
128
-199
-330
-93
-51
-234
-196
-71
-169
-97
63
-24
66
241
255
328
350
310
421
619
516
537
833
841
829
797
579
660
777
645
523
529
444
260
82
-13
39
-146
-258
-210
-304
-368
-342
-385
-371
-213
-399
-656
-516
-414
-414
-249
-312
-243
15
-233
-388
-194
-228
-338
-238
-364
-453
-179
-412
-607
-358
-213
-184
-276
-361
-257
-154
-218
-151
-132
-128
-106
-219
-125
-193
-366
18
127
-194
-16
153
-221
-144
145
189
55
-333
-406
-371
-408
-264
-389
-580
-300
-187
-499
-679
-427
-249
-317
-378
-624
-950
-1089
-1264
-1146
-234
1005
2416
4054
5064
4573
3361
2089
621
-351
-621
-435
-408
-427
-45
-319
-568
-301
-340
-357
-285
-282
-342
-361
-314
-249
-153
-304
-439
-168
-88
-218
-205
-39
22
-139
-134
-62
86
186
201
267
260
414
418
433
573
602
686
752
782
800
834
806
685
615
505
413
352
65
-132
-188
-218
-190
-138
-194
-438
-381
-184
-359
-658
-450
-417
-626
-281
-294
-304
-175
-298
-209
-173
-348
-475
-374
-316
-419
-407
-369
-416
-545
-492
-291
-291
-237
-461
-477
-158
-425
-403
-169
-340
-225
-99
-104
-96
-331
-462
-115
187
28
-213
-118
31
-62
9
-94
-315
-191
-332
-522
-510
-598
-311
-201
-461
-433
-485
-510
-305
-421
-603
-464
-335
-322
-805
-1389
-1218
-837
-70
1520
2914
4229
4998
4138
2827
1435
125
-425
-472
-217
-255
-462
-194
-352
-620
-255
-162
-330
-297
-282
-321
-352
-431
-161
-24
-240
-180
-41
-281
-474
-213
41
165
-4
-14
90
-4
107
255
357
415
405
367
365
732
702
670
1067
771
646
911
835
518
497
652
379
128
144
-6
-254
-66
-74
-443
-403
-256
-298
-381
-447
-388
-234
-239
-337
-305
-416
-484
-379
-520
-350
-163
-361
-364
-303
-305
-282
-438
-664
-357
-150
-297
-225
-274
-490
-502
-336
-285
-380
-206
-263
-472
-404
-140
61
-280
-258
-105
-216
-19
-62
-52
40
-145
-66
23
-121
-297
-413
-620
-702
-528
-456
-570
-594
-341
-537
-608
-363
-660
-676
-260
-252
-629
-757
-969
-1363
-1175
-602
453
2171
3573
4510
5013
3945
1994
761
47
-759
-1143
-580
-144
-338
-446
-390
-381
-408
-318
-450
-612
-563
-571
-378
-272
-180
-346
-840
-504
9
-207
-308
-128
-65
-47
-166
-102
48
-34
79
147
144
484
553
361
413
519
644
623
557
662
730
570
394
480
354
182
160
-64
-54
29
-130
-301
-417
-441
-500
-571
-451
-575
-844
-599
-576
-695
-399
-391
-599
-583
-485
-483
-497
-454
-395
-474
-662
-767
-817
-501
-190
-413
-411
-370
-562
-432
-406
-593
-547
-502
-605
-709
-562
-542
-807
-361
-176
-518
-444
-198
-348
-597
-246
-61
-76
-212
-369
-271
-301
-538
-706
-638
-599
-591
-731
-681
-542
-883
-820
-676
-801
-619
-670
-764
-791
-926
-736
-1047
-1638
-1444
-822
153
1578
3082
4479
4858
3823
2233
574
-377
-834
-950
-748
-617
-493
-693
-732
-736
-851
-658
-662
-665
-645
-651
-489
-562
-770
-618
-340
-455
-455
-386
-627
-608
-425
-365
-282
-213
-256
-166
-36
-117
46
189
160
277
385
486
398
382
513
367
442
657
339
145
477
135
-386
-76
20
-192
-282
-359
-640
-749
-443
-557
-738
-641
-651
-767
-825
-641
-680
-820
-583
-517
-690
-691
-591
-476
-564
-719
-639
-543
-597
-687
-498
-579
-803
-477
-539
-761
-528
-625
-606
-523
-696
-542
-483
-654
-463
-336
-397
-308
-581
-819
-508
-246
-371
-482
-309
-273
-438
-248
-219
-615
-647
-461
-600
-809
-664
-534
-662
-723
-1063
-1049
-537
-727
-916
-728
-675
-666
-968
-1741
-1826
-1026
-427
705
2254
3477
4513
4409
3215
1506
-3
-660
-837
-723
-679
-668
-631
-707
-677
-521
-604
-792
-790
-621
-400
-603
-840
-576
-394
-539
-523
-418
-520
-453
-286
-456
-528
-329
-95
27
-347
-388
-66
-82
110
281
264
220
322
469
403
686
870
557
427
336
269
445
309
8
79
0
-154
-281
-409
-466
-536
-283
-424
-785
-610
-357
-491
-762
-639
-491
-630
-577
-505
-655
-560
-471
-544
-449
-422
-415
-467
-722
-786
-497
-373
-496
-482
-356
-333
-453
-516
-365
-248
-538
-614
-389
-281
-419
-706
-314
-123
-451
-318
-290
-236
-36
-4
-12
-226
-414
-282
-125
-345
-537
-437
-480
-665
-697
-445
-460
-520
-469
-641
-553
-441
-528
-642
-566
-489
-759
-1384
-1712
-1117
-355
787
2468
3824
4520
4400
3568
2110
584
-264
-459
-345
-404
-387
-401
-406
-328
-561
-500
-373
-406
-498
-666
-380
-256
-530
-348
-61
-38
-212
-358
-397
-269
91
75
-262
-244
19
244
152
-107
197
485
449
571
578
502
659
817
787
647
673
955
819
575
711
524
286
95
-121
43
180
-219
-436
-191
-193
-309
-384
-264
-361
-463
-258
-309
-479
-753
-483
-57
-265
-434
-387
-195
-157
-318
-364
-315
-303
-319
-317
-341
-562
-722
-348
-146
-292
-312
-245
-223
-329
-306
-270
-266
-198
-324
-182
-17
-286
-421
-37
128
22
129
52
-98
-186
-150
-239
-263
11
-269
-450
-279
-496
-234
-184
-641
-419
-313
-492
-338
-354
-478
-489
-536
-514
-833
-1586
-1712
-848
80
1225
2602
3918
5089
4813
3379
1794
478
-206
-534
-470
-344
-487
-497
-283
-296
-366
-136
-166
-363
-259
-243
-224
-246
-293
-226
-600
-511
-145
-163
177
292
-35
52
236
70
117
176
178
280
106
298
626
396
443
799
902
781
774
964
1090
868
632
802
624
374
506
292
160
230
109
-76
-192
-136
-220
-411
-176
-64
-335
-288
-271
-344
-276
-303
-286
-453
-485
-275
-220
-150
-236
-359
-239
-121
-271
-169
-102
-243
-193
-358
-392
-227
-205
-78
-70
-138
-175
-245
-253
-155
-47
-111
-121
-93
-154
-201
-217
-201
131
360
95
102
204
60
145
74
-76
-118
-288
-261
-404
-487
-137
-145
-336
-189
-278
-428
-275
-255
-320
-372
-346
-376
-726
-1083
-1081
-546
310
1671
3402
4751
5120
4366
2970
1169
139
-171
-494
-333
-136
-32
-122
-304
-373
-312
-224
-403
-93
-13
-390
-67
131
-108
-97
53
15
-11
-3
-18
55
73
-45
-1
87
180
279
138
361
612
552
538
691
785
844
952
879
954
923
888
908
829
800
604
714
526
114
213
266
121
-19
-66
-147
-150
-118
-206
-313
-241
-178
-332
-298
-237
-362
-288
-286
-317
-100
-41
-185
-260
-146
-64
-269
-290
39
21
-173
-159
-385
-421
-2
-32
-199
-55
-205
-275
-105
-359
-446
54
152
-112
-107
-71
-55
61
63
-7
156
167
141
326
91
28
193
4
-184
-153
-151
-363
-233
-291
-486
-211
-415
-395
-115
-468
-411
-224
-364
-342
-492
-798
-884
-827
-378
727
2310
4016
5205
5433
4150
2402
930
-69
-341
-665
-246
72
-289
-191
-41
-121
-307
-387
-114
-69
-428
-183
265
145
-17
7
78
45
-85
-18
92
80
15
0
77
219
241
292
602
662
556
743
862
631
783
900
611
843
1065
874
832
931
931
727
826
803
403
352
314
206
168
-93
-77
-85
-313
-171
-207
-282
-203
-325
-191
-228
-351
-84
-197
-319
-139
-144
-373
-318
-123
-164
-198
-182
-74
23
-126
-226
-85
-67
87
-247
-442
-45
-167
-9
149
-239
-126
32
-106
6
-126
-220
-78
-43
9
59
184
89
93
228
73
27
61
-19
-89
-121
-170
-424
-436
-187
-353
-427
-317
-167
-233
-349
-246
-474
-386
-115
-391
-927
-1152
-908
-592
313
1710
3295
4724
5042
4401
2880
1031
50
-337
-457
-298
-124
-188
-470
-385
-183
-259
-237
-215
-162
-118
-348
-293
-211
-364
-194
6
-31
-321
-242
95
-91
-20
217
152
47
118
241
318
364
113
299
827
693
623
729
605
848
973
783
839
872
761
720
711
676
435
205
87
72
94
-194
-307
-160
-327
-503
-174
-36
-230
-427
-379
-158
-271
-288
-237
-327
-309
-187
-261
-444
-250
-142
-132
-107
-348
-429
-295
-134
-262
-309
-66
-66
-141
-333
-407
-213
-316
-150
137
-56
-71
-92
-146
90
-35
-158
50
-131
-112
256
140
-98
58
24
-176
-54
-23
-78
-386
-520
-144
-197
-399
-259
-329
-537
-361
-295
-326
-354
-552
-433
-559
-1107
-1150
-911
-401
1051
2633
3841
4723
4680
3640
2123
691
-125
-525
-666
-198
-76
-357
-294
-274
-300
-318
-391
-258
-482
-471
-36
-119
-232
-168
-184
-170
-158
-349
-150
69
-68
-63
29
134
239
189
93
200
315
262
351
652
769
631
568
752
934
1014
786
644
708
598
723
588
292
244
131
99
-31
-69
-261
-491
-173
-288
-569
-368
-325
-273
-261
-292
-168
-347
-441
-351
-752
-602
-12
-180
-414
-433
-403
-309
-332
-364
-238
-428
-470
-162
-266
-419
-300
-198
-347
-417
-246
-237
-267
-368
-359
-83
-55
1
16
-284
-234
-45
-176
-141
-9
22
-100
-47
197
37
-163
-52
-105
-331
-263
-255
-451
-471
-293
-388
-561
-502
-466
-424
-365
-267
-322
-543
-930
-1134
-1004
-939
-349
1038
2751
4233
5045
4908
3878
2007
297
-34
-379
-684
-195
-97
-326
-362
-528
-306
-38
-352
-356
-395
-484
-63
-100
-266
-40
-241
-300
-135
-179
-103
-100
-43
17
-42
139
178
149
239
175
291
440
630
602
619
882
701
734
908
945
1053
784
831
986
712
604
435
249
291
49
-338
-38
125
-271
-328
-327
-347
-153
-234
-546
-545
-148
-39
-349
-379
-230
-454
-468
-255
-359
-444
-471
-457
-191
-38
-326
-394
-240
-284
-198
-265
-491
-368
-200
-320
-357
-214
-234
-169
-399
-644
-263
-335
-210
276
-313
-480
-1
-151
19
139
-20
131
146
86
74
-58
-49
-20
-164
-278
-417
-553
-455
-238
-172
-457
-558
-236
-221
-329
-277
-235
-202
-195
-383
-794
-1327
-1249
-471
835
2372
3666
5005
5429
4331
2607
1034
50
-384
-500
-308
-159
-254
-165
-129
-389
-282
-145
-179
-63
-72
-61
-218
-266
10
-100
-60
75
-180
-164
101
203
286
340
55
-165
174
394
366
583
723
349
451
916
591
740
1052
1035
941
786
1239
1010
698
773
525
720
637
255
197
77
-25
-32
-47
-282
-389
-70
-105
-398
-286
-87
-199
-378
-370
-254
-59
-211
-559
-307
-230
-232
-77
-281
-420
-277
-209
-263
-93
-269
-632
-199
-5
-332
-156
-126
-244
-43
-165
-413
-400
-256
-113
-64
-76
-283
-193
11
-202
-177
11
-153
-94
227
188
50
-18
20
-58
-321
-219
-92
-293
-431
-382
-397
-380
-403
-421
-390
-304
-228
-535
-570
-665
-799
-556
-782
-1157
-995
-468
474
2150
3430
4467
4865
3876
2634
1146
-109
-638
-458
-232
-384
-278
-268
-497
-327
-357
-689
-487
-282
-286
-90
-100
-226
-309
-404
-325
-205
-59
-199
-359
-130
-96
-72
-27
21
205
78
194
481
255
280
546
400
378
603
591
839
1096
798
757
842
718
664
699
530
225
149
120
-85
-370
-390
14
-23
-399
-301
-398
-544
-249
-349
-528
-385
-324
-364
-693
-440
-101
-350
-275
-180
-280
-351
-518
-417
-188
-297
-439
-208
-427
-794
-260
-263
-456
-230
-315
-276
-267
-628
-466
-201
-274
-138
-220
-278
-157
-114
-195
-108
7
-30
60
-197
-239
-4
-133
-122
-256
-341
-234
-426
-374
-298
-319
-303
-556
-524
-259
-379
-557
-592
-496
-481
-557
-573
-1024
-1443
-1382
-804
191
1324
2811
4229
4955
4556
3240
1384
30
-215
-395
-374
-295
-372
-407
-433
-318
-329
-372
-342
-251
-452
-481
-174
-310
-317
-173
-114
-92
-346
-455
-244
-13
-17
35
188
10
0
79
126
406
492
351
293
545
693
495
749
988
774
810
950
976
962
655
634
744
337
185
148
25
-42
-120
-338
-379
-166
-272
-218
-245
-435
-196
-254
-432
-287
-115
-290
-476
-309
-416
-547
-295
-360
-714
-310
151
-220
-426
-271
-239
-219
-461
-307
-231
-523
-453
-464
-279
-277
-536
-527
-329
-174
-177
-130
-169
-79
-61
-252
-143
-116
-113
-22
-267
-177
159
122
-165
-315
20
128
-164
-309
-287
-352
-449
-421
-346
-342
-316
-367
-744
-633
-369
-498
-432
-376
-629
-985
-1132
-1257
-819
632
2018
3290
4654
4980
4148
2645
811
-347
-518
-376
-411
-245
-282
-513
-391
-565
-554
-356
-424
-368
-337
-232
-280
-318
-136
-241
-201
-150
-372
-291
-193
-186
-87
-112
-76
-41
-111
28
327
318
-79
62
607
562
603
729
602
746
951
941
937
709
461
625
556
423
181
-77
135
71
-139
-114
-165
-416
-616
-346
-265
-455
-466
-621
-535
-429
-393
-219
-278
-363
-373
-362
-513
-521
-378
-512
-416
-283
-382
-359
-349
-301
-414
-532
-316
-347
-343
-230
-463
-602
-499
-362
-363
-280
-280
-466
-426
-281
-192
-148
-203
-335
-466
-328
-79
-214
-40
140
-83
-38
20
-37
-95
-239
-290
-461
-737
-363
-310
-723
-472
-325
-559
-572
-588
-580
-491
-395
-537
-579
-491
-1016
-1395
-1400
-1136
-402
820
2482
3816
4755
5038
3787
1875
598
-144
-705
-655
-246
-276
-538
-632
-487
-408
-392
-474
-409
-282
-401
-266
-190
-474
-569
-257
-66
-262
-546
-386
-116
-165
-5
137
-109
-214
77
378
225
152
338
357
443
442
350
448
751
916
790
684
768
689
649
552
251
104
-173
226
498
-120
-277
-164
-140
-258
-495
-439
-255
-278
-473
-692
-723
-378
-382
-780
-487
-201
-422
-486
-501
-404
-306
-353
-440
-366
-447
-544
-418
-543
-416
-245
-672
-605
-194
-261
-319
-383
-469
-491
-275
-347
-575
-526
-451
-401
-529
-310
-158
-194
-118
-250
-236
-148
-82
-4
-249
-317
-48
12
1
-255
-484
-323
-533
-766
-416
-230
-413
-591
-593
-443
-413
-449
-619
-638
-318
-397
-680
-693
-908
-1377
-1447
-1037
238
2108
3606
4935
5314
3966
2230
806
-198
-577
-795
-699
-364
-381
-428
-407
-533
-676
-545
-429
-403
-328
-444
-310
-207
-551
-559
-117
-232
-381
-168
-159
-118
-282
-313
-169
-227
208
246
-25
281
246
357
544
355
640
798
656
807
759
723
887
824
623
531
491
129
56
308
5
-150
37
-127
-304
-242
-301
-447
-369
-445
-582
-342
-239
-471
-580
-553
-478
-484
-508
-500
-542
-340
-166
-415
-486
-248
-222
-286
-393
-487
-288
-253
-345
-367
-511
-485
-365
-538
-807
-354
19
-295
-453
-351
-188
-128
-395
-352
-88
-347
-431
-173
-163
-236
48
-14
-420
-219
-82
-131
-51
-48
-227
-561
-511
-384
-431
-449
-576
-565
-448
-449
-469
-422
-624
-883
-609
-400
-454
-643
-973
-1258
-1383
-753
559
2202
3689
4572
4794
3888
2246
313
-674
-375
-469
-426
-410
-571
-447
-770
-495
-95
-483
-546
-514
-355
-468
-823
-436
-212
-459
-390
-251
-455
-464
-190
-224
-305
-62
-174
-330
-50
-80
-168
54
309
154
131
638
715
526
446
500
703
864
817
671
604
554
325
107
237
323
-96
-373
-162
-379
-511
-278
-294
-456
-534
-454
-473
-564
-535
-578
-596
-477
-320
-467
-649
-360
-430
-652
-320
-205
-536
-492
-369
-569
-464
-371
-610
-478
-384
-441
-466
-643
-439
-245
-395
-423
-462
-542
-469
-438
-499
-690
-461
-60
-217
-310
-191
-263
-274
-212
-231
-184
-285
-164
162
-267
-650
-28
229
-243
-398
-145
-174
-587
-648
-253
-297
-655
-595
-509
-499
-486
-645
-500
-360
-448
-588
-919
-1173
-1234
-866
126
1427
2844
4370
5172
4457
3009
1329
88
-225
-547
-455
-195
-456
-546
-266
-224
-449
-312
-244
-445
-539
-436
-413
-442
-240
-147
-167
-107
42
-77
-283
20
97
-158
135
152
-128
157
299
496
805
441
557
841
667
1116
1113
750
1086
1403
1064
910
1030
796
649
522
392
486
334
49
171
-3
-349
-156
-212
-428
-204
-207
-629
-1087
-535
285
-48
-303
-156
-480
-540
-262
-302
-355
-397
-370
-401
-464
-416
-670
-777
-497
-207
-131
-306
-317
-468
-518
-281
-351
-501
-438
-466
-635
-660
-380
-288
-602
-407
25
-134
-382
-338
-142
-274
-289
-28
-538
-207
306
-174
-239
10
-173
-478
-289
-248
-334
-607
-574
-280
-626
-767
-400
-412
-634
-561
-681
-553
-442
-621
-618
-1267
-1654
-1382
-939
342
2001
3401
4404
4820
4095
2396
740
-187
-672
-925
-1040
-668
-162
-471
-500
-481
-691
-535
-477
-526
-474
-403
-420
-498
-612
-591
-441
-529
-500
-242
-128
-349
-568
-339
-9
37
86
186
-35
115
314
223
392
437
393
520
647
800
958
902
724
754
837
602
561
532
242
108
-22
-52
-78
-223
-292
-253
-310
-303
-194
-340
-345
-307
-555
-382
-33
-197
-307
-280
-437
-399
-95
-24
-219
-220
-144
-277
-263
-193
-207
-90
-149
-378
-296
-169
-233
-153
-71
-32
36
-47
-222
-161
69
-79
-39
201
-161
-155
208
146
102
151
109
51
29
131
257
224
-131
-219
72
-67
-410
-304
-70
-167
-173
-271
-267
-225
-414
-403
-339
-241
-211
-303
-521
-932
-1105
-646
104
1513
3377
4656
5226
4649
3203
1483
323
-135
-422
-210
-172
-139
-36
-261
-373
-290
-46
-144
-177
-4
-95
-59
100
102
-17
-43
-20
-84
-44
50
-115
-62
367
232
46
206
301
437
530
558
582
762
787
697
961
968
804
1243
1400
1093
1070
888
864
791
629
461
105
416
554
247
1
-54
185
66
-120
-126
-144
-87
38
-99
-300
-216
-290
-72
-23
-430
-273
120
100
-15
26
-7
-23
-58
-273
-330
-89
94
97
-10
-31
64
46
75
22
-272
-119
80
-185
-138
4
4
86
106
180
217
73
151
195
176
271
-31
96
404
57
-82
-10
-122
-139
-94
-366
-484
-225
-164
-336
-304
-42
-112
-220
-155
-416
-710
-868
-1124
-833
-30
1001
2549
4045
4955
4831
3684
2112
729
-63
-419
-439
-153
-15
-107
-136
-130
-179
-420
-223
59
-272
-263
-36
-254
-213
2
-108
-233
-93
-113
-142
-39
-18
186
109
-61
-42
48
422
528
334
560
592
534
654
659
838
875
975
1037
941
996
791
813
763
402
492
579
360
75
-111
-224
-82
79
-82
-217
-264
-411
-278
-151
-478
-300
-6
-440
-489
-20
-49
-328
-384
-125
-100
-354
-364
-256
-199
-396
-479
-201
-68
-70
-208
-271
-105
-219
-292
-168
-382
-313
18
-27
-128
-120
-240
-174
63
35
7
-49
-88
100
312
7
-180
-2
78
-103
-321
-383
-330
-187
-369
-318
-85
-397
-758
-354
-137
-323
-425
-588
-247
-323
-1068
-1173
-944
-788
-142
1155
2476
3882
5126
4560
3141
1978
439
-424
-370
-439
-470
-215
-170
-206
-232
-383
-255
-295
-503
-245
-188
-379
-385
-345
-154
-54
-204
-225
-24
83
49
-35
28
24
-42
101
136
252
211
213
405
451
665
747
700
698
688
831
934
1027
1060
964
813
585
527
411
338
299
96
53
-49
-194
-173
-132
-94
-191
-398
-262
-35
-129
-460
-556
-105
16
-320
-261
-75
-92
-190
-350
-179
-68
-258
-263
-86
-138
-395
-289
-117
-114
0
-172
-219
-45
-237
-241
-313
-359
13
59
-140
-106
-45
-91
-63
1
104
148
-73
-50
178
200
185
39
-15
-103
-220
-91
-63
-295
-413
-297
-282
-323
-454
-432
-251
-376
-380
-79
-222
-539
-654
-1039
-1074
-654
111
1455
2893
4147
4925
4551
3056
1554
367
-316
-425
-467
-298
-206
-180
-80
-326
-380
-306
-409
-262
-91
1
40
-184
-255
-91
-207
-142
-68
-352
-68
267
-56
1
307
70
92
420
362
167
298
451
461
708
723
609
708
839
952
967
1026
889
654
450
549
844
638
294
154
41
29
-108
-281
-132
-386
-446
-11
-83
-230
-248
-299
-295
-105
-157
-395
-244
-303
-400
-258
-276
-344
-316
-288
-155
-154
-272
-239
-180
-257
-416
-190
-120
-339
-431
-528
-246
4
-179
-273
-133
-153
-187
2
4
-94
-181
-273
-410
-119
36
-257
90
254
31
22
-6
-188
-216
-178
-371
-276
-281
-712
-647
-438
-543
-439
-298
-297
-461
-478
-593
-557
-380
-851
-1189
-1179
-878
-190
1107
2765
4002
4737
4413
3050
1399
-4
-611
-581
-459
-214
-215
-298
-399
-427
-527
-728
-344
-202
-316
-333
-326
-164
-264
-341
-308
-325
-194
-297
-237
-104
-162
-8
-6
-112
66
174
56
207
184
226
530
423
467
680
728
768
648
394
638
987
814
610
469
436
382
116
-161
-174
4
-44
-269
-541
-462
-188
-346
-400
-303
-442
-485
-351
-313
-383
-370
-451
-372
-449
-747
-302
-187
-515
-295
-377
-533
-376
-269
-204
-333
-383
-385
-536
-492
-412
-425
-469
-512
-532
-314
-169
-414
-432
-316
-304
-191
-261
-430
-315
-210
-150
-126
-122
68
-130
-309
-88
-15
-183
-488
-467
-282
-393
-589
-483
-472
-630
-729
-601
-309
-441
-506
-333
-438
-746
-726
-742
-1186
-1212
-811
-133
1102
2786
4236
4957
4612
3203
1594
279
-434
-700
-590
-350
-359
-387
-432
-396
-272
-251
-369
-501
-617
-503
-267
-248
-253
-340
-281
-192
-254
-194
-48
-54
-191
-118
-80
-68
139
191
43
208
313
102
315
580
564
590
614
719
846
818
789
768
871
781
423
467
505
269
88
23
-5
-189
-319
-270
-391
-403
-197
-213
-340
-472
-481
-497
-500
-228
-281
-360
-346
-480
-366
-304
-250
-244
-306
-177
-251
-527
-233
-54
-401
-375
-331
-470
-406
-279
-255
-268
-412
-436
-258
-318
-283
-140
-423
-598
-144
0
-190
-242
-222
33
58
-69
2
-47
-176
-119
-122
-116
-220
-461
-321
-235
-419
-486
-362
-354
-583
-636
-432
-483
-558
-322
-287
-418
-534
-999
-1253
-1008
-723
-64
1392
3186
4468
5097
4518
2951
1086
-128
-385
-694
-578
-242
-360
-456
-244
-490
-575
-314
-444
-388
-285
-191
-141
-297
-515
-308
21
-87
-272
-290
-178
-68
-259
-167
128
2
128
263
312
178
126
389
429
522
587
540
519
679
811
987
1050
596
606
840
458
345
505
331
155
8
-172
-156
-157
-279
-333
-301
-339
-431
-314
-282
-475
-487
-413
-200
-188
-393
-230
-452
-642
-153
-88
-285
-246
-307
-459
-429
-171
-221
-400
-279
-217
-214
-447
-467
-119
-78
-194
-379
-404
-206
-218
-215
-83
-88
-119
-218
-112
-177
-470
97
242
-126
38
18
-15
37
-1
-360
-509
-204
-185
-315
-486
-416
-317
-558
-416
-351
-402
-275
-478
-526
-451
-504
-883
-1284
-1215
-787
-14
1276
2738
4008
4976
4548
3202
1560
205
-259
-597
-444
-251
-497
-172
-124
-523
-266
-297
-596
-338
-258
-381
-308
-193
-166
-278
-383
-228
-189
-228
-64
-115
-290
6
270
-132
-74
355
346
59
149
486
372
330
613
711
637
623
843
1082
822
775
910
671
514
464
387
207
-46
-51
93
-131
-338
-132
-239
-387
-294
-440
-454
-330
-356
-214
-160
-283
-367
-324
-309
-477
-350
-166
-358
-508
-339
-259
-365
-282
-154
-229
-490
-250
-48
-288
-291
-485
-354
-221
-396
-301
-303
-456
-399
-47
-44
-108
-130
-352
-179
-72
-87
-28
-244
-194
138
162
81
70
-136
-150
-172
-359
-272
-240
-443
-517
-264
-331
-377
-222
-467
-483
-282
-343
-478
-504
-554
-906
-1278
-1050
-803
-189
1419
3026
4361
5047
4378
3008
1431
186
-355
-658
-370
15
-243
-377
-192
-199
-452
-633
-311
-10
-223
-442
-268
-189
-329
-115
-164
-441
-239
-119
-174
-70
-1
1
90
21
-165
246
477
237
331
445
151
179
652
744
785
873
849
925
924
854
773
694
509
312
358
195
-109
-45
161
-86
-583
-396
-92
-262
-322
-351
-451
-348
-368
-429
-243
-530
-625
-244
-365
-311
-190
-419
-302
-108
-248
-462
-596
-443
-190
-191
-364
-544
-421
-211
-292
-234
-81
-262
-638
-493
-189
-446
-295
-89
-253
-53
-83
-310
-268
-166
-94
-72
-99
-81
54
21
-76
-38
-6
-4
-316
-671
-421
-321
-438
-312
-379
-368
-401
-545
-421
-421
-601
-515
-376
-418
-595
-979
-1254
-1314
-1067
82
1611
2973
4346
4877
4304
2752
1080
281
-307
-560
-514
-369
-192
-460
-678
-284
8
-210
-342
-320
-351
-422
-366
-231
-298
-401
-192
-162
-281
-242
-178
-90
-142
-257
26
173
-7
59
149
241
352
430
517
540
601
735
737
804
802
700
752
803
845
656
348
481
549
304
179
-34
-121
-60
-337
-346
-124
-376
-493
-378
-365
-248
-265
-429
-397
-359
-483
-519
-289
-191
-411
-298
-258
-607
-480
-243
-188
-252
-528
-403
-136
-148
-294
-328
-213
-509
-466
-136
-381
-349
-371
-351
-114
-338
-291
-179
-343
-118
-15
-237
-220
-136
-158
-70
127
67
-294
-99
30
-476
-262
-10
-203
-253
-383
-426
-476
-434
-339
-381
-366
-408
-482
-549
-539
-444
-501
-632
-950
-1296
-1013
-241
1030
2696
4041
5034
4926
3667
2052
529
-427
-791
-569
-292
-155
-87
-191
-412
-488
-388
-207
-298
-480
-194
-123
-342
-304
-226
-214
-77
-71
-248
-270
-78
44
-33
-195
-46
370
252
145
404
321
427
691
553
549
632
624
682
781
941
867
653
636
646
684
629
497
457
359
134
67
29
-197
-375
-282
-77
-299
-469
-298
-449
-650
-447
-263
-246
-287
-338
-350
-270
-249
-490
-380
-219
-358
-246
-136
-222
-316
-394
-333
-281
-247
-174
-308
-292
-393
-462
-84
-211
-366
-231
-395
-266
99
-43
-400
-199
-6
-135
-73
-66
-131
-136
64
106
-40
79
66
-133
-332
-396
-334
-293
-375
-487
-492
-350
-264
-376
-491
-410
-245
-421
-484
-461
-526
-793
-1073
-1015
-769
409
2155
3409
4589
5217
4264
2426
679
-13
-302
-769
-586
-154
-113
-292
-337
-352
-270
-365
-481
-285
-348
-217
-239
-476
-108
-216
-540
-126
42
-192
-10
74
-154
-113
-27
93
328
165
131
232
275
340
358
636
849
804
586
719
833
739
815
871
847
695
579
235
138
299
113
27
-194
-316
-92
-137
-280
-211
-228
-273
-290
-345
-478
-496
-306
-360
-455
-368
-281
-209
-269
-308
-198
-369
-256
-239
-508
-215
-309
-516
-193
-128
-223
-321
-407
-101
-92
-421
-393
-255
-203
-242
-269
3
-39
-445
-395
-135
-25
49
136
153
105
-43
-173
125
-137
-678
-247
-179
-465
-338
-339
-344
-257
-340
-473
-431
-304
-350
-502
-461
-459
-464
-722
-1256
-1285
-957
-430
1100
3026
4163
4942
4816
3226
1505
522
-248
-635
-409
-175
-220
-463
-394
-274
-257
-388
-474
-196
-354
-481
-235
-276
-288
-104
-167
-225
-118
-123
-136
-4
-117
-332
33
263
144
88
101
157
-5
275
734
591
635
757
770
776
676
847
862
679
874
678
375
632
450
245
80
-287
-70
-97
-312
-148
-255
-293
-193
-358
-491
-303
-218
-352
-436
-426
-501
-449
-333
-516
-424
-248
-363
-381
-325
-291
-460
-404
-175
-301
-454
-395
-290
-361
-278
-280
-375
-355
-346
-214
-280
-439
-130
-332
-635
-20
-4
-267
-173
-110
-175
-153
89
-122
-95
15
-166
-143
-417
-565
-480
-539
-431
-513
-537
-440
-493
-638
-778
-680
-481
-422
-584
-627
-896
-1172
-1145
-997
-258
1089
2500
3820
4873
4474
3138
1660
250
-478
-662
-449
-340
-416
-476
-464
-384
-464
-499
-438
-482
-532
-656
-496
-212
-209
-205
-371
-379
-250
-373
-188
-225
-477
-319
-249
-166
89
153
102
197
199
162
404
456
259
530
595
483
873
847
545
741
910
646
342
373
283
111
55
-226
-253
-349
-588
-272
-90
-286
-278
-381
-668
-499
-242
-364
-466
-401
-354
-426
-608
-507
-294
-320
-481
-632
-396
-322
-359
-268
-384
-419
-302
-518
-505
-230
-508
-551
-378
-362
-441
-566
-356
-187
-502
-444
61
-1
-451
-456
-154
-24
-159
-235
-135
-206
-157
-80
-176
-217
-343
-348
-361
-546
-587
-556
-493
-546
-681
-548
-597
-594
-427
-685
-695
-466
-653
-1190
-1346
-1131
-502
978
2632
3903
4663
4697
3305
1267
224
-115
-391
-577
-509
-332
-276
-346
-447
-491
-514
-430
-373
-406
-484
-366
-242
-249
-278
-400
-379
-263
-143
-190
-298
-206
-146
-169
11
137
78
0
-29
184
310
494
655
494
667
792
660
685
776
855
733
710
735
486
343
328
213
73
-30
-77
-139
-396
-365
-270
-386
-258
-311
-597
-715
-455
-188
-327
-380
-311
-380
-508
-371
-215
-487
-487
-290
-361
-414
-316
-398
-579
-342
-342
-486
-260
-367
-310
-92
-204
-165
-299
-504
-247
-145
-320
-369
-315
-336
-291
-67
-152
-106
-2
-165
4
86
-199
-120
112
-114
-237
-186
-396
-450
-476
-641
-406
-318
-542
-419
-359
-374
-347
-630
-613
-247
-549
-1050
-1296
-1308
-481
783
2229
3794
4965
5156
4072
2518
1047
-178
-710
-706
-627
-385
-133
-253
-325
-286
-387
-240
-204
-606
-543
-57
-126
-288
-221
-384
-435
-258
-289
-177
41
8
-106
-148
46
216
147
143
341
366
452
494
330
496
675
592
605
827
802
812
947
783
704
630
470
296
351
212
-172
-13
74
-168
-213
-135
-302
-486
-422
-290
-259
-384
-466
-360
-310
-429
-405
-327
-398
-420
-290
-234
-415
-366
-233
-275
-450
-514
-293
-253
-276
-323
-317
-228
-268
-429
-403
-231
-299
-300
-260
-229
-216
-330
-247
-116
-137
-224
-186
6
-1
-66
-52
73
71
-105
-166
-389
-420
-305
-354
-373
-561
-595
-442
-426
-394
-423
-558
-527
-332
-426
-503
-599
-991
-1249
-1036
-343
642
2182
3725
4859
4870
3697
2242
423
-487
-472
-717
-544
-244
-386
-475
-396
-285
-400
-540
-497
-252
-143
-482
-545
-174
-85
-260
-354
-326
-90
-91
-286
-137
-3
-19
116
46
-56
58
231
455
435
338
512
652
541
540
783
747
786
917
701
675
778
700
504
213
309
335
-122
-152
-17
-244
-225
-244
-460
-163
-181
-456
-360
-304
-306
-386
-357
-384
-416
-188
-340
-459
-298
-405
-297
-244
-436
-342
-242
-307
-410
-264
-272
-397
-90
-236
-473
-288
-388
-303
-151
-226
-28
-71
-328
-275
-369
-343
111
146
-73
55
91
-165
-275
-232
-83
64
-153
-381
-379
-371
-446
-373
-288
-343
-324
-486
-571
-675
-576
-292
-347
-503
-803
-1036
-1163
-1215
-352
1224
2736
4144
4809
4364
3192
1673
266
-317
-451
-587
-342
-272
-257
-97
-345
-591
-253
-289
-466
-185
-275
-412
-242
-206
-358
-286
-88
-294
-563
-201
88
-11
15
-151
-117
56
41
208
245
557
596
127
299
594
599
825
771
612
800
913
714
647
798
645
375
62
129
341
-59
-363
-219
-274
-478
-257
-44
-414
-577
-357
-480
-487
-312
-353
-265
-242
-528
-619
-302
-283
-387
-318
-380
-380
-310
-300
-443
-385
-358
-452
-381
-537
-475
-328
-276
-228
-384
-394
-336
-311
-156
-34
-217
-228
-215
-495
-293
168
-64
-351
-93
88
11
-115
-254
-272
-252
-216
-274
-583
-502
-384
-560
-419
-430
-652
-477
-441
-595
-346
-325
-578
-797
-1109
-1184
-988
-731
254
2006
3331
4437
5058
4017
2095
847
147
-510
-574
-380
-286
-280
-273
-462
-637
-359
-506
-667
-350
-304
-229
-51
-200
-279
-312
-265
-192
-396
-236
-67
-150
-84
-333
-316
156
311
332
203
118
231
329
441
619
665
555
578
744
1054
1132
846
691
695
559
424
298
310
260
-26
-16
-63
-386
-522
-333
-242
-440
-363
-356
-365
-305
-683
-636
-280
-296
-326
-436
-526
-219
-266
-636
-412
-242
-410
-414
-451
-415
-353
-415
-289
-461
-573
-299
-357
-327
-289
-510
-418
-278
-348
-379
-262
-168
-286
-414
-443
-159
111
-4
43
37
-191
-37
154
17
-123
-235
-439
-466
-365
-427
-405
-317
-529
-679
-453
-328
-407
-590
-610
-396
-463
-808
-1023
-1064
-1150
-761
741
2504
3781
4835
5066
4138
2606
898
-160
-490
-651
-443
-207
-376
-411
-362
-351
-421
-536
-311
-238
-401
-290
-248
-290
-354
-298
-120
-201
-220
-164
-212
-293
-40
132
-108
8
250
116
-38
393
611
329
616
819
661
670
578
919
1234
854
792
867
533
534
667
514
484
139
-100
33
-95
-240
-273
-301
-239
-297
-414
-380
-367
-254
-390
-543
-401
-314
-446
-693
-454
-38
-125
-365
-373
-246
-238
-396
-244
-126
-450
-357
-131
-330
-255
-192
-437
-316
-390
-738
-489
-17
29
-120
-144
-132
-211
-62
-107
-434
-136
85
16
-172
-118
93
-79
-21
98
-206
-331
-220
-453
-718
-540
-326
-547
-364
-145
-379
-460
-480
-576
-668
-445
-245
-804
-1412
-1125
-400
565
2043
3527
4671
5030
4009
2469
889
-259
-393
-601
-741
-375
-257
-390
-322
-148
-405
-472
-309
-434
-420
-275
-140
-222
-258
-363
-437
52
48
-288
-146
-97
-199
87
190
-69
-7
221
342
137
327
672
471
475
633
753
835
919
988
763
787
842
709
703
552
302
-1
141
304
10
-101
-236
-264
-157
-270
-341
-375
-384
-438
-564
-613
-562
-424
-216
-258
-490
-292
-175
-372
-463
-389
-258
-236
-208
-353
-602
-455
-250
-328
-217
-183
-335
-385
-429
-331
-337
-278
-169
-270
-313
-375
-202
-100
-232
-277
-94
16
-283
-143
97
-79
-118
-86
-173
-186
-300
-339
-266
-415
-543
-526
-462
-677
-600
-479
-534
-412
-507
-589
-686
-693
-931
-1213
-1023
-800
122
1730
3029
4286
4932
4135
2662
1113
37
-613
-886
-348
-57
-388
-524
-393
-235
-567
-700
-319
-269
-195
-492
-572
-96
-128
-368
-217
-243
-402
-88
-82
-209
-123
-153
-12
142
-103
-145
181
191
304
338
368
726
621
628
855
828
830
739
572
685
779
557
508
385
127
209
45
-167
-53
-233
-307
-217
-309
-384
-397
-340
-403
-346
-502
-652
-300
-267
-419
-427
-435
-561
-420
-343
-454
-280
-350
-361
-389
-585
-232
-129
-619
-428
-237
-605
-445
-147
-268
-627
-474
-86
-162
-249
-326
-226
-162
-251
-166
-228
-161
-231
-421
81
127
-278
-87
108
-309
-460
-269
-449
-550
-454
-392
-633
-695
-414
-481
-483
-420
-743
-750
-292
-420
-874
-1186
-1285
-949
-120
1232
2588
3926
4786
4552
3007
1165
546
-68
-565
-243
-306
-544
-478
-224
-300
-781
-648
-297
-465
-455
-309
-419
-419
-214
-204
-200
-124
-259
-323
-225
-161
-43
26
-221
-136
83
0
77
197
193
322
587
684
505
518
745
818
796
807
893
919
749
456
298
369
232
7
177
153
-190
-274
-377
-379
-215
-580
-530
-209
-252
-217
-450
-542
-446
-546
-484
-372
-301
-510
-656
-289
-210
-344
-478
-447
-319
-411
-411
-293
-402
-557
-328
-370
-492
-337
-362
-389
-472
-429
-176
-299
-262
-101
-397
-248
-96
-171
-60
-170
-54
6
-137
-110
-196
-73
-87
-301
-229
-274
-414
-480
-487
-635
-565
-261
-380
-480
-466
-549
-398
-462
-522
-740
-1377
-1357
-997
-446
661
2114
3742
4886
4904
3704
2006
605
-249
-476
-370
-414
-461
-181
-336
-558
-422
-370
-387
-539
-423
-294
-304
-300
-475
-350
-224
-245
14
-85
-239
8
-124
-377
-227
-154
76
293
169
148
196
396
655
442
347
879
911
800
754
559
935
1005
800
729
648
458
237
481
252
-272
-331
-298
-146
-271
-339
-418
-474
-258
-421
-476
-479
-559
-453
-408
-398
-383
-409
-502
-495
-368
-463
-470
-218
-430
-540
-315
-390
-499
-426
-463
-442
-236
-367
-295
-93
-558
-672
-241
-278
-453
-286
-102
-205
-308
-273
-109
-133
-325
-162
77
-125
-125
93
-93
-52
-3
-298
-356
-291
-407
-552
-496
-350
-561
-700
-453
-459
-580
-409
-361
-415
-445
-549
-637
-1044
-1337
-1006
-133
1255
2679
3952
5010
4888
3372
1694
403
-494
-762
-570
-226
-148
-390
-413
-428
-491
-481
-657
-393
-184
-322
-214
-315
-491
-363
-303
-267
-192
-272
-217
-112
-196
-305
-106
90
158
192
50
191
395
375
451
536
654
680
519
648
816
825
942
898
725
529
530
528
300
176
79
61
-58
-310
-207
-163
-481
-567
-390
-331
-319
-346
-528
-468
-493
-635
-303
-251
-504
-516
-345
-140
-293
-441
-440
-485
-274
-180
-331
-316
-266
-406
-223
-173
-672
-383
-36
-245
-344
-275
-186
-342
-371
-224
-180
-282
-274
-105
-22
-10
-101
-34
-18
-221
-91
-8
-208
-128
-44
-415
-559
-328
-269
-257
-271
-515
-541
-494
-655
-408
-416
-688
-389
-363
-747
-1010
-1162
-1018
-781
63
1838
3437
4285
4853
4380
2531
1106
64
-660
-601
-614
-410
-264
-496
-404
-426
-507
-372
-579
-530
-313
-442
-259
-213
-368
-293
-134
-164
-270
-145
-227
-296
-25
12
-126
-30
177
191
268
221
77
454
511
452
712
674
717
693
711
854
662
743
873
639
391
436
385
114
102
-56
-136
-146
-231
-419
-511
-186
-344
-751
-553
-307
-613
-479
-113
-157
-381
-486
-267
-312
-469
-442
-257
-266
-537
-416
-282
-414
-440
-275
-189
-235
-196
-175
-352
-561
-342
-180
-305
-301
-280
-308
-397
-313
-99
-77
-209
-155
-92
-110
34
136
3
-287
-248
-121
-182
-188
-306
-578
-585
-431
-423
-424
-490
-425
-400
-730
-502
-231
-758
-799
-408
-791
-1228
-1116
-955
-371
974
2401
3762
4758
4632
3656
2102
566
-274
-882
-835
-163
-196
-417
-431
-537
-400
-269
-464
-554
-204
-179
-438
-309
-286
-331
-342
-412
-226
-255
-225
28
-285
-274
0
-155
-100
46
268
454
218
263
621
529
303
534
823
771
773
925
963
753
802
918
515
275
319
401
163
-84
81
-118
-305
-218
-256
-317
-398
-432
-283
-354
-546
-277
-237
-406
-472
-519
-297
-240
-360
-463
-434
-188
-383
-606
-334
-354
-355
-189
-431
-434
-130
-249
-447
-335
-358
-503
-358
-270
-277
-216
-101
-226
-289
-108
-386
-383
46
-25
-152
-51
-77
-65
65
41
-152
-319
-327
-343
-450
-489
-495
-450
-463
-439
-393
-476
-590
-548
-362
-410
-568
-656
-799
-1043
-1083
-663
42
1309
2890
4251
4999
4405
2784
1315
336
-377
-389
-155
-257
-378
-250
-256
-638
-438
-321
-581
-335
-125
-274
-333
-143
-220
-366
-265
-201
-229
-292
-142
-35
-182
-104
134
69
-125
55
156
20
368
633
497
541
698
596
475
912
1063
858
922
711
739
974
644
259
257
283
61
-152
-94
-194
-348
-609
-503
92
-281
-527
-264
-391
-459
-481
-350
-249
-345
-419
-442
-361
-397
-567
-473
-269
-528
-530
-214
-209
-335
-559
-353
-287
-610
-389
-239
-335
-133
-190
-454
-451
-247
-83
-269
-247
-16
-126
-250
-279
-379
-223
126
14
-138
-64
-127
-61
26
-3
-146
-356
-438
-394
-367
-367
-398
-448
-467
-379
-365
-627
-696
-403
-467
-471
-367
-811
-1259
-1330
-854
376
1847
3061
4308
4910
4233
2767
1354
276
-562
-406
-360
-685
-272
-84
-257
-288
-358
-371
-296
-416
-487
-314
-315
-385
-188
-56
-151
-384
-421
-267
-86
60
-71
-157
159
97
-284
-3
271
224
411
427
391
585
466
612
1095
1026
784
869
821
782
1035
752
270
419
405
171
16
-160
10
-97
-360
-379
-343
-336
-665
-437
-86
-240
-383
-437
-387
-409
-373
-356
-371
-484
-501
-390
-353
-350
-424
-433
-419
-288
-186
-350
-398
-369
-407
-341
-329
-375
-474
-247
-137
-368
-444
-311
-104
-293
-284
-180
-241
-99
-260
-246
-24
-64
-41
-15
-18
-44
-22
65
-114
-324
-222
-214
-342
-302
-221
-472
-402
-143
-329
-486
-653
-593
-426
-366
-316
-322
-318
-726
-1210
-1110
-955
-357
1380
2972
4326
5370
4824
3545
1992
330
-337
-491
-605
-275
-47
-335
-351
-59
-195
-506
-398
-409
-485
-300
-214
-307
-249
49
61
-68
-11
-130
-170
-170
-256
11
136
106
24
217
380
170
307
519
676
732
624
745
840
731
946
1089
870
934
826
673
851
597
359
356
131
-6
49
0
-147
-171
-259
-376
-356
-388
-497
-406
-134
-260
-498
-205
-177
-306
-314
-445
-227
-276
-504
-287
-192
-322
-268
-326
-514
-286
-102
-404
-413
-190
-141
-390
-454
3
-217
-473
-268
-387
-301
-40
-131
-165
-89
-370
-424
-14
15
-133
-19
-12
33
169
-39
-217
-228
-334
-227
-183
-238
-177
-402
-340
-184
-647
-656
-294
-416
-556
-482
-356
-632
-623
-286
-573
-1036
-1213
-924
-356
1032
2695
3879
5040
4830
3372
1763
468
-168
-690
-785
-381
-289
-269
-271
-464
-494
-443
-434
-407
-308
-390
-231
-49
-325
-260
-129
-238
-183
-97
-120
-260
-120
-144
-281
153
301
169
266
192
415
533
261
443
743
695
625
927
1001
780
743
757
722
682
842
822
430
250
243
-58
-274
34
56
-236
-267
-279
-419
-588
-418
-292
-312
-163
-490
-417
-133
-422
-427
