0
0
0
0
0
0
0
0
0
0
0
0
0
0
0
0
0
0
0
0
0
0
0
0
0
0
0
0
0
0
0
0
0
0
0
0
0
0
0
0
0
0
0
0
0
0
0
0
0
0
0
0
0
0
0
0
0
0
0
0
0
0
0
0
0
0
0
0
0
0
0
0
0
0
0
0
0
0
0
0
0
0
0
0
0
0
0
0
0
0
0
0
0
0
0
0
0
0
0
0
0
0
0
0
0
0
0
0
0
0
0
0
0
0
0
0
0
0
0
0
0
0
0
0
0
0
0
0
0
0
0
0
0
0
0
0
0
0
0
0
0
0
0
0
0
0
0
0
0
0
0
0
0
0
0
0
0
0
0
0
0
0
0
0
0
0
0
0
0
0
0
0
0
0
0
0
0
0
0
0
0
0
0
0
0
0
0
0
0
0
0
0
0
0
0
0
0
0
0
0
-242
-213
-264
-242
-280
-211
-148
-300
-263
-270
-216
-11
-38
-357
-395
-105
-19
-120
-118
14
-59
-83
-25
-54
14
204
136
122
617
603
156
228
345
249
34
-73
-192
-441
-287
-298
-530
-519
-531
-515
-311
-246
-409
-423
-341
-423
-552
167
1753
3351
5067
6090
4643
1280
-418
-17
-122
-465
-339
-338
-626
-566
-424
-753
-758
-442
-497
-600
-513
-508
-589
-469
-236
-341
-481
-311
-322
-497
-381
-186
-52
-114
-119
-7
-42
179
316
413
646
587
620
815
701
711
901
859
875
800
489
506
440
207
165
-95
-14
40
-448
-271
26
-432
-451
-67
-65
-316
-344
-302
-309
-298
-373
-336
-249
-168
-252
-230
-282
-374
-315
-306
38
116
-273
-377
-157
-239
-487
-179
13
-219
-143
-45
-109
61
-12
9
326
243
209
344
292
141
-18
-70
-231
-384
-298
-423
-502
-263
-305
-432
-560
-701
-521
-378
-273
-514
-726
-578
-462
482
2122
3941
5738
5812
3075
114
-387
-9
-252
-527
-673
-691
-650
-820
-902
-600
-534
-818
-785
-507
-658
-750
-396
-449
-686
-381
-369
-583
-412
-592
-474
-259
-586
-382
88
154
86
66
159
328
372
509
677
482
528
828
869
659
493
529
450
403
300
-15
-7
104
-224
-382
-306
-374
-367
-525
-439
-69
-201
-440
-395
-235
-313
-323
-54
-371
-520
-264
-390
-363
-254
-326
-338
-247
-232
-155
-54
-324
-265
-17
-197
-128
-169
-262
-138
-182
46
142
158
435
405
193
171
335
259
116
-83
-370
-204
-212
-483
-472
-539
-709
-626
-399
-496
-584
-381
-322
-427
-734
-695
67
1533
3475
5266
6262
4509
1084
-303
122
-81
-772
-631
-380
-633
-831
-881
-635
-448
-654
-648
-639
-632
-511
-647
-752
-560
-512
-631
-398
-328
-679
-639
-244
-129
-1
165
-20
-118
7
145
301
416
467
633
717
711
701
708
923
630
465
676
519
212
33
87
78
-71
-260
-411
-309
-275
-386
-406
-537
-428
-226
-404
-393
-148
-279
-496
-234
-113
-363
-319
-230
-321
-398
-443
-231
-187
-348
-271
-297
-285
-186
-189
-142
-304
-346
-15
116
27
-107
174
459
362
417
286
131
169
50
-91
-217
-427
-330
-165
-495
-568
-594
-662
-604
-682
-387
-223
-327
-651
-900
-478
359
1741
3615
5440
6334
4420
866
-334
-101
-201
-465
-659
-555
-554
-702
-729
-461
-723
-810
-419
-672
-805
-546
-495
-541
-567
-502
-438
-458
-473
-539
-399
-124
-253
-378
-138
66
6
-35
178
331
287
452
702
755
829
862
813
590
397
560
475
368
434
246
70
-40
-182
-212
-244
-459
-275
-106
-429
-515
-387
-346
-402
-485
-293
-173
-361
-190
-208
-560
-365
-258
-305
-194
-286
-392
-431
-197
-168
-226
-39
-41
-133
-146
66
-175
-471
34
146
7
244
398
381
299
310
137
6
145
33
-275
-331
-318
-524
-682
-614
-531
-609
-740
-554
-371
-473
-459
-774
-842
-84
1035
2788
4624
5966
5408
2253
36
-148
-166
-214
-616
-961
-618
-540
-770
-665
-685
-990
-910
-589
-618
-705
-571
-500
-602
-673
-512
-429
-639
-449
-175
-459
-478
-98
-231
-220
21
-153
72
413
374
253
423
813
746
673
729
648
714
665
389
378
403
107
3
-19
-104
-159
-282
-198
-262
-448
-375
-362
-470
-510
-296
-339
-475
-370
-399
-357
-346
-284
-303
-365
-255
-378
-375
-147
-244
-394
-101
-88
-451
-290
-259
-539
-284
-44
-225
-126
61
-187
-66
430
574
380
279
328
208
29
-193
-225
-109
-330
-647
-374
-182
-463
-637
-872
-649
-369
-452
-397
-485
-884
-843
-14
1032
2739
4652
5904
5592
2488
-56
-311
-368
-248
-582
-869
-681
-655
-611
-629
-656
-728
-727
-703
-713
-564
-435
-757
-770
-425
-542
-548
-432
-329
-113
-281
-357
-133
-62
-16
-200
-76
251
275
435
560
653
723
690
670
699
768
743
780
649
274
274
301
151
75
66
-18
-251
-262
-117
-251
-378
-360
-460
-417
-262
-256
-328
-317
-305
-453
-304
-65
-303
-211
-51
-243
-105
-146
-318
-161
-120
-214
-164
-86
-222
-252
-31
-97
-324
-106
117
190
326
514
588
349
282
314
191
-53
-181
-227
-320
-266
-306
-480
-570
-502
-428
-563
-554
-430
-356
-343
-515
-638
-375
440
1783
3622
5556
6051
3712
753
-278
-381
-447
-487
-764
-634
-359
-672
-806
-708
-799
-676
-591
-739
-667
-621
-629
-488
-569
-497
-258
-675
-624
-101
-304
-421
-130
-105
-166
-29
41
61
128
271
442
552
485
584
816
787
719
759
656
544
464
105
119
233
-198
-167
-65
-295
-294
-324
-234
-263
-397
-278
-345
-456
-411
-472
-522
-391
-411
-429
-295
-330
-280
-349
-343
-324
-686
-439
-98
-112
-124
-318
-305
-282
-241
-222
-293
-152
-108
-117
163
239
160
426
428
90
139
302
56
-200
-426
-503
-286
-353
-556
-458
-431
-499
-506
-569
-599
-478
-399
-575
-789
-808
78
1797
3545
5120
6133
4407
713
-470
-144
-527
-393
-393
-807
-602
-488
-722
-733
-644
-806
-853
-636
-635
-631
-598
-660
-621
-544
-501
-490
-387
-278
-297
-334
-240
-158
-394
-390
12
118
121
316
206
365
763
681
776
805
595
705
738
550
607
456
69
82
188
74
-315
-366
-200
-414
-317
-293
-519
-343
-300
-420
-280
-407
-478
-188
-235
-328
-307
-408
-380
-364
-299
-227
-375
-478
-220
-267
-414
-225
-267
-310
-284
-306
-186
-171
-219
-69
-41
0
36
51
407
520
143
-13
171
179
-122
-280
-264
-413
-506
-555
-572
-486
-513
-566
-663
-553
-493
-645
-639
-696
-628
-55
1147
3104
5082
6180
4995
1606
-254
-268
-392
-545
-517
-572
-604
-515
-715
-820
-738
-717
-749
-580
-500
-819
-767
-456
-506
-533
-598
-769
-572
-321
-287
-302
-233
-247
-285
-183
-73
98
190
68
160
452
504
648
775
662
784
763
477
550
674
432
242
223
95
-62
-130
-275
-375
-305
-396
-434
-423
-452
-301
-240
-330
-253
-376
-602
-324
-227
-455
-310
-237
-485
-308
-125
-362
-522
-338
-158
-230
-145
-289
-430
-179
-223
-157
-31
-354
-203
37
148
322
219
431
404
-44
47
263
-116
-225
-135
-407
-597
-615
-526
-697
-718
-537
-631
-506
-369
-453
-479
-782
-901
19
1331
2992
4893
6060
5150
1828
-267
-224
-195
-466
-663
-733
-789
-527
-734
-939
-531
-665
-753
-654
-885
-683
-615
-741
-505
-506
-638
-562
-436
-457
-393
-430
-239
-74
-267
-219
-43
-32
-68
298
483
345
430
690
832
927
854
807
734
397
535
584
243
142
161
120
-85
-190
-207
-439
-490
-240
-301
-347
-345
-422
-300
-392
-329
-189
-290
-364
-323
-171
-35
-320
-661
-304
-6
-151
-285
-249
-219
-194
-134
-125
-179
-258
-4
-51
-121
147
84
104
265
407
403
344
324
378
299
-189
-115
47
-351
-327
-230
-433
-457
-390
-511
-459
-339
-625
-569
-271
-666
-803
14
990
2928
5175
6221
5641
2417
-128
-149
-239
-563
-491
-504
-692
-723
-482
-360
-559
-645
-574
-501
-668
-750
-449
-337
-462
-571
-525
-283
-273
-426
-339
-144
-184
-177
-91
-138
131
250
172
380
537
555
607
757
883
937
960
809
647
711
707
541
296
186
170
0
-92
-192
-117
-122
-225
-126
-186
-376
-438
-392
-324
-236
-152
-153
-503
-394
-110
-351
-338
-107
-184
-422
-244
-208
-146
-13
-305
-237
-100
-106
-78
-149
-105
91
112
-47
112
278
284
418
410
353
200
67
88
-101
-88
-139
-349
-225
-469
-547
-205
-367
-574
-560
-501
-451
-471
-667
-772
-132
862
2166
4126
5851
5874
2996
144
-198
-167
-438
-409
-546
-778
-701
-741
-762
-801
-691
-566
-999
-727
-402
-735
-611
-405
-562
-794
-536
-213
-426
-538
-461
-481
-437
-295
-252
-241
-157
-83
55
351
486
473
484
628
781
718
697
585
333
438
527
250
45
6
-43
-416
-316
15
-498
-525
-124
-331
-477
-409
-424
-405
-455
-452
-450
-498
-408
-392
-310
-197
-230
-377
-580
-321
-7
-205
-217
-224
-269
-96
-164
-240
-313
-243
174
126
-144
5
104
153
393
624
598
374
135
107
134
-90
-339
-566
-457
-112
-203
-419
-587
-545
-247
-529
-850
-336
-284
-657
-482
-121
728
2483
4485
5831
5436
2719
258
-127
-27
-239
-471
-708
-668
-728
-676
-560
-872
-655
-400
-598
-717
-602
-438
-605
-697
-609
-567
-432
-321
-516
-426
-45
-247
-562
-529
-116
41
-159
60
277
330
448
685
749
666
870
788
621
813
720
544
336
144
246
100
-111
-181
-130
-56
-350
-405
-98
-111
-359
-476
-256
-249
-373
-304
-571
-470
-65
-229
-408
-151
30
-282
-538
-329
-235
-364
-256
49
-14
-254
-235
-253
-254
-270
-15
-25
-339
-65
157
157
347
365
347
367
-12
17
277
146
-115
-502
-593
-476
-570
-429
-302
-505
-380
-351
-612
-628
-461
-498
-946
-763
7
1155
3037
4802
5992
5021
1679
-275
-42
-79
-569
-850
-743
-615
-782
-704
-574
-866
-1049
-727
-689
-880
-641
-680
-831
-634
-573
-771
-792
-463
-281
-354
-488
-354
-223
-380
-348
-200
57
275
247
256
496
542
490
570
624
885
833
648
541
261
260
404
127
-98
12
-19
-173
-134
-124
-506
-456
-302
-407
-340
-258
-367
-513
-445
-398
-422
-353
-183
-285
-324
-314
-327
-235
-173
-98
-193
-406
-422
-218
-82
-42
-266
-404
-182
-35
-136
-35
196
138
250
351
381
409
134
15
68
-206
-231
-289
-599
-381
-404
-533
-536
-654
-672
-671
-611
-571
-509
-483
-616
-454
193
1121
2901
5267
6452
4701
1284
-188
-138
-438
-605
-489
-641
-656
-385
-775
-1108
-641
-564
-646
-532
-746
-726
-600
-559
-539
-574
-506
-607
-447
-122
-266
-470
-265
-11
-16
-168
-118
37
35
275
439
411
467
537
596
580
634
736
556
582
503
143
224
74
-23
-140
-321
-340
-396
-116
-158
-420
-564
-607
-561
-452
-232
-289
-492
-299
-193
-386
-284
-255
-429
-297
-252
-218
-71
-220
-315
-404
-382
-259
-295
-186
-43
-318
-391
88
-64
-365
75
379
257
406
572
194
5
316
323
-36
-160
-288
-501
-447
-534
-746
-654
-434
-431
-586
-577
-539
-696
-709
-734
-871
-473
501
2305
4280
5365
5712
3474
125
-641
-410
-484
-624
-836
-803
-943
-930
-683
-782
-1019
-1000
-590
-434
-579
-561
-773
-853
-521
-527
-516
-445
-500
-515
-277
-142
-132
-44
-141
-215
-37
67
-87
343
679
479
633
907
838
830
895
713
431
553
696
392
105
-94
-49
39
-12
-125
-338
-434
-393
-458
-672
-349
-127
-589
-680
-395
-358
-402
-422
-609
-527
-567
-682
-419
-582
-609
-324
-395
-250
-220
-466
-366
-398
-390
-203
-282
-310
-241
-345
-259
25
233
467
409
195
170
99
-10
-224
-349
-291
-463
-467
-556
-796
-554
-489
-598
-605
-595
-262
-511
-709
-528
-672
-140
1131
3071
4902
5935
4977
1705
-230
-312
-291
-402
-640
-748
-494
-405
-825
-839
-609
-410
-403
-665
-641
-580
-673
-576
-472
-523
-512
-459
-213
-495
-650
-110
38
-85
-51
83
-97
-89
120
282
521
482
665
749
606
794
701
544
857
894
443
312
464
429
224
-53
-70
-74
-243
-333
-388
-113
-188
-567
-381
-368
-306
-1
-431
-576
-137
-330
-381
-107
-197
-404
-302
-187
-264
-180
-280
-479
-291
-147
-259
-70
-136
-248
17
40
19
265
368
302
591
465
193
429
249
-134
-183
-224
-377
-463
-671
-755
-347
-234
-395
-394
-498
-523
-386
-652
-927
-550
-72
842
2740
4616
5981
5611
2413
-69
-163
-201
-443
-567
-766
-749
-789
-801
-763
-925
-760
-553
-731
-862
-648
-506
-648
-642
-579
-627
-504
-377
-444
-590
-471
-495
-604
-258
-262
-228
171
160
0
190
584
771
639
703
805
640
766
720
398
338
352
447
278
-167
45
56
-423
-253
-149
-288
-290
-377
-373
-316
-414
-460
-389
-274
-171
-429
-503
-295
-396
-279
-213
-389
-250
-167
-173
-150
-282
-276
-104
-173
-215
-192
-146
93
106
-15
143
417
485
560
377
43
290
335
27
-71
-281
-338
-322
-503
-428
-385
-566
-487
-542
-495
-301
-381
-429
-565
-499
176
1382
3026
4803
6047
5216
2001
1
-2
-268
-408
-406
-575
-702
-699
-637
-706
-677
-786
-707
-457
-532
-541
-584
-570
-413
-455
-465
-457
-430
-455
-530
-443
-235
-147
-156
58
89
45
233
321
315
443
581
639
785
956
1028
830
628
630
386
290
343
309
245
-3
-81
-270
-321
-110
-213
-229
-260
-532
-369
-134
-363
-388
-315
-410
-283
-135
-384
-482
-260
-187
-223
-339
-355
-201
85
-16
-262
-239
-172
-8
-55
-4
151
-91
-179
65
111
294
556
451
189
168
226
246
142
-135
-316
-389
-276
-319
-464
-242
-434
-557
-220
-409
-492
-418
-437
-708
-798
171
1494
2962
4664
5862
4954
1900
63
20
-240
-409
-499
-769
-520
-588
-914
-724
-710
-739
-734
-685
-587
-686
-592
-354
-421
-466
-404
-573
-617
-346
-325
-447
-225
-203
-407
-142
133
-143
-117
357
519
314
220
617
846
732
733
676
570
475
547
561
165
33
182
101
2
-152
-354
-536
-374
-200
-343
-184
-130
-359
-343
-298
-376
-380
-353
-405
-305
-191
-405
-500
-245
-143
-299
-131
-41
-289
-294
-170
-286
-274
-122
-171
-126
-41
101
283
187
314
542
273
230
328
237
188
-17
-142
-205
-426
-477
-370
-539
-465
-386
-524
-487
-615
-519
-321
-618
-888
-462
497
2060
4045
5483
5782
3546
506
-267
-125
-248
-475
-558
-694
-793
-634
-785
-974
-784
-730
-613
-613
-920
-793
-545
-578
-611
-461
-426
-497
-408
-361
-543
-455
-272
-299
-232
-235
-283
-41
159
292
529
411
368
552
652
687
689
641
384
339
372
322
202
-101
-133
-61
-207
-323
-288
-567
-664
-184
-159
-453
-442
-444
-410
-221
-378
-487
-295
-297
-408
-452
-428
-352
-417
-510
-363
-223
-292
-348
-254
-320
-366
-478
-645
-42
158
-402
-159
89
105
272
52
181
222
45
322
182
-148
-141
-277
-541
-792
-685
-398
-428
-434
-557
-639
-378
-402
-648
-719
-850
-954
-419
335
1492
3754
5628
5885
3769
726
-209
-106
-393
-544
-610
-811
-793
-710
-886
-950
-744
-546
-782
-652
-387
-684
-704
-597
-592
-563
-615
-641
-434
-217
-440
-631
-326
49
-344
-534
72
305
178
114
324
478
421
759
833
441
838
955
382
311
313
333
338
85
52
218
43
-388
-452
36
-55
-594
-402
-300
-490
-287
-204
-530
-435
-259
-464
-505
-183
-101
-388
-351
-232
-311
-422
-241
-143
-313
-152
-137
-287
-359
-399
-145
-10
-22
-224
-385
-157
204
244
114
503
465
84
255
293
131
-51
-331
-248
-202
-475
-574
-568
-462
-425
-601
-459
-432
-759
-397
-414
-874
-538
393
1817
3426
5378
6251
3964
621
-78
377
-399
-978
-758
-675
-749
-610
-614
-743
-759
-743
-657
-543
-632
-753
-519
-493
-627
-465
-562
-672
-542
-252
-214
-278
-211
-298
-271
-109
22
25
155
276
271
594
697
581
655
687
864
838
707
670
496
207
204
219
-25
8
-43
-284
-295
-336
-325
-200
-280
-411
-436
-338
-230
-231
-327
-295
-278
-367
-130
-9
-500
-409
-146
-440
-247
-46
-264
-215
-158
-375
-270
-162
-127
56
-100
-349
-233
164
176
-154
244
547
332
430
364
186
190
41
-209
-254
-284
-394
-456
-469
-508
-375
-310
-490
-335
-332
-680
-633
-512
-703
-493
481
1855
3548
5466
6282
4169
867
-253
-231
-380
-280
-441
-723
-634
-615
-872
-745
-481
-612
-489
-335
-734
-658
-459
-477
-352
-398
-428
-557
-433
-139
-300
-365
-118
-118
-59
94
-111
-165
213
376
491
682
562
650
787
872
903
752
613
528
617
363
164
328
115
10
-110
-341
-89
-157
-460
-331
-106
-177
-303
-160
-256
-645
-359
16
-346
-389
-177
-286
-272
-133
-137
-333
-284
-85
-109
-123
-260
-242
10
-181
-198
78
-205
-265
41
65
-61
-84
58
302
523
422
-58
45
419
156
-67
-168
-367
-507
-638
-556
-294
-230
-460
-596
-395
-479
-604
-336
-582
-929
-333
945
2367
3837
5424
5915
3375
179
-154
16
-503
-423
-584
-706
-583
-718
-725
-715
-713
-605
-574
-516
-577
-574
-419
-485
-523
-504
-565
-586
-371
-239
-403
-530
-352
-56
11
0
129
171
130
301
435
516
634
588
528
676
808
646
517
483
442
353
225
270
-27
-244
-65
-194
-200
-183
-308
-237
-376
-571
-342
-299
-463
-288
-163
-259
-276
-210
-336
-350
-139
31
-126
-370
-285
-220
-198
-319
-482
-263
-270
-308
-34
-103
-37
161
-164
-195
127
45
245
567
463
290
233
250
105
-203
-375
-439
-527
-458
-366
-390
-538
-593
-700
-594
-203
-357
-613
-658
-740
-393
505
2014
4111
5587
5689
3185
100
-56
126
-451
-612
-583
-561
-841
-689
-509
-798
-789
-735
-764
-689
-586
-528
-723
-558
-351
-606
-657
-428
-321
-473
-414
-365
-457
-195
-77
-207
10
197
201
340
371
400
496
461
695
848
476
543
525
272
574
556
112
-167
28
166
-178
-267
-132
-313
-392
-324
-519
-573
-316
-153
-501
-577
-128
-179
-369
-308
-514
-471
-130
-351
-482
-117
-5
-288
-358
-308
-303
-200
-226
-203
-59
-85
-268
-217
10
-20
84
266
384
455
304
236
172
16
133
41
-507
-440
-420
-800
-516
-265
-436
-411
-452
-742
-710
-422
-602
-856
-519
211
1140
2745
4859
6083
4906
1776
-90
-278
-427
-392
-561
-599
-460
-708
-647
-550
-815
-840
-819
-764
-779
-759
-474
-589
-644
-619
-644
-372
-270
-421
-466
-373
-261
-156
-211
-139
-75
-98
181
331
379
423
509
748
700
749
781
697
693
511
476
309
128
290
274
113
-163
-323
-128
-191
-223
-355
-540
-415
-341
-384
-345
-322
-508
-320
-105
-390
-482
-341
-190
-155
-549
-519
-99
-114
-289
-356
-209
-250
-387
-231
-22
-31
-275
-142
253
-164
-433
230
545
549
475
133
130
295
49
-287
-282
-277
-446
-537
-654
-602
-467
-586
-578
-334
-455
-502
-496
-760
-642
-149
730
2288
4146
5705
5719
2748
-23
-109
-244
-762
-682
-542
-559
-812
-747
-577
-708
-686
-633
-728
-782
-570
-520
-733
-628
-378
-417
-503
-691
-573
-260
-294
-343
-401
-282
-83
-164
31
482
385
212
342
561
645
510
806
965
735
760
670
502
450
315
159
85
-50
-155
-158
-185
-77
-1
-218
-413
-435
-352
-333
-385
-403
-254
-180
-192
-97
-362
-372
-21
-209
-504
-360
-105
-257
-335
-158
-237
-285
-158
18
-112
-227
-182
-210
94
120
3
190
284
452
316
274
349
109
27
-69
-240
-576
-661
-363
-341
-413
-484
-568
-518
-357
-460
-752
-732
-665
-734
-318
850
2636
4857
6243
5133
2010
20
-72
-228
-308
-545
-918
-636
-687
-843
-812
-711
-677
-872
-770
-798
-858
-731
-646
-565
-611
-479
-358
-492
-432
-274
-260
-497
-516
-218
-461
-265
298
174
122
249
400
565
696
589
577
876
802
596
595
470
205
283
231
-101
-27
29
-141
-321
-412
-332
-386
-541
-359
-211
-355
-406
-432
-332
-375
-471
-183
-235
-332
-251
-450
-527
-374
-183
-241
-415
-422
-391
-253
-316
-325
-91
-83
-76
-41
100
118
-12
290
442
168
167
326
189
-92
29
-118
-555
-268
-71
-477
-772
-548
-211
-371
-552
-464
-439
-395
-594
-812
-471
354
1993
3893
5290
5906
4002
730
-335
-152
-414
-455
-633
-591
-352
-697
-768
-644
-796
-814
-541
-514
-622
-487
-413
-591
-659
-369
-274
-483
-535
-287
-176
-248
-308
-197
21
164
258
221
265
382
573
620
595
778
790
763
807
782
847
675
466
529
367
265
127
-82
-35
-293
-384
-71
-13
-132
-114
-246
-472
-269
-286
-389
-324
-276
-254
-338
-164
-61
-95
-115
-173
-240
-230
-81
-97
-130
-138
-169
-25
-76
-167
-15
64
131
115
158
330
480
470
487
441
101
129
119
-285
-223
-244
-589
-301
-198
-499
-501
-457
-482
-552
-624
-364
-215
-621
-653
304
1673
3455
5113
5780
4567
1478
-329
-343
-318
-551
-516
-469
-685
-553
-577
-672
-622
-647
-570
-567
-693
-687
-562
-553
-526
-441
-490
-552
-525
-443
-268
-167
-293
-223
-44
-99
-52
198
283
334
530
607
596
659
626
451
614
936
818
581
418
228
339
227
-194
-109
-42
-166
-204
-346
-362
-65
-117
-430
-315
-349
-566
-326
-209
-441
-450
-302
-284
-362
-184
-244
-545
-226
-158
-450
-443
-420
-199
-61
-210
-149
13
-157
-180
60
165
215
141
366
538
116
-34
25
131
-111
-612
-289
-263
-692
-532
-363
-511
-625
-491
-366
-603
-727
-573
-715
-713
-274
362
2080
4364
5791
5641
2902
149
-280
-299
-505
-500
-665
-834
-752
-669
-692
-766
-637
-584
-676
-625
-711
-698
-648
-962
-834
-328
-383
-495
-442
-448
-456
-417
-286
-260
-378
-260
-49
12
190
292
237
452
731
547
605
708
567
749
600
275
457
494
104
-175
-140
-75
-228
-323
-348
-419
-307
-214
-166
-381
-606
-367
-379
-507
-278
-338
-638
-462
-290
-490
-433
-295
-292
-178
-313
-382
-299
-313
-82
35
-144
-242
-282
-98
-55
-265
-102
343
422
260
423
454
179
-46
-45
-179
-471
-400
-312
-500
-688
-593
-412
-605
-832
-667
-564
-714
-746
-790
-530
303
1662
3629
5457
6025
3925
654
-300
-261
-440
-526
-912
-711
-666
-898
-721
-675
-768
-777
-807
-601
-507
-820
-674
-566
-617
-386
-556
-734
-433
-322
-449
-371
-406
-555
-210
-3
-144
-23
154
370
495
466
562
631
730
614
519
859
798
423
311
298
146
-42
-192
-153
-3
-262
-246
-168
-441
-193
-225
-599
-536
-379
-321
-533
-527
-282
-327
-428
-277
-165
-339
-434
-274
-261
-466
-263
-142
-478
-442
-417
-329
1
-205
-76
178
-26
-41
21
122
346
490
215
177
354
138
-86
-303
-344
-305
-465
-464
-452
-615
-628
-463
-556
-849
-728
-364
-404
-832
-640
199
1275
3266
5155
6018
4699
1238
-356
-95
-351
-384
-340
-780
-850
-753
-779
-693
-734
-789
-839
-770
-728
-701
-622
-588
-569
-639
-543
-368
-397
-564
-763
-503
-140
-187
-148
-81
-174
-161
191
392
372
504
662
581
633
929
888
625
450
624
552
310
384
214
43
120
-157
-308
19
-127
-497
-483
-308
-333
-459
-295
-154
-194
-230
-329
-528
-310
-113
-344
-312
-207
-127
-204
-394
-371
-199
-97
-183
-263
-144
-105
-369
-264
-32
-53
72
359
610
353
267
596
333
25
209
130
-134
-201
-309
-407
-462
-511
-482
-489
-468
-465
-548
-587
-605
-531
-579
-719
-346
875
2933
4847
5993
5598
2412
-260
-96
42
-571
-766
-738
-717
-631
-573
-737
-1052
-850
-669
-754
-514
-575
-742
-650
-510
-403
-495
-542
-459
-496
-597
-363
-200
-365
-237
-76
-140
27
218
184
293
535
488
528
913
834
765
924
700
553
474
354
287
146
48
132
-96
-400
-57
45
-264
-304
-241
-334
-298
-317
-492
-287
-141
-601
-592
-58
-168
-379
-148
-100
-326
-289
-266
-490
-272
82
-89
-120
-152
-313
-166
-78
13
-146
-248
109
301
382
467
449
157
85
234
-38
-82
-23
-232
-351
-340
-192
-377
-563
-446
-428
-576
-604
-270
-350
-754
-827
-549
328
1828
3636
5335
6231
4233
571
-393
-67
-399
-389
-399
-543
-696
-751
-582
-586
-579
-725
-871
-519
-357
-674
-726
-403
-409
-545
-458
-260
-232
-400
-299
-160
-179
-72
-127
-157
114
56
206
615
492
358
678
998
803
676
867
795
719
749
685
559
320
109
160
136
37
-32
-197
-233
-145
-104
-261
-369
-359
-278
-189
-213
-218
-262
-299
-274
-368
-72
66
-294
-176
-56
-303
-290
-158
-340
-290
9
29
-93
-87
-159
-170
113
189
41
149
421
593
475
326
467
269
-40
7
-63
-352
-396
-303
-440
-349
-277
-604
-601
-455
-411
-369
-492
-669
-762
-271
527
1830
3677
5269
5968
4038
780
-417
-200
-208
-424
-633
-733
-671
-610
-737
-699
-600
-603
-570
-766
-805
-491
-339
-523
-638
-525
-408
-306
-271
-354
-578
-399
-39
-238
-360
-23
126
76
132
280
425
513
707
713
748
831
770
830
682
457
449
470
285
-15
41
151
-254
-453
-260
-181
-202
-321
-322
-236
-211
-294
-454
-335
-274
-519
-478
-198
-289
-328
-140
-194
-345
-432
-333
-326
-540
-272
-3
-263
-190
21
-224
-192
11
7
110
118
321
390
90
305
349
-246
-78
268
-107
-95
-142
-474
-470
-221
-350
-582
-497
-573
-359
-454
-668
-592
-950
-669
-48
668
2483
4471
5945
5713
2622
49
-161
-337
-528
-588
-756
-630
-584
-730
-659
-683
-904
-818
-823
-750
-544
-574
-553
-429
-512
-709
-711
-595
-423
-332
-267
-315
-485
-367
-74
-103
-21
293
-88
-79
764
682
323
761
1003
753
597
699
731
502
450
243
-65
58
-57
-286
-318
-294
-268
-206
-179
-174
-108
-422
-586
-297
-161
-313
-457
-460
-274
-245
-406
-219
-207
-377
-317
-206
-208
-310
-191
-307
-444
-203
-53
-188
-152
80
-34
-251
-173
113
276
520
587
363
246
180
157
-199
-267
56
-277
-594
-336
-299
-481
-488
-597
-508
-435
-539
-571
-690
-719
-608
8
1300
3113
5088
6282
4925
1618
-47
-48
-249
-586
-661
-548
-676
-817
-780
-857
-724
-547
-707
-835
-712
-616
-595
-582
-635
-483
-509
-591
-455
-499
-351
-335
-335
113
-104
-388
-12
94
31
155
421
510
458
618
606
618
818
791
666
615
739
598
197
176
62
-272
-89
-69
-537
-381
-58
-238
-307
-274
-322
-366
-381
-291
-306
-267
-246
-475
-607
-391
-296
-403
-275
-141
-327
-493
-151
-146
-451
-231
-163
-277
-229
-341
-164
32
-84
-57
-12
136
443
335
118
211
193
198
46
-366
-436
-435
-465
-479
-667
-619
-514
-435
-495
-625
-516
-449
-667
-893
-563
81
1172
3196
5149
6218
4930
1337
-394
-15
-269
-606
-824
-993
-605
-607
-743
-712
-767
-724
-756
-757
-888
-948
-606
-482
-582
-700
-755
-571
-466
-508
-416
-372
-396
-334
-381
-248
46
1
96
235
-22
379
714
437
611
663
713
772
400
492
658
522
393
107
-47
-63
-213
-321
-337
-524
-587
-317
-161
-380
-450
-285
-322
-456
-427
-375
-425
-410
-236
-271
-447
-391
-325
-228
-215
-367
-460
-428
-301
-221
-279
-361
-59
-61
-306
79
125
-56
273
431
101
178
409
203
82
64
-106
-322
-161
-284
-515
-383
-411
-537
-549
-372
-534
-775
-592
-457
-727
-819
-573
-263
961
3021
4771
5879
5188
1962
-242
-135
-223
-495
-487
-868
-988
-660
-771
-863
-710
-728
-843
-800
-787
-679
-537
-641
-609
-634
-578
-452
-571
-656
-532
-269
-169
-321
-328
-59
47
76
123
104
240
505
511
641
836
698
674
580
495
814
788
314
-11
141
290
-61
-153
-72
-205
-368
-453
-273
-195
-405
-410
-312
-413
-410
-354
-257
-236
-388
-279
-255
-340
-343
-312
-237
-351
-322
-300
-336
-178
-317
-428
-197
-116
-106
-123
-223
-22
94
26
148
304
445
322
339
454
24
-68
65
-353
-449
-329
-410
-454
-514
-460
-574
-489
-380
-534
-437
-637
-734
-666
-514
477
2019
3884
5591
6031
3776
438
-496
-112
-476
-621
-489
-775
-770
-710
-789
-592
-639
-796
-696
-729
-802
-562
-472
-424
-496
-551
-515
-736
-420
-129
-371
-340
-144
-242
-217
-98
-175
-4
278
305
404
666
729
521
528
997
1084
806
768
603
352
340
426
226
48
-19
-382
-290
-114
-226
-3
-30
-371
-337
-161
-261
-440
-391
-322
-356
-210
-250
-447
-253
-223
-265
-169
-153
-100
-326
-371
-19
-59
-396
-240
-48
-205
-128
-33
-14
110
129
355
441
333
479
320
109
211
102
-29
50
-202
-534
-463
-331
-437
-409
-70
-273
-575
-498
-454
-389
-596
-870
-676
-10
1031
2681
4464
5723
5486
2539
-95
-209
-211
-617
-588
-485
-725
-728
-613
-838
-753
-641
-755
-589
-629
-664
-385
-239
-494
-725
-574
-524
-387
-574
-598
-126
-67
-272
-296
-165
-57
52
86
105
366
496
352
683
887
531
699
876
693
711
574
409
300
361
284
-148
-185
-189
-328
-196
-99
-179
-411
-548
-158
-22
-431
-413
-238
-317
-350
-343
-339
-204
-270
-214
-77
-354
-254
-230
-350
-217
-463
-373
154
4
-205
-45
-63
-123
-119
-56
-15
59
283
361
363
330
235
312
96
-182
-252
-265
-321
-590
-393
-194
-596
-713
-369
-301
-553
-548
-453
-750
-923
-590
114
1521
3463
5248
6068
4366
1055
-278
-126
-454
-531
-576
-667
-586
-768
-831
-807
-708
-749
-879
-698
-720
-660
-406
-680
-786
-450
-495
-478
-577
-633
-302
-259
-324
-242
-197
-152
-90
-53
45
-42
155
463
445
572
683
687
589
717
823
377
404
594
355
167
-71
-119
-66
-314
-405
-393
-371
-259
-326
-494
-424
-441
-649
-365
-251
-440
-322
-192
-222
-310
-402
-480
-304
-252
-313
-264
-495
-436
-193
-198
-230
-286
-165
-13
-170
-74
42
-175
-82
229
280
333
394
142
189
387
8
-318
-294
-240
-298
-476
-470
-485
-686
-670
-636
-446
-172
-408
-635
-744
-892
-523
426
1938
3834
5485
5927
3576
510
-210
-84
-367
-683
-683
-632
-769
-784
-914
-865
-624
-765
-879
-614
-618
-626
-444
-617
-602
-602
-421
-255
-652
-584
-357
-502
-474
-125
-17
-161
-9
101
102
337
433
315
593
766
757
869
626
553
645
658
471
183
291
210
-54
84
132
-191
-278
-227
-328
-243
-250
-441
-504
-419
-49
-238
-719
-334
-165
-369
-321
-299
-297
-221
-249
-344
-300
-276
-259
-468
-450
-112
-305
-216
-19
-285
-172
38
-165
-104
71
-52
146
322
330
304
198
263
246
83
-89
-231
-331
-406
-358
-514
-620
-482
-527
-502
-387
-397
-568
-386
-448
-956
-386
676
2115
4233
5868
5879
3139
214
-245
-179
-623
-612
-536
-618
-528
-481
-705
-965
-856
-748
-638
-480
-671
-717
-586
-698
-717
-482
-291
-477
-470
-371
-506
-338
-222
-347
-196
68
6
-87
151
368
285
498
721
720
854
716
702
747
647
658
493
520
435
56
-81
33
-36
-343
-370
-272
-304
-266
-158
-279
-434
-359
-122
-185
-485
-353
-104
-219
-352
-331
-272
-332
-322
-186
-206
-211
-269
-271
-70
-74
-116
-69
-78
92
-16
-216
-25
109
270
361
370
521
547
376
223
285
102
-226
-220
-226
-418
-378
-159
-451
-624
-328
-553
-559
-158
-464
-745
-579
-469
-271
1035
2986
4446
5996
5842
2419
-258
-297
-84
-343
-602
-530
-522
-728
-713
-688
-773
-552
-458
-716
-543
-394
-575
-686
-485
-160
-446
-667
-386
-252
-294
-103
-33
-270
-135
-3
-151
16
301
300
287
348
439
870
1059
805
728
899
1014
763
681
608
365
281
192
117
30
-113
-50
-123
-347
-303
-257
-291
-150
-168
-561
-230
14
-245
-126
-239
-425
-348
-169
-161
-247
-137
-134
-209
-280
-273
-175
-211
-180
-280
-206
24
27
-13
-49
55
-53
-109
334
403
200
534
497
-53
72
207
-204
-292
-281
-314
-242
-386
-540
-413
-549
-670
-319
-376
-516
-418
-590
-932
-635
388
1599
3490
5199
5853
4226
814
-346
-101
-348
-379
-591
-687
-708
-844
-694
-662
-717
-769
-897
-789
-487
-424
-784
-712
-411
-471
-502
-468
-308
-406
-577
-342
-263
-372
-240
-238
-310
-101
164
257
274
365
368
516
725
822
690
604
610
364
493
394
129
170
13
-107
-182
-268
-310
-412
-424
-154
-332
-500
-335
-442
-527
-434
-360
-501
-386
-188
-302
-338
-272
-260
-480
-581
-234
-188
-344
-254
-351
-388
-128
-266
-309
-18
-47
-258
-339
-82
164
59
88
362
319
231
271
-59
-173
61
-201
-483
-314
-306
-536
-619
-625
-687
-646
-480
-623
-537
-455
-837
-1005
-706
-56
1168
3091
4945
6067
4498
1243
-232
-325
-274
-381
-720
-912
-848
-840
-766
-721
-949
-927
-777
-736
-890
-832
-514
-579
-805
-686
-509
-553
-561
-542
-509
-639
-561
-357
-201
28
-93
-267
-139
98
148
231
421
502
641
709
539
469
557
481
452
428
214
113
-71
-213
-179
-242
-315
-403
-401
-459
-490
-516
-648
-377
-281
-625
-498
-367
-467
-391
-306
-443
-557
-223
-44
-398
-624
-428
-337
-346
-389
-364
-242
-341
-425
-525
-310
68
-150
-379
-44
314
222
172
262
318
167
-4
-80
-359
-394
-382
-663
-727
-516
-485
-544
-617
-664
-495
-541
-730
-673
-789
-1066
-529
605
1919
3789
5677
5886
3156
350
-179
-437
-616
-600
-831
-824
-765
-752
-836
-792
-755
-823
-818
-748
-671
-827
-864
-626
-694
-587
-398
-692
-653
-430
-451
-439
-330
-288
-328
-225
-248
-207
-32
181
336
272
410
602
547
519
601
660
664
499
422
389
69
-9
46
-91
-212
-184
-290
-302
-223
-526
-425
-219
-521
-634
-395
-412
-544
-230
-228
-556
-414
-240
-211
-183
-208
-293
-293
-340
-354
-264
-329
-314
-363
-405
-234
-207
-112
199
16
-282
33
312
259
324
446
202
134
263
29
-115
-97
-272
-545
-384
-264
-422
-448
-553
-533
-414
-463
-475
-487
-695
-789
-558
361
1693
3381
5568
6266
3891
764
-114
-17
-362
-415
-670
-833
-647
-764
-764
-886
-765
-558
-874
-756
-561
-803
-708
-384
-380
-560
-576
-375
-435
-496
-371
-377
-458
-230
-62
-150
-56
30
206
130
188
527
646
823
560
375
838
962
753
415
263
423
347
227
143
-81
-213
-178
-188
-249
-304
-321
-274
-310
-411
-520
-521
-121
-100
-483
-303
-323
-509
-132
-120
-355
-240
-197
-229
-446
-447
-105
-138
-132
-82
-230
-142
-64
-237
-208
-56
-79
174
227
61
334
514
457
371
215
167
99
-210
-318
-385
-477
-560
-568
-494
-577
-476
-637
-709
-425
-389
-440
-652
-491
190
1437
3478
5309
6091
4453
1224
-356
-320
-158
-401
-711
-518
-536
-880
-687
-575
-998
-824
-504
-504
-537
-591
-670
-861
-578
-449
-542
-195
-265
-535
-580
-453
-190
-241
-218
-55
2
-129
-85
493
496
462
951
763
490
752
974
813
629
549
522
459
185
108
76
-20
-47
-247
-262
-173
-392
-230
-215
-360
-142
-394
-438
-297
-377
-226
-346
-474
-277
-224
-263
-253
-281
-353
-472
-372
-143
-245
-230
-140
-221
-190
-89
-207
-182
60
-59
-87
123
235
186
355
457
315
383
170
-134
-142
-108
-333
-393
-344
-479
-364
-355
-540
-524
-491
-460
-507
-610
-550
-802
-650
277
1454
3343
5307
6162
4547
1128
-376
-261
-407
-387
-534
-769
-545
-574
-885
-780
-594
-583
-618
-720
-649
-499
-422
-373
-441
-404
-397
-516
-503
-439
-377
-348
-229
-69
-83
-90
-59
75
175
213
417
808
764
533
714
874
900
852
859
931
636
273
246
287
121
-183
-65
22
-160
-224
-276
-211
-152
-247
-163
-148
-557
-468
-33
-43
-266
-418
-413
-153
-15
-193
29
-161
-457
71
-60
-396
-166
-143
-76
-26
-35
50
-75
106
193
-132
110
451
411
358
516
403
106
131
4
-66
-90
-304
-283
-268
-394
-625
-561
-192
-496
-579
-289
-432
-491
-685
-571
403
1493
3164
5109
6084
4891
1581
-358
-226
-366
-558
-460
-615
-586
-627
-724
-576
-726
-652
-496
-664
-540
-414
-386
-501
-540
-294
-374
-386
-339
-437
-211
-268
-417
-109
62
24
-113
-97
239
449
473
587
764
696
533
718
820
814
993
715
430
499
417
298
54
28
39
-132
-92
-212
-284
-213
-260
-374
-422
-259
-136
-214
-340
-227
-187
-325
-373
-270
-135
-194
-204
-206
-199
-125
-112
-24
-140
-249
-101
-191
-304
26
186
-54
-163
85
382
517
664
317
81
285
178
118
98
-116
-298
-324
-528
-670
-511
-425
-376
-413
-369
-402
-667
-667
-602
-609
-530
320
2163
3978
5687
6120
3317
259
31
-13
-597
-532
-488
-576
-763
-814
-679
-600
-729
-841
-808
-676
-517
-477
-464
-597
-789
-654
-346
-415
-425
-246
-213
-332
-383
-149
-5
-131
-150
85
130
165
430
586
679
689
687
735
729
717
703
615
431
403
412
209
-51
-198
-61
56
-346
-494
-185
-379
-490
-295
-387
-448
-426
-307
-137
-65
-248
-385
-89
-227
-531
-348
-115
-148
-218
-103
-226
-505
-311
-82
-217
-176
-62
-72
-69
-58
34
217
323
418
572
377
146
373
254
-108
-120
-285
-388
-348
-474
-394
-356
-468
-435
-397
-564
-647
-304
-398
-828
-546
275
1621
3555
5493
6437
4307
870
31
232
-166
-431
-613
-578
-641
-818
-682
-739
-807
-670
-599
-670
-662
-527
-569
-555
-600
-659
-381
-237
-340
-414
-333
-251
-327
-353
-271
-96
-40
42
109
241
645
623
445
702
768
613
744
776
673
527
402
329
282
197
89
172
-77
-170
-42
-253
-238
-209
-354
-322
-336
-418
-227
-102
-341
-360
-298
-328
-376
-369
-132
-195
-231
-178
-290
-317
-287
-169
-57
25
-8
-69
-22
-140
-125
25
231
433
181
286
630
405
257
259
191
96
-245
-344
-271
-356
-363
-402
-482
-513
-560
-571
-406
-386
-480
-515
-621
-334
457
1793
3919
5850
6309
3837
570
-115
27
-367
-576
-635
-551
-547
-592
-601
-835
-727
-495
-723
-802
-634
-648
-552
-348
-409
-576
-478
-415
-503
-287
-250
-287
-191
-281
-356
-138
130
-10
91
382
425
598
657
681
696
589
700
826
732
591
411
202
329
407
22
-169
-129
-180
-276
-405
-251
-200
-343
-279
-315
-408
-298
-283
-293
-363
-459
-206
-145
-287
-316
-246
-166
-166
-273
-304
-142
-164
-290
-284
-122
67
19
-119
-188
-82
69
154
167
320
617
454
277
213
57
199
99
-436
-510
-401
-448
-402
-365
-414
-608
-631
-412
-410
-534
-703
-818
-552
-42
921
2584
4679
6152
5443
2240
-170
-98
-186
-456
-411
-745
-664
-375
-550
-769
-711
-744
-793
-679
-827
-735
-420
-525
-658
-532
-387
-409
-502
-364
-153
-397
-443
-308
-416
-151
98
62
277
517
289
380
748
756
764
829
814
598
576
819
698
565
513
256
245
165
-152
-264
-331
-129
-10
-207
-225
-306
-408
-323
-368
-372
-239
-266
-361
-432
-301
-183
-289
-261
-53
-141
-247
-176
-289
-155
-49
-31
90
-112
-264
-211
31
167
-27
112
250
228
541
591
347
366
238
61
-228
-324
-190
-422
-382
-349
-491
-529
-495
-471
-457
-461
-405
-244
-447
-544
-198
757
2622
4559
5907
5567
2609
-29
-337
-307
-376
-388
-622
-484
-582
-857
-592
-647
-822
-505
-464
-679
-416
-220
-538
-577
-486
-581
-328
-126
-338
-509
-430
-236
-196
-193
-90
-87
-113
83
454
543
460
504
514
572
764
866
587
507
766
596
280
180
276
267
14
-129
-244
-286
-372
-397
10
115
-360
-584
-429
-382
-454
-488
-293
-219
-389
-354
-349
-291
-161
-298
-389
-370
-328
-245
-276
-240
-289
-277
-58
-109
-282
-211
7
107
79
157
119
189
537
398
69
-31
-35
-42
-342
-474
-264
-350
-569
-561
-530
-618
-572
-264
-481
-861
-638
-766
-883
-420
274
1525
3365
5228
6080
4190
731
-493
-186
-160
-400
-670
-769
-841
-706
-855
-915
-794
-762
-773
-945
-723
-456
-747
-764
-582
-609
-403
-435
-636
-496
-399
-363
-372
-512
-460
-294
-41
-51
-188
-28
244
556
596
522
522
455
462
520
555
464
407
216
25
226
308
-140
-398
-360
-532
-413
-451
-545
-346
-308
-266
-538
-455
-293
-674
-430
-335
-363
-246
-492
-461
-468
-422
-410
-503
-292
-342
-348
-273
-351
-234
-177
-228
-217
-218
-221
-111
71
204
364
570
229
-146
15
-126
-226
-87
-181
-389
-468
-486
-518
-548
-653
-534
-693
-834
-446
-581
-840
-713
-613
-131
1151
3212
5239
6164
4440
1241
-35
-155
-462
-674
-761
-770
-823
-822
-885
-892
-695
-679
-904
-793
-628
-670
-523
-553
-689
-467
-588
-868
-623
-431
-471
-508
-464
-373
-286
-180
-291
-236
137
107
108
353
505
813
754
530
658
632
514
470
403
469
205
-205
-74
-4
-157
-346
-348
-237
-403
-439
-325
-106
-212
-624
-475
-302
-422
-424
-290
-396
-524
-384
-407
-470
-178
-190
-575
-406
-164
-327
-567
-274
81
-121
-261
-124
-173
-211
31
66
64
109
186
491
459
-10
-95
-54
-248
-227
-183
-494
-688
-532
-455
-478
-578
-557
-421
-463
-700
-793
-774
-791
-379
630
2105
4018
5632
5689
3282
462
-394
-356
-378
-618
-732
-665
-543
-689
-992
-842
-838
-895
-572
-528
-912
-765
-454
-824
-849
-345
-482
-705
-672
-658
-306
-380
-572
-261
-202
-201
7
-10
-135
149
344
452
686
521
668
681
513
866
556
229
294
135
184
210
34
-17
-188
-501
-364
-105
-436
-536
-207
-295
-486
-542
-504
-352
-279
-317
-410
-449
-362
-390
-344
-237
-306
-462
-365
-170
-240
-234
-188
-243
-343
-177
-20
-275
-270
11
225
356
338
272
203
279
280
17
-23
-55
-256
-208
-291
-533
-551
-652
-676
-472
-521
-607
-546
-575
-575
-871
-785
-189
492
2068
4078
5676
5965
3383
209
-336
8
-362
-648
-514
-552
-692
-738
-713
-632
-765
-751
-672
-744
-813
-720
-444
-513
-658
-519
-600
-449
-157
-388
-600
-430
-198
-241
-119
-70
-157
299
310
210
551
468
494
728
788
723
572
645
618
437
554
517
281
248
108
-76
-160
-174
-115
-251
-392
-195
-142
-370
-467
-361
-236
-311
-277
-359
-496
-242
-153
-223
-46
-10
-230
-291
-214
-202
-116
69
-95
-283
-239
-219
-84
37
-60
-4
89
22
270
476
640
639
158
1
216
177
-106
-268
-117
-200
-510
-298
-422
-701
-358
-427
-603
-434
-404
-529
-541
-432
-231
595
2388
4413
5814
5774
3058
84
-326
-152
-552
-596
-442
-384
-560
-716
-556
-497
-554
-593
-663
-603
-305
-488
-824
-371
-151
-616
-694
-318
-171
-242
-204
-143
-210
-44
10
-157
20
177
337
495
551
575
502
753
949
747
690
745
621
610
555
299
255
340
110
17
-2
-308
-262
-106
-125
-243
-439
-297
-135
-236
-373
-318
-167
-365
-336
-192
-318
-273
-269
-230
-178
-256
-149
32
-56
-153
-131
-247
-213
48
50
-174
-193
-19
160
307
292
248
445
503
292
140
85
86
-25
-318
-466
-394
-340
-345
-399
-521
-615
-602
-456
-285
-333
-489
-600
-658
-103
1230
2948
4754
6050
5037
1766
-130
-161
-273
-298
-356
-707
-635
-447
-750
-686
-560
-854
-688
-383
-402
-501
-461
-605
-693
-443
-367
-286
-393
-566
-374
-185
-231
-359
-187
-59
11
218
146
74
480
835
491
535
839
707
662
721
681
521
603
509
231
213
148
-125
-175
80
-91
-284
-250
-138
-131
-340
-107
-124
-449
-272
-178
-442
-353
-182
-270
-288
-299
-207
-151
-287
-255
-88
34
-146
-209
-70
-255
-119
-36
-293
-161
42
62
190
266
221
445
618
483
295
66
34
-13
-318
-220
-33
-399
-665
-430
-261
-527
-593
-412
-489
-669
-464
-452
-751
-353
362
1677
3798
5695
6147
3618
581
-161
-183
-281
-328
-623
-760
-645
-697
-852
-801
-626
-732
-733
-510
-527
-681
-770
-676
-485
-433
-565
-627
-441
-261
-412
-362
-263
-411
-203
-16
35
148
248
175
80
391
650
663
740
668
510
567
696
659
417
373
430
194
-51
-128
-144
-185
-179
-91
-266
-519
-331
-183
-241
-314
-418
-361
-313
-309
-388
-236
-209
-486
-305
-53
-91
-279
-189
93
-130
-335
-320
-172
67
-77
-99
-89
-72
114
122
282
464
476
283
171
84
78
346
50
-327
-142
-205
-488
-373
-419
-634
-547
-493
-570
-586
-481
-433
-770
-874
-397
308
1920
4165
5853
5953
3356
519
-184
-257
-345
-412
-703
-761
-569
-697
-826
-626
-786
-978
-701
-608
-661
-594
-623
-649
-690
-607
-530
-486
-497
-352
-108
-368
-369
-192
-250
-174
-169
-94
62
329
574
349
365
671
765
729
616
653
698
474
326
336
175
97
152
-21
-305
-476
-245
-25
-322
-491
-320
-330
-381
-405
-483
-588
-315
-64
-395
-455
-371
-443
-368
-269
-346
-199
88
-203
-483
-394
-430
-368
-201
-101
-115
-265
-243
-90
167
299
187
247
330
272
150
90
49
-151
-250
-252
-515
-546
-364
-405
-467
-703
-777
-524
-586
-761
-552
-535
-755
-379
359
1492
3561
5516
6078
3982
698
-302
-94
-371
-605
-715
-692
-564
-766
-1055
-861
-599
-784
-868
-713
-705
-737
-722
-643
-566
-642
-594
-439
-466
-420
-369
-377
-435
-389
-251
-236
-203
-67
88
251
391
461
461
348
521
892
763
466
584
532
355
321
207
123
-52
-123
-210
-262
-136
-300
-385
-449
-489
-412
-356
-154
-377
-660
-392
-294
-502
-267
-239
-398
-222
-285
-392
-224
-184
-403
-298
-207
-336
-172
-104
-138
1
-73
-66
78
3
277
439
408
442
140
135
248
46
-272
-347
-376
-513
-493
-511
-407
-517
-520
-342
-500
-515
-284
-444
-926
-794
-116
781
2178
4102
5645
5720
3234
153
-494
-290
-526
-588
-598
-533
-646
-994
-863
-774
-839
-430
-476
-746
-578
-597
-765
-734
-548
-589
-532
-292
-316
-479
-305
-144
-372
-297
-131
-152
8
230
234
287
404
422
659
808
681
698
791
613
409
410
453
319
157
411
260
-398
-427
-126
-238
-363
-144
-184
-165
-101
-451
-438
-384
-436
-204
-222
-388
-351
-362
-260
-237
-250
-181
-83
19
-239
-139
-35
-296
-339
-138
55
-92
-242
-101
34
111
281
325
464
485
221
272
410
199
-205
-312
-81
-259
-495
-432
-541
-499
-412
-502
-446
-388
-488
-554
-511
-614
-334
637
2169
4023
5417
5737
3386
381
-184
-252
-542
-552
-621
-532
-745
-956
-728
-718
-815
-687
-609
-660
-706
-501
-342
-409
-530
-571
-393
-531
-743
-493
-297
-440
-413
-154
-174
-349
-208
216
306
279
445
474
567
592
630
677
541
740
643
305
357
318
171
122
93
-251
-390
-90
-301
-535
-278
-190
-305
-303
-353
-492
-342
-382
-652
-564
-307
-368
-369
-209
-449
-484
-189
-188
-392
-428
-376
-174
-182
-380
-223
-227
-306
-32
-103
-346
72
298
266
190
146
321
285
79
-298
-427
-387
-494
-487
-536
-545
-651
-631
-550
-782
-741
-559
-335
-619
-1000
-742
-554
330
2220
4015
5682
5726
2540
-198
-300
-273
-630
-562
-563
-954
-956
-752
-901
-915
-714
-746
-1007
-1026
-554
-548
-985
-811
-633
-809
-780
-555
-477
-442
-399
-460
-524
-371
-271
-366
-276
96
226
-67
199
533
318
409
466
523
902
625
146
299
356
86
-223
-311
-201
-200
-381
-391
-219
-611
-565
-208
-556
-486
-419
-689
-571
-585
-712
-571
-457
-316
-482
-614
-374
-569
-541
-140
-346
-603
-397
-409
-550
-385
-384
-416
-250
-486
-554
-133
-62
-172
-30
102
164
378
334
-130
-214
-114
-235
-477
-618
-384
-500
-812
-713
-553
-719
-735
-529
-677
-876
-853
-810
-913
-581
443
1826
3666
5459
5848
3320
94
-455
-226
-537
-501
-619
-984
-1044
-944
-899
-880
-781
-811
-953
-816
-777
-777
-703
-703
-723
-732
-683
-672
-593
-561
-539
-572
-479
-238
-297
-228
-97
-109
73
141
103
319
577
483
296
610
684
515
636
458
91
91
267
334
-84
-262
-117
-306
-392
-365
-415
-532
-478
-364
-350
-482
-537
-554
-553
-365
-498
-515
-215
-364
-399
-206
-237
-415
-476
-316
-425
-486
-328
-213
-159
-162
-219
-175
-121
-157
45
74
77
259
280
369
338
131
22
-55
-238
-454
-473
-535
-609
-427
-522
-755
-608
-538
-877
-814
-380
-476
-781
-887
-386
974
2817
4931
6254
4909
1598
-266
-297
-356
-555
-747
-786
-712
-833
-962
-932
-810
-814
-794
-811
-1054
-884
-646
-769
-866
-820
-638
-648
-725
-589
-477
-377
-203
-479
-621
-337
-330
-288
-111
74
131
169
322
316
463
598
399
380
532
445
167
262
276
-128
-290
-327
-310
-332
-350
-358
-697
-630
-333
-706
-974
-677
-537
-663
-633
-669
-633
-501
-554
-625
-471
-416
-627
-434
-413
-517
-451
-570
-600
-594
-529
-444
-442
-487
-385
-283
-519
-428
-3
-40
-29
314
191
-113
-216
-239
-225
-263
-439
-703
-733
-682
-777
-944
-747
-675
-904
-857
-968
-912
-802
-932
-815
-751
-163
1492
3585
5308
5716
3616
461
-622
-541
-712
-799
-815
-984
-1241
-1105
-965
-988
-1058
-1175
-994
-887
-895
-906
-940
-786
-787
-765
-738
-884
-924
-765
-623
-734
-745
-458
-339
-405
-271
-128
-194
-125
225
290
402
499
307
496
544
353
418
374
147
180
34
-360
-346
-88
-135
-430
-540
-489
-523
-699
-697
-452
-547
-779
-611
-499
-492
-675
-769
-435
-398
-590
-400
-426
-640
-591
-549
-383
-290
-363
-415
-340
-352
-463
-361
-383
-489
-301
-134
-292
-150
131
113
147
302
239
-36
-181
-217
-286
-320
-532
-707
-513
-587
-661
-592
-715
-766
-565
-453
-786
-811
-679
-602
-93
1148
3095
4692
5787
5193
1930
-277
-261
-311
-556
-786
-563
-413
-724
-658
-673
-796
-678
-560
-638
-707
-408
-232
-398
-212
-193
-305
-3
-119
-176
212
291
219
103
48
362
390
264
676
910
867
1048
934
987
1442
1485
1351
1410
1492
1265
1006
992
929
776
765
770
408
400
571
308
314
373
315
353
370
350
254
196
362
539
522
237
-31
319
504
251
364
566
428
392
513
469
401
220
423
775
431
358
621
630
658
606
564
802
958
959
906
742
736
673
562
564
348
174
380
381
128
16
16
87
50
18
-69
-133
33
-24
-173
184
1370
3099
4828
6400
6131
3084
712
201
-75
3
20
-218
-303
-276
-240
-348
-332
-201
-305
-332
-237
-193
-52
-62
-133
-174
-277
-181
-23
-34
-115
-129
-138
9
277
186
136
345
401
617
839
674
562
870
1085
931
914
982
912
868
717
521
523
593
328
65
206
235
42
11
26
-209
-307
-34
-84
-237
-17
64
-126
-219
14
-88
-410
-275
-160
-274
-44
88
-162
-108
-54
-104
19
79
-71
-74
-52
-77
54
121
242
248
289
414
337
426
521
313
223
124
-124
-233
-218
-204
-323
-428
-379
-392
-456
-457
-432
-400
-526
-585
-523
-601
-690
-90
1457
3525
5504
6134
4254
971
-429
-82
-210
-673
-596
-471
-775
-766
-825
-899
-627
-549
-577
-806
-782
-676
-814
-590
-420
-414
-405
-456
-425
-442
-603
-536
-191
-204
-438
-223
-73
-183
159
318
148
336
499
501
568
764
666
516
576
628
523
224
57
-108
-65
-4
-332
-414
-233
-320
-519
-446
-248
-286
-517
-512
-463
-623
-251
-81
-530
-506
-275
-364
-509
-346
-185
-311
-468
-411
-296
-255
-232
-265
-268
-261
-242
-244
-95
-166
-319
111
225
130
390
400
181
77
83
122
-15
-327
-393
-458
-345
-263
-605
-722
-640
-664
-770
-554
-404
-866
-929
-592
-395
597
2539
4525
5893
5593
2713
129
-220
-308
-462
-634
-874
-618
-634
-928
-850
-798
-834
-920
-869
-727
-697
-679
-706
-541
-471
-629
-584
-375
-396
-528
-540
-516
-528
-418
-113
-96
-263
-68
155
188
358
621
735
575
533
645
558
654
655
362
372
391
222
-8
-134
-75
-17
-176
-370
-249
-278
-516
-421
-274
-305
-436
-534
-402
-217
-332
-456
-269
-300
-188
-51
-371
-421
-257
-181
-282
-202
-116
-340
-283
-179
-159
47
144
-33
-104
102
209
278
540
536
236
130
139
93
-129
-194
22
-447
-763
-416
-526
-663
-504
-443
-568
-417
-268
-672
-809
-716
-608
174
1531
3450
5474
6279
4282
989
-77
-24
-421
-454
-385
-642
-879
-813
-735
-811
-725
-680
-799
-727
-627
-652
-516
-446
-724
-609
-486
-560
-392
-397
-303
-299
-470
-303
-102
-165
-143
106
89
240
471
281
522
838
699
555
763
926
549
417
495
267
213
173
56
27
-1
-83
-320
-355
-206
-237
-275
-242
-311
-407
-443
-379
-250
-352
-354
-204
-431
-294
-15
-404
-412
-222
-344
-185
-55
-198
-302
-328
-182
-38
-117
-210
-116
89
82
122
190
429
693
262
114
417
237
99
82
-300
-458
-121
-236
-566
-391
-602
-794
-371
-285
-413
-479
-493
-590
-705
-232
938
2869
4731
6049
5728
2561
30
-98
-204
-395
-306
-646
-638
-470
-859
-827
-714
-792
-624
-487
-557
-644
-518
-415
-505
-631
-455
-322
-385
-258
-252
-273
-200
-216
-203
-82
-8
38
187
338
558
530
519
879
851
637
597
770
913
756
610
413
226
207
250
194
27
-135
-285
-152
-114
-279
-318
-379
-362
-294
-300
-364
-329
-248
-144
-95
-316
-347
-60
-146
-291
-82
-124
-64
32
-180
-146
-151
-65
10
-160
-67
131
180
177
216
284
363
545
525
384
334
377
285
-87
-302
-329
-156
-267
-358
-173
-415
-393
-80
-377
-615
-489
-476
-414
-463
-248
472
1898
3863
5585
6192
4010
822
-435
-335
-227
-283
-646
-967
-560
-467
-642
-569
-645
-654
-521
-501
-590
-628
-689
-599
-310
-259
-347
-536
-457
-189
-400
-418
-168
-112
-173
-74
188
213
85
205
443
592
688
633
723
964
860
589
612
707
566
384
203
-57
-29
125
-10
-124
-158
-259
-264
-227
-266
-257
-214
-264
-439
-443
-252
-313
-387
-354
-376
-152
-98
-173
-142
-151
-14
-212
-449
-187
-13
-75
-236
-182
-25
-91
-57
-110
-15
400
343
273
576
391
102
74
47
256
91
-351
-389
-356
-485
-474
-249
-536
-649
-393
-603
-567
-387
-556
-658
-488
-82
1041
2972
4897
6157
5157
1782
-238
-79
-93
-451
-648
-692
-727
-635
-584
-692
-545
-474
-744
-871
-676
-473
-521
-661
-555
-528
-617
-476
-263
-382
-559
-310
-126
-188
-259
-208
-33
8
145
286
243
386
409
484
759
715
568
623
772
731
534
389
358
132
-74
77
-81
-399
-361
-224
-333
-392
-292
-398
-327
-334
-471
-374
-410
-297
-235
-423
-296
-200
-142
-208
-440
-270
-205
-243
-256
-322
-262
-334
-299
-57
16
-170
-203
-22
1
136
103
201
697
573
346
297
130
-27
-367
-353
-308
-573
-392
-421
-635
-450
-343
-495
-611
-583
-528
-654
-714
-534
-430
443
2183
4017
5701
5935
3258
441
-49
-172
-501
-594
-424
-516
-887
-746
-845
-980
-722
-652
-659
-745
-710
-514
-483
-421
-372
-698
-620
-159
-282
-380
-393
-414
-257
-233
-179
-221
-71
185
134
209
526
691
604
730
756
558
615
771
689
536
424
263
358
332
-24
-186
-162
-78
-146
-372
-317
-335
-576
-418
-151
-129
-278
-307
-227
-376
-451
-338
-356
-235
-213
-390
-279
-135
-180
-318
-285
-264
-257
-96
-149
-284
-194
-135
-54
94
137
145
230
403
467
341
155
197
285
-90
-442
-308
-375
-602
-533
-406
-427
-553
-570
-483
-505
-537
-396
-569
-849
-610
249
1868
3796
5404
6120
4204
865
-209
-90
-402
-469
-514
-666
-793
-738
-607
-738
-767
-633
-721
-726
-603
-577
-531
-542
-725
-742
-521
-486
-548
-350
-409
-582
-260
52
-95
-212
56
115
32
162
348
446
414
599
846
643
512
613
636
593
355
155
263
187
-190
-329
-160
-159
-301
-256
-214
-252
-263
-462
-623
-448
-279
-296
-401
-453
-344
-477
-541
-203
-155
-382
-426
-398
-494
-336
-59
-162
-284
-198
-54
-70
-130
-41
-262
-177
252
110
109
440
330
42
151
259
238
86
-189
-176
-545
-590
-279
-562
-540
-483
-696
-623
-589
-573
-470
-530
-629
-653
-167
1017
2806
4829
6221
5142
1666
-259
-175
-258
-455
-546
-769
-861
-703
-813
-869
-687
-646
-837
-788
-565
-676
-844
-750
-497
-584
-653
-416
-376
-555
-523
-332
-355
-294
-188
-187
26
110
3
-50
258
747
689
499
486
551
816
827
538
476
376
280
377
199
-100
-28
-17
-284
-373
-270
-167
-395
-566
-244
-242
-443
-479
-502
-217
-189
-534
-464
-302
-338
-276
-314
-274
-105
-326
-367
-154
-329
-342
-155
-105
-71
-180
-200
-159
-135
103
173
43
247
521
456
306
270
167
61
-74
-246
-229
-159
-309
-475
-503
-578
-434
-364
-497
-489
-408
-456
-682
-726
-493
248
1576
3465
5275
6008
4666
1466
-427
-280
-309
-519
-530
-777
-782
-643
-613
-624
-599
-641
-675
-549
-521
-499
-530
-591
-510
-541
-585
-398
-379
-388
-290
-336
-248
-115
-107
-117
126
269
112
197
213
403
726
582
682
885
790
878
821
642
471
362
447
299
19
-39
-60
-144
-102
-160
-264
-153
-313
-501
-261
-323
-540
-243
-59
-361
-417
-191
-156
-362
-334
-148
-164
-180
-80
87
-92
-370
-187
-83
-168
4
-97
-233
-5
23
194
342
125
260
615
589
191
116
375
117
-234
-227
-203
-229
-282
-321
-482
-506
-399
-522
-577
-359
-216
-270
-519
-760
-237
907
2340
4106
5675
5878
3269
182
-374
-82
-247
-372
-588
-743
-566
-565
-697
-698
-516
-387
-644
-722
-773
-751
-459
-467
-388
-255
-372
-439
-576
-407
-29
-284
-552
-93
82
-140
-50
123
309
272
260
520
703
689
523
605
724
562
544
584
474
296
161
204
125
-8
-54
-220
-133
-88
-286
-319
-362
-349
-408
-464
-199
-4
-339
-562
-231
-268
-289
-52
-321
-375
-68
-113
-282
-195
-22
-103
-335
-344
-220
-249
-246
33
157
-96
-126
215
185
320
691
290
161
403
202
73
-77
-461
-579
-372
-396
-483
-469
-567
-444
-521
-600
-308
-363
-576
-435
-509
-369
794
2409
4513
6241
5553
2328
153
79
-412
-578
-329
-606
-637
-596
-744
-669
-561
-491
-708
-921
-646
-485
-527
-514
-641
-665
-485
-350
-298
-357
-511
-622
-198
117
-178
-181
76
50
13
206
450
548
468
455
597
804
839
705
766
687
471
457
229
33
63
9
10
-136
-394
-159
-5
-435
-382
-154
-394
-402
-304
-327
-175
-277
-442
-420
-227
-167
-411
-290
-128
-101
-265
-320
-188
-315
-325
-117
-24
-111
-155
-71
-58
-228
-106
122
154
446
588
266
302
387
196
108
-192
-285
-243
-376
-330
-423
-609
-449
-476
-599
-481
-467
-490
-561
-806
-784
-156
446
1643
3925
5754
6091
3705
604
-176
-179
-326
-475
-646
-578
-757
-929
-695
-646
-884
-879
-680
-593
-670
-787
-755
-707
-752
-503
-368
-552
-597
-552
-563
-454
-215
-193
-140
-105
-113
-63
-31
264
268
140
560
737
597
622
551
601
768
467
224
180
100
35
-151
-293
-187
-303
-414
-274
-336
-366
-665
-563
-339
-680
-555
-572
-513
-300
-595
-523
-299
-317
-379
-403
-643
-601
-164
-377
-508
-439
-432
-356
-462
-399
-373
-236
-40
-28
-137
-155
41
37
129
310
324
111
-20
-30
-296
-570
-558
-482
-684
-769
-730
-721
-714
-714
-740
-774
-588
-581
-915
-966
-500
206
1932
4033
5460
5793
3337
226
-478
-285
-526
-750
-804
-848
-961
-929
-748
-915
-1101
-806
-754
-917
-829
-823
-804
-602
-686
-867
-730
-634
-689
-577
-411
-527
-547
-334
-261
-304
-239
16
123
126
275
271
364
634
552
402
609
832
513
71
155
406
177
-260
-208
-185
-374
-195
-132
-406
-418
-407
-607
-674
-532
-439
-450
-515
-457
-361
-407
-464
-499
-539
-512
-355
-304
-375
-438
-389
-339
-468
-325
-194
-274
-40
-96
-345
-358
-144
33
-98
58
269
197
297
354
135
-7
-99
-302
-439
-322
-336
-491
-560
-732
-729
-646
-656
-600
-637
-721
-662
-603
-584
-467
464
2360
4237
5812
5825
2831
66
-371
-577
-597
-434
-675
-818
-837
-850
-806
-843
-829
-682
-682
-688
-665
-731
-738
-550
-552
-613
-597
-683
-440
-202
-344
-437
-287
-232
-343
-207
108
23
-25
184
338
427
470
602
604
839
868
416
489
569
285
198
172
-51
-113
-77
-263
-409
-340
-191
-224
-426
-441
-454
-464
-416
-584
-510
-387
-458
-414
-333
-238
-156
-332
-464
-221
-322
-387
-197
-354
-390
-222
-271
-405
-286
-163
-76
-77
-91
-26
-101
170
443
230
254
317
49
58
67
-282
-365
-356
-466
-295
-290
-629
-685
-423
-437
-655
-678
-489
-419
-615
-826
-365
851
2603
4613
5852
5495
2636
-26
-443
-318
-345
-561
-755
-710
-647
-655
-648
-729
-742
-670
-738
-838
-650
-377
-522
-788
-623
-458
-504
-290
-372
-565
-303
-335
-266
-83
-195
-178
-171
32
328
320
376
482
430
547
968
806
499
627
674
421
141
289
234
-61
-35
-17
-128
-201
-445
-306
-122
-384
-413
-259
-269
-360
-383
-402
-420
-516
-455
-250
-294
-380
-305
-230
-139
-189
-285
-259
-326
-233
-94
-236
-282
-147
-36
14
-62
-30
154
108
173
564
537
117
-2
140
204
-2
-325
-408
-329
-359
-534
-571
-452
-463
-557
-628
-546
-445
-565
-664
-637
-503
222
1937
3898
5562
6212
3816
409
-247
-9
-450
-487
-493
-685
-757
-864
-762
-673
-777
-782
-685
-671
-635
-465
-693
-775
-364
-285
-502
-684
-541
-258
-420
-520
-255
-132
-199
-206
-87
19
51
210
366
474
524
685
911
667
557
785
694
546
450
224
78
55
84
75
-59
-197
-210
-223
-416
-391
-222
-400
-388
-281
-380
-338
-205
-291
-368
-192
-229
-413
-358
-357
-302
31
-63
-335
-294
-258
-158
-94
-94
-158
-194
74
93
-127
-62
175
423
440
242
193
339
400
201
-179
-176
-90
-356
-530
-468
-312
-398
-476
-411
-467
-591
-535
-493
-616
-658
-512
182
1680
3747
5478
6161
4525
1058
-285
63
-214
-371
-533
-830
-850
-617
-508
-729
-677
-601
-701
-640
-538
-537
-616
-436
-318
-452
-413
-384
-473
-510
-305
-152
-263
-143
-74
-140
-48
44
163
312
421
461
437
572
916
868
652
867
899
593
499
364
86
142
224
-106
-174
28
-95
-440
-600
-259
69
-63
-375
-387
-183
-318
-377
-176
-231
-345
-191
-31
-250
-445
-285
-141
-231
-329
-192
-128
-219
-146
-32
-126
30
302
16
-140
171
439
363
247
393
396
286
313
198
-82
-187
-125
-244
-561
-441
-261
-447
-403
-489
-675
-412
-233
-420
-654
-717
-368
390
1986
4033
5762
6400
3732
341
-258
14
-259
-770
-770
-530
-630
-578
-514
-559
-698
-768
-607
-527
-669
-685
-466
-469
-445
-476
-557
-361
-402
-426
-321
-294
-94
-86
-186
-141
-9
288
321
101
345
712
674
643
708
602
704
774
590
459
458
511
229
118
76
4
-35
-167
-235
-301
-321
-356
-248
-336
-488
-383
-197
-222
-391
-233
-308
-455
-146
-168
-326
-224
-219
-213
-131
-130
-174
-134
-212
-243
-346
-232
229
-8
-236
2
154
274
295
429
528
410
259
326
267
-213
-220
-104
-456
-531
-382
-293
-425
-541
-575
-413
-265
-564
-437
-388
-815
-541
324
1722
3599
5336
6283
4418
1183
-162
-316
-349
-496
-592
-646
-700
-498
-615
-753
-517
-543
-656
-518
-359
-490
-706
-565
-338
-411
-362
-195
-502
-375
-166
-473
-200
-8
-206
-103
74
351
437
199
267
576
825
931
730
805
976
729
750
684
330
408
475
241
61
-17
-24
-7
-237
-343
-234
-268
-286
-216
-180
-315
-421
-372
-255
-156
13
-200
-511
-150
-20
-86
-13
-159
-120
-125
-209
-104
-42
-105
-243
-263
-2
104
-98
54
224
257
322
331
492
368
226
349
227
185
-11
-280
-277
-306
-284
-383
-463
-426
-401
-446
-437
-332
-350
-403
-736
-955
-276
869
2305
3967
5505
6012
3589
310
-459
-237
-276
-395
-455
-316
-752
-992
-813
-626
-314
-516
-612
-554
-623
-546
-431
-493
-567
-288
-340
-464
-348
-402
-433
-277
-173
-104
-15
-83
43
195
235
338
460
449
427
623
809
870
693
602
654
592
559
423
186
56
20
-81
-102
-222
-459
-258
-23
-190
-289
-339
-462
-311
-197
-253
-344
-449
-387
-231
-129
-96
-160
-199
-186
-230
-237
-129
-163
-275
-174
-243
-226
-71
-72
-72
-38
-4
53
289
392
399
510
417
233
200
231
-102
-273
-189
-481
-409
-248
-470
-549
-498
-510
-430
-312
-407
-488
-517
-682
-514
400
1754
3496
5214
5950
4373
1262
-202
-162
-279
-415
-538
-598
-694
-752
-498
-580
-842
-791
-594
-498
-608
-621
-626
-446
-426
-547
-461
-591
-553
-259
-104
-380
-354
-189
-277
-41
-69
55
309
156
411
658
536
461
591
765
841
772
426
344
354
439
432
143
187
96
-215
-226
-125
-176
-327
-336
-217
-283
-354
-288
-357
-273
-161
-388
-502
-228
-165
-336
-101
-6
-414
-412
-36
24
-128
-238
-288
-249
-109
-82
-133
-25
229
253
179
280
374
413
401
366
49
69
266
-174
-243
-146
-332
-348
-384
-454
-458
-529
-518
-451
-472
-304
-456
-914
-743
-173
722
2468
4411
5931
5755
2781
254
-87
-229
-417
-586
-640
-602
-700
-571
-532
-709
-941
-883
-465
-539
-813
-665
-636
-548
-393
-599
-745
-518
-294
-348
-399
-282
-85
-147
-354
-159
-26
14
326
368
366
530
578
615
712
844
722
604
672
568
349
97
-6
111
207
-35
-315
-152
-88
-363
-465
-334
-364
-325
-178
-420
-456
-401
-311
-107
-307
-243
-267
-502
-354
-288
-296
-135
-54
-215
-142
-5
-279
-312
72
22
-312
-140
17
80
301
270
256
291
408
350
313
506
114
-292
-377
-493
-429
-464
-543
-382
-517
-646
-382
-515
-691
-233
-281
-958
-719
368
1545
3426
5456
6158
4380
1112
-95
-13
-422
-529
-556
-579
-591
-778
-683
-527
-864
-842
-599
-723
-668
-568
-719
-714
-484
-358
-529
-625
-437
-389
-460
-421
-213
-260
-217
97
35
-149
70
320
328
488
594
500
551
773
750
565
749
704
377
411
448
267
-109
-300
-229
-171
-163
-393
-510
-346
-273
-355
-182
-157
-456
-311
-211
-280
-220
-418
-407
-324
-429
-83
-14
-393
-311
-204
-335
-297
-196
-79
-54
-20
-39
-76
160
115
-24
306
429
225
436
485
187
139
32
-270
-401
-200
-220
-526
-587
-373
-376
-637
-641
-392
-559
-763
-560
-589
-534
-68
1162
3283
5033
6076
5039
1511
-362
-166
-246
-483
-742
-719
-581
-740
-826
-781
-748
-801
-730
-524
-747
-767
-519
-696
-656
-419
-450
-418
-432
-482
-360
-348
-349
-241
26
56
-127
-152
-52
425
376
194
577
578
722
883
628
659
611
565
718
447
251
216
-67
-189
-81
-194
-261
-139
-435
-365
-245
-510
-451
-296
-101
-225
-564
-513
-335
-315
-183
-177
-232
-209
-310
-107
-157
-184
-74
-418
-338
-93
-79
-41
-164
-319
97
390
-72
100
452
338
335
200
213
333
64
-153
-65
-269
-445
-321
-365
-313
-497
-728
-499
-460
-662
-573
-394
-680
-800
-310
511
2122
4136
5813
6001
3229
349
-132
-305
-556
-354
-568
-897
-707
-634
-727
-455
-552
-814
-696
-596
-656
-722
-510
-465
-588
-545
-452
-356
-429
-461
-213
31
-190
-454
-345
-9
121
-17
206
406
483
568
576
679
733
770
600
524
657
533
401
293
158
118
167
-3
-244
-283
-235
-265
-377
-379
-299
-263
-431
-416
-288
-423
-406
-219
-266
-388
-330
-318
-402
-192
-185
-355
-244
-156
-196
-188
-30
-218
-233
59
-163
-164
21
89
307
315
388
342
206
207
39
24
-113
-342
-428
-675
-543
-437
-603
-442
-425
-410
-466
-544
-393
-533
-767
-718
-337
699
2564
4345
5714
5505
2632
60
-390
-167
-466
-714
-606
-852
-834
-722
-782
-728
-773
-607
-590
-671
-642
-841
-606
-336
-724
-771
-237
-424
-805
-457
-311
-411
-293
-213
-339
-400
-59
335
167
114
469
435
384
653
627
572
752
530
283
300
235
335
153
-87
-62
-143
-199
-306
-377
-355
-386
-458
-393
-369
-412
-467
-493
-456
-607
-456
-92
-169
-418
-513
-433
-335
-334
-218
-114
-256
-228
-291
-229
-73
-347
-316
-45
-60
-144
106
381
255
323
458
49
194
464
-134
-348
-193
-382
-522
-469
-428
-636
-764
-614
-631
-608
-362
-476
-663
-641
-748
-381
936
3000
4899
6024
5272
2011
-301
-329
-206
-492
-721
-526
-569
-762
-783
-852
-758
-831
-945
-802
-573
-464
-723
-618
-384
-742
-739
-336
-423
-575
-431
-301
-279
-268
-236
-278
-208
-113
111
291
359
582
390
444
864
635
660
747
386
455
561
385
10
-61
207
-34
-186
-118
-285
-364
-359
-393
-340
-290
-298
-237
-440
-647
-235
-211
-628
-421
-179
-339
-377
-169
-313
-475
-232
-251
-328
-111
63
-102
-153
58
-75
-34
64
-91
221
455
326
342
207
242
373
163
-45
-303
-487
-466
-487
-521
-182
-173
-741
-748
-499
-554
-495
-319
-592
-881
-482
422
2043
4226
5803
6008
3382
165
-91
88
-567
-633
-637
-699
-497
-703
-804
-553
-843
-1034
-763
-596
-577
-645
-675
-547
-519
-540
-528
-606
-388
-309
-417
-262
-310
-479
-246
129
165
-19
47
224
277
519
647
502
607
691
674
565
378
554
490
171
165
70
-187
-152
-75
-269
-237
-232
-549
-353
-218
-480
-431
-272
-258
-369
-406
-489
-582
-338
-254
-338
-411
-287
-195
-449
-186
-152
-480
-270
-198
-169
64
-40
-283
-272
-91
32
253
266
134
394
486
344
145
15
-144
-252
-200
-417
-595
-367
-268
-551
-600
-531
-569
-556
-403
-426
-700
-741
-571
103
1587
3355
5134
6381
4822
1240
-164
9
-310
-590
-721
-644
-539
-612
-707
-654
-522
-644
-670
-517
-759
-801
-426
-416
-595
-486
-426
-543
-405
-237
-349
-473
-244
-116
-225
-75
52
170
247
186
339
417
450
672
752
726
757
691
665
790
681
316
192
254
62
-52
-39
-216
-356
-181
-167
-347
-237
-95
-92
-275
-478
-342
-271
-380
-382
-236
-110
-249
-321
-163
-160
-205
-103
-89
-125
-121
-115
-124
-16
115
4
-37
64
132
305
411
546
640
352
245
417
267
-172
-226
-16
-124
-258
-435
-635
-445
-362
-354
-361
-472
-381
-452
-567
-604
-439
309
1800
3755
5392
6204
4336
786
-316
-95
-194
-262
-744
-754
-577
-843
-772
-730
-593
-476
-688
-572
-461
-609
-587
-289
-319
-461
-405
-504
-526
-376
-304
-306
-289
-119
-128
-117
182
218
209
245
386
532
616
665
755
795
768
953
734
453
560
449
92
85
71
-121
-142
-172
-355
-455
-232
-200
-210
-20
-327
-624
-426
-86
-186
-441
-307
-289
-167
-239
-337
1
-82
-434
-466
-213
-64
-274
-292
-159
-87
53
129
-96
-287
-52
68
35
382
535
213
182
348
170
13
-22
-188
-206
-211
-279
-427
-626
-456
-193
-454
-736
-664
-585
-494
-518
-750
-772
246
1858
3589
5139
5787
4253
1176
-212
-449
-576
-439
-503
-568
-702
-745
-723
-798
-700
-700
-771
-662
-666
-666
-649
-525
-429
-465
-489
-631
-526
-391
-477
-442
-226
-154
-207
-92
-168
-308
45
451
329
93
449
900
755
474
453
507
591
724
527
261
254
192
-116
-174
62
-161
-479
-442
-344
-403
-296
-181
-501
-658
-336
-201
-434
-397
-312
-317
-316
-283
-277
-287
-269
-377
-316
-68
-130
-468
-442
-106
29
-18
54
-104
-204
4
99
356
513
423
244
50
188
73
-146
-84
-282
-430
-457
-588
-530
-507
-580
-439
-503
-712
-548
-460
-609
-605
-605
-12
1735
3712
5290
5988
3991
757
-155
-5
-421
-620
-592
-686
-823
-736
-619
-823
-882
-701
-698
-744
-617
-647
-515
-536
-710
-576
-624
-387
-305
-511
-492
-483
-355
-118
-108
-291
-205
92
138
59
231
572
533
420
589
491
603
743
532
627
402
93
243
110
-98
-202
-377
-362
-305
-410
-352
-286
-413
-395
-259
-356
-380
-457
-623
-226
-189
-533
-573
-401
-64
-290
-489
-310
-250
-191
-176
-286
-311
-97
-265
-329
-91
-209
-96
61
40
319
287
-8
262
416
144
177
-4
-264
-231
-419
-497
-579
-606
-384
-624
-807
-612
-553
-480
-597
-687
-610
-755
-208
1445
3312
4950
6309
4828
986
-354
-20
-300
-595
-737
-671
-694
-691
-673
-846
-774
-732
-712
-835
-965
-578
-552
-831
-677
-731
-656
-224
-623
-873
-384
-249
-328
-441
-351
-221
-135
160
279
80
131
518
407
414
634
437
464
531
562
509
327
411
157
-62
17
-161
-183
-106
-103
-332
-423
-336
-568
-453
-349
-466
-394
-277
-452
-616
-327
-290
-484
-565
-405
-174
-279
-425
-462
-263
-137
-380
-382
-177
-94
26
65
-67
15
-36
-135
173
282
335
470
208
170
408
43
-454
-418
-278
-489
-431
-359
-689
-769
-512
-331
-520
-572
-545
-674
-917
-828
-151
828
2680
4716
6044
5384
1944
-226
-110
-305
-499
-642
-691
-665
-830
-882
-947
-557
-500
-955
-835
-741
-743
-599
-610
-629
-592
-600
-538
-494
-445
-499
-437
-163
-387
-408
-190
-170
218
68
-118
331
460
580
630
471
557
831
712
436
470
375
422
399
98
91
28
-280
-426
-344
-236
-335
-347
-364
-395
-338
-394
-338
-408
-528
-481
-391
-198
-186
-450
-325
-119
-271
-282
-337
-406
-267
-147
-134
-197
-21
60
-49
-16
-65
-93
36
360
526
392
267
369
389
205
188
-138
-435
-305
-219
-553
-659
-319
-380
-487
-455
-591
-555
-366
-484
-850
-760
-43
924
2843
4832
5810
5283
2311
-78
-401
-356
-263
-462
-849
-933
-484
-498
-1006
-700
-536
-802
-497
-579
-848
-454
-473
-580
-440
-582
-476
-358
-442
-343
-207
-133
-332
-418
-124
-39
36
261
221
188
529
687
494
617
800
935
855
577
529
478
364
206
158
42
90
-34
-278
-131
-276
-182
-141
-594
-532
-188
-237
-509
-478
-161
-255
-533
-253
-183
-443
-386
-292
-273
-236
-52
-58
-214
-184
-109
-142
-183
-29
-133
-376
94
291
-34
190
416
424
366
461
353
24
51
-14
-310
-341
-206
-335
-461
-529
-496
-388
-341
-492
-706
-650
-547
-632
-672
-248
503
1788
3703
5462
5910
3631
748
-145
-442
-587
-649
-669
-446
-690
-780
-675
-851
-732
-747
-657
-507
-724
-366
-478
-951
-745
-613
-357
-207
-452
-430
-389
-441
-331
-289
-251
-46
84
-41
-126
-53
323
616
450
448
670
875
763
584
465
400
317
87
109
96
-13
-62
-256
-409
-473
-474
-197
-151
-456
-525
-395
-276
-329
-463
-427
-336
-515
-525
-187
-391
-585
-396
-295
-217
-185
-350
-418
-218
-361
-327
94
-23
-249
-30
-164
-204
218
217
336
223
11
354
340
-32
-267
-252
-338
-681
-633
-478
-553
-507
-542
-564
-626
-744
-643
-491
-693
-948
-546
434
1980
4010
5714
5919
3250
123
-271
-32
-505
-405
-630
-930
-625
-822
-959
-786
-715
-735
-881
-831
-657
-717
-750
-706
-709
-492
-524
-601
-342
-447
-665
-474
-288
-370
-434
-290
-90
-88
64
396
443
366
470
627
711
725
420
262
547
528
344
291
78
-53
-142
-302
1
6
-512
-406
-266
-456
-452
-371
-497
-479
-334
-387
-480
-526
-345
-255
-452
-439
-233
-239
-284
-325
-382
-276
-162
-79
-146
-103
-67
-265
-102
-45
-98
181
282
267
395
360
121
221
366
106
-20
-95
-466
-608
-297
-364
-443
-416
-696
-635
-511
-448
-327
-518
-760
-869
-648
421
1930
3666
5813
6379
3733
651
-194
-371
-693
-461
-390
-684
-797
-524
-527
-838
-740
-692
-766
-745
-710
-589
-537
-578
-520
-514
-444
-415
-595
-404
-332
-434
-407
-172
14
-178
-35
213
190
150
182
415
704
596
667
857
521
424
609
698
379
71
336
267
-40
-128
-222
-235
-216
-298
-359
-314
-272
-264
-291
-449
-436
-272
-174
-245
-357
-267
-334
-448
-394
-269
-207
-294
-198
-111
-185
-37
-198
-429
-67
-54
-161
17
-47
37
196
184
443
636
352
147
282
300
187
-82
-362
-252
-171
-451
-683
-604
-466
-580
-620
-396
-411
-376
-393
-796
-777
-186
929
2758
4809
6279
5579
2264
-102
-57
-174
-514
-533
-427
-464
-834
-737
-677
-833
-516
-410
-722
-710
-649
-756
-526
-399
-623
-679
-498
-384
-489
-462
-358
-178
31
-115
-272
-186
150
233
68
363
453
343
530
646
736
705
696
751
644
696
395
101
326
232
-106
-158
-21
-158
-311
-261
-315
-318
-277
-220
-251
-410
-336
-324
-382
-111
-113
-395
-212
-86
-194
-254
-306
-153
-80
-107
-236
-364
-114
175
-9
-243
-85
125
74
118
506
414
194
507
438
270
368
341
38
-497
-375
-204
-306
-159
-232
-585
-744
-553
-494
-374
-287
-561
-689
-626
-460
119
1625
3598
5207
6072
4575
1222
-335
-210
-325
-310
-461
-727
-855
-781
-618
-820
-807
-690
-759
-598
-392
-518
-636
-653
-689
-299
-255
-639
-642
-378
-194
-348
-465
-295
-65
-66
49
215
82
245
527
368
531
810
589
543
759
1006
798
369
390
435
246
211
8
-476
-292
-3
-289
-317
-161
-275
-276
-260
-369
-441
-481
-323
-228
-322
-235
-314
-333
-197
-306
-248
-78
-65
-341
-326
-70
-339
-274
57
-44
-203
-74
-20
-66
129
59
59
262
387
427
248
261
210
-52
7
78
-78
-216
-274
-346
-382
-335
-518
-516
-400
-494
-510
-615
-528
-538
-660
-103
678
1961
4149
5819
5783
3255
233
-336
-193
-463
-500
-479
-477
-532
-484
-789
-697
-387
-873
-870
-616
-663
-431
-460
-771
-544
-199
-294
-601
-499
-132
-358
-410
-124
-59
-169
-230
11
230
275
322
319
431
641
727
718
563
640
759
566
566
494
134
106
227
247
70
-125
-298
-226
-2
-436
-480
-131
-269
-446
-466
-314
-256
-292
-329
-292
-266
-412
-345
-220
-290
-297
-183
-163
-218
-193
-158
-98
-268
-268
113
-109
-378
-124
57
69
94
212
389
376
195
125
61
154
47
-268
-52
-181
-718
-505
-237
-561
-689
-430
-535
-665
-485
-540
-676
-790
-755
-233
791
2539
4576
5989
5330
2115
-127
-150
-164
-492
-812
-660
-439
-879
-943
-592
-488
-851
-1070
-634
-578
-808
-759
-593
-662
-557
-636
-782
-144
-279
-751
-456
-213
-375
-417
-140
-112
-158
113
296
127
163
362
428
562
702
625
573
657
460
336
491
196
139
286
-138
-170
-218
-454
-289
-252
-283
-373
-536
-417
-350
-397
-182
-148
-363
-475
-337
-271
-547
-365
-44
-356
-468
-80
-61
-382
-343
-142
-231
-251
-124
-14
-125
-156
-58
-178
74
353
324
390
325
308
263
84
-54
-210
-359
-331
-249
-462
-561
-556
-523
-394
-473
-532
-502
-525
-486
-774
-811
-125
809
2420
4399
5828
5575
2593
12
-196
-211
-536
-566
-401
-571
-763
-703
-790
-789
-648
-684
-796
-801
-768
-617
-457
-572
-552
-602
-671
-267
-418
-731
-371
-228
-407
-188
32
-219
-214
83
288
226
203
462
551
583
678
529
550
853
664
371
251
112
112
0
72
-32
-212
-175
-358
-346
-292
-417
-449
-285
-260
-399
-314
-360
-529
-460
-244
-267
-339
-150
-229
-407
-303
-65
-99
-364
-292
-243
-328
-200
-160
-123
-20
-106
-49
140
140
135
195
291
365
311
125
95
144
-181
-319
-295
-558
-573
-277
-326
-536
-566
-597
-420
-338
-517
-572
-835
-1014
-448
464
2072
4108
5655
6000
3541
386
-232
-50
-659
-696
-362
-669
-807
-629
-681
-763
-602
-655
-930
-877
-646
-669
-680
-463
-448
-468
-627
-660
-416
-389
-439
-419
-269
-228
-120
-20
-76
127
178
340
464
174
380
700
642
638
757
613
339
287
222
357
406
-13
-246
-206
-213
-185
-234
-399
-544
-552
-376
-233
-277
-535
-442
-244
-502
-532
-283
-352
-414
-217
-194
-360
-238
-22
-391
-523
-267
-308
-239
-227
-355
-125
36
-261
-416
-218
205
383
143
282
483
350
102
0
140
-102
-263
-205
-358
-463
-612
-578
-281
-403
-701
-686
-500
-455
-652
-770
-785
-463
407
1717
3522
5446
6216
4203
905
-244
-264
-666
-690
-409
-469
-909
-736
-389
-803
-1002
-592
-705
-923
-597
-549
-592
-428
-443
-530
-429
-387
-474
-386
-176
-293
-462
-159
-102
-57
80
20
83
178
418
453
518
681
599
805
898
646
593
564
476
643
377
-152
-139
-256
-148
152
-249
-487
-280
-344
-304
-176
-254
-226
-152
-277
-451
-391
-261
-301
-253
-181
-288
-333
-256
-191
-223
-77
-45
-317
-278
-194
-113
-82
-91
-19
-12
110
66
7
294
539
538
429
245
196
110
-25
-100
-457
-584
-432
-386
-384
-499
-539
-389
-243
-391
-526
-473
-591
-715
-427
453
2153
4233
5649
5747
3124
166
-94
-51
-539
-644
-644
-646
-727
-834
-710
-683
-727
-655
-547
-421
-710
-790
-463
-569
-780
-422
-174
-425
-429
-483
-602
-215
-78
-300
-236
-53
77
27
264
482
263
514
635
454
562
677
701
545
539
635
443
232
225
126
-21
-117
-239
-234
-234
-338
-265
-353
-538
-351
-235
-340
-426
-323
-268
-412
-257
-194
-378
-365
-469
-310
15
-130
-229
-202
-351
-391
-171
-29
-129
-144
-49
-3
150
653
1317
1619
1752
1964
1888
1797
966
-455
-1014
-1226
-1202
-906
-681
-599
-753
-859
-783
-776
-785
-526
-187
-176
-534
-450
-214
-210
-61
-83
-4
-58
-178
9
325
484
335
609
769
408
589
949
953
1111
1411
1502
1546
1585
1644
1621
1742
1914
1490
1496
1819
1455
1108
1133
993
650
723
545
-21
92
109
-216
-269
-324
-151
-247
-603
-312
-169
-267
-318
-440
-420
-429
-440
-486
-546
-375
-224
-600
-726
-418
-393
-304
-487
-742
-581
-512
-578
-659
-585
-466
-446
-421
-442
-616
-665
-466
-625
-600
-303
-567
-814
-702
-533
-532
-516
-235
-320
-550
-367
-359
-497
-312
42
117
134
366
161
-118
53
69
-176
-430
-454
-320
-454
-665
-786
-737
-473
-494
-779
-951
-653
-345
-707
-979
-745
30
1692
3514
4964
5885
4434
1044
-415
-220
-572
-813
-749
-671
-624
-702
-812
-883
-876
-845
-833
-741
-655
-796
-805
-639
-691
-792
-733
-641
-626
-576
-308
-275
-622
-498
-156
-344
-497
-195
4
-82
121
179
205
607
390
332
856
883
409
332
434
445
489
174
104
114
-141
-37
-98
-483
-378
-397
-572
-344
-323
-434
-368
-284
-218
-225
-296
-421
-300
35
-150
-576
-321
-154
-387
-372
-355
-209
-127
-214
-265
-120
119
28
211
391
229
388
250
45
225
142
2
-103
-232
-347
-474
-567
-661
-605
-418
-509
-644
-548
-699
-721
-550
-825
-903
-114
1436
3524
5364
5996
4287
1118
-269
-150
-479
-654
-540
-692
-751
-678
-823
-808
-777
-796
-802
-820
-514
-590
-897
-583
-480
-764
-572
-417
-609
-466
-308
-469
-498
-302
15
-43
-314
-58
168
65
393
552
214
425
705
633
784
720
330
486
591
152
142
108
-214
-212
-168
-239
-353
-474
-412
-442
-686
-540
-361
-411
-320
-289
-499
-441
-186
-369
-434
-255
-323
-482
-412
-323
-403
-387
-384
-462
-498
-409
-106
-16
-212
-299
-204
83
350
299
281
388
252
241
133
-239
-222
-271
-546
-550
-452
-482
-600
-580
-619
-773
-687
-591
-442
-567
-1020
-801
-297
940
3216
5153
6196
4938
1571
-237
-136
-153
-514
-714
-501
-725
-1066
-912
-622
-579
-757
-773
-892
-959
-708
-594
-632
-597
-471
-453
-574
-467
-319
-461
-393
-189
-278
-359
-383
-137
-68
-45
237
294
485
704
450
397
796
595
497
926
646
306
297
95
106
254
230
-45
-317
-345
-377
-162
-160
-313
-409
-595
-349
-224
-343
-254
-167
-288
-410
-353
-221
-217
-176
-135
-223
-336
-262
-122
-222
-121
-142
-184
-62
-214
-181
198
394
293
375
430
246
130
246
294
-48
-175
-244
-444
-249
-362
-579
-470
-503
-605
-584
-531
-498
-496
-491
-519
-736
-393
820
2634
4701
6080
5372
2200
-138
-251
-254
-542
-776
-723
-457
-564
-820
-771
-745
-856
-703
-570
-706
-623
-658
-646
-371
-473
-565
-418
-393
-388
-243
-482
-367
79
-307
-457
-12
120
37
88
100
326
755
651
469
566
611
800
688
490
532
221
123
241
6
-148
-71
-254
-509
-301
-320
-488
-329
-211
-372
-484
-243
-342
-455
-269
-409
-458
-346
-281
-304
-550
-353
-20
-102
-211
-397
-312
-229
-358
-108
-68
-190
-86
54
152
95
156
312
311
222
98
175
210
-193
-400
-270
-390
-448
-224
-578
-795
-385
-527
-630
-329
-505
-756
-609
-745
-849
-137
1175
2923
4798
6054
4948
1507
-408
-113
-252
-466
-441
-757
-696
-677
-891
-695
-707
-793
-552
-716
-859
-737
-680
-591
-609
-605
-660
-458
-201
-335
-476
-522
-427
-324
-243
-183
-137
-37
107
285
326
379
407
466
635
675
557
410
507
669
477
335
128
-151
-51
-62
-158
-214
-262
-260
-397
-366
-329
-330
-357
-474
-362
-324
-266
-349
-561
-364
-283
-403
-296
-294
-265
-36
-364
-403
-123
-319
-293
-157
-11
-5
-123
-134
-181
-83
228
446
266
122
253
203
240
327
-20
-260
-117
-85
-375
-340
-385
-765
-570
-388
-530
-656
-462
-252
-582
-689
-750
-564
657
2309
4085
5601
5594
3048
340
-273
-256
-303
-296
-475
-722
-839
-688
-682
-733
-487
-579
-797
-923
-830
-453
-439
-464
-540
-771
-685
-427
-252
-360
-584
-414
-269
-199
-42
-98
51
177
36
190
373
405
381
574
888
716
503
550
585
458
450
334
-36
-22
103
-34
-230
-160
-273
-515
-274
-311
-598
-362
-289
-372
-398
-490
-403
-453
-122
-68
-601
-381
-124
-431
-362
-168
-287
-273
-210
-101
-24
-187
-193
-212
-200
6
30
-27
37
388
599
435
348
311
164
63
-238
-422
-191
-314
-577
-574
-641
-615
-428
-499
-663
-415
-319
-653
-821
-733
-289
708
2347
4228
5945
5894
2772
146
-198
-408
-539
-404
-579
-679
-747
-865
-670
-553
-672
-732
-734
-769
-726
-578
-738
-712
-435
-608
-599
-424
-471
-579
-165
26
-571
-478
-186
-344
-64
297
103
225
737
660
351
354
788
854
580
668
434
410
444
160
379
230
-242
-244
-88
-147
-361
-374
-254
-81
-285
-650
-421
-175
-507
-494
-284
-340
-281
-401
-231
-160
-445
-261
-93
-302
-230
21
-305
-374
-186
-277
-51
-97
-312
-164
-201
-78
345
336
45
350
694
270
11
330
346
-107
-280
-173
-260
-503
-696
-600
-392
-454
-596
-531
-381
-330
-339
-599
-845
-521
154
1550
3788
5592
6109
4176
915
-294
-98
-320
-418
-342
-673
-938
-807
-642
-586
-677
-906
-784
-473
-599
-698
-393
-484
-783
-497
-502
-572
-278
-419
-423
-224
-310
-186
-12
-164
-58
301
338
281
294
358
613
968
854
631
704
839
785
387
357
688
438
-58
20
3
-249
-82
-166
-472
-256
-65
-371
-441
-252
-287
-281
-240
-314
-386
-190
-60
-212
-318
-279
-80
28
-210
-355
-147
23
-63
-157
-190
-99
-6
-86
-46
28
15
213
421
198
259
535
471
286
185
261
114
-93
-155
-341
-357
-211
-301
-431
-317
-227
-438
-441
-374
-556
-572
-596
-603
40
1648
3564
4953
6012
5146
1689
-285
-139
-367
-505
-357
-374
-667
-716
-256
-462
-855
-638
-488
-544
-612
-624
-698
-516
-167
-495
-497
-227
-568
-413
-129
-188
-80
-116
-241
-114
13
133
292
288
623
767
484
631
789
672
666
869
751
417
445
459
154
239
364
10
50
-48
-260
-155
-361
-280
-196
-381
-238
-279
-429
-332
-226
-160
-174
-311
-433
-197
-33
-264
-310
-92
32
-125
-88
59
-183
-193
92
63
-128
-145
-108
-34
169
180
126
276
580
544
90
15
189
225
130
-146
-322
-391
-326
-292
-565
-349
-148
-454
-357
-515
-775
-471
-505
-649
-225
701
2132
3800
5474
6025
3558
541
69
-205
-760
-424
-416
-616
-548
-571
-666
-587
-532
-652
-635
-656
-666
-562
-515
-442
-448
-380
-291
-495
-487
-176
-161
-385
-299
-182
-176
49
-16
43
379
343
343
525
766
806
657
711
606
476
841
895
329
98
140
130
43
-100
-257
-286
-42
-36
-343
-387
-208
-339
-513
-274
-309
-378
-149
-386
-395
-284
-448
-304
-132
-139
-391
-558
-249
15
-271
-255
-1
-217
-310
-178
-127
-27
-36
-87
82
188
279
517
464
223
18
-46
31
-49
-75
-263
-441
-426
-497
-320
-445
-801
-513
-418
-560
-437
-415
-560
-983
-835
181
1796
3656
5189
5979
3999
651
-270
-31
-339
-523
-591
-776
-802
-620
-700
-776
-569
-680
-782
-599
-764
-739
-406
-508
-617
-528
-561
-482
-370
-460
-450
-315
-340
-324
-266
-118
-13
-15
157
410
551
508
441
394
722
920
604
650
691
367
275
481
400
92
163
187
-187
-462
-358
-186
-355
-496
-294
-126
-270
-367
-356
-433
-233
-175
-318
-226
-300
-543
-419
-153
-361
-421
-83
-66
-215
-225
-82
-145
-220
-70
-184
-99
136
-39
-227
9
274
236
382
507
453
360
153
91
-182
-380
-118
-333
-622
-388
-361
-418
-448
-580
-461
-380
-490
-388
-564
-953
-571
607
2193
4091
5881
6086
3446
319
-298
-80
-396
-639
-601
-489
-757
-761
-647
-807
-742
-452
-472
-728
-713
-577
-616
-437
-314
-578
-652
-543
-329
-404
-360
-197
-319
-229
-217
-245
-118
50
318
300
253
609
655
612
782
549
507
647
498
642
500
48
161
137
22
47
-108
-298
-479
-374
-245
-387
-195
-34
-503
-521
-234
-255
-348
-441
-385
-267
-271
-313
-324
-310
-269
-160
-129
-330
-338
-25
36
-245
-289
-57
-44
-183
-90
-33
-25
175
341
242
314
463
266
242
88
-278
-14
-72
-659
-598
-437
-479
-386
-359
-401
-456
-566
-512
-510
-608
-713
-765
-109
1457
3650
5278
5930
4549
1122
-287
48
-152
-525
-795
-502
-555
-901
-778
-867
-657
-492
-760
-690
-671
-787
-551
-408
-546
-541
-585
-663
-524
-140
-117
-422
-415
-213
118
-61
-323
21
260
377
476
614
611
620
895
719
571
865
713
430
459
454
449
257
47
-93
-263
-246
-102
-7
-108
-344
-412
-164
-227
-404
-180
-289
-474
-315
-183
-91
-203
-152
-211
-493
-149
53
-224
-220
-223
-352
-133
105
75
-51
-69
31
54
17
44
289
376
311
336
362
486
411
116
-174
-208
-109
-325
-333
-229
-597
-634
-367
-330
-382
-536
-402
-411
-892
-707
-121
451
1978
3816
5471
6176
3698
348
-306
7
-477
-672
-627
-731
-672
-627
-698
-772
-576
-644
-793
-491
-435
-648
-718
-509
-433
-524
-326
-189
-389
-533
-371
-63
-132
-296
-167
-208
-126
90
443
490
284
510
583
647
818
811
993
830
299
472
640
312
183
96
-104
-63
46
-100
-189
-203
-378
-363
-299
-326
-204
-193
-380
-557
-461
-192
-143
-340
-249
-185
-152
145
-137
-265
-168
-281
-94
-64
-206
-83
-43
-186
-155
-153
3
387
47
1
519
321
359
314
216
519
162
-197
-238
-299
-237
-264
-397
-512
-449
-410
-406
-430
-634
-746
-450
-286
-564
-389
680
2357
4082
5566
5911
3314
331
-76
-191
-640
-578
-633
-684
-507
-601
-797
-765
-616
-598
-652
-653
-598
-543
-762
-514
-140
-455
-607
-371
-346
-374
-311
-348
-227
-61
-115
-33
26
4
192
382
513
507
489
770
875
632
594
575
601
730
533
279
243
84
-134
-132
-105
-200
-300
-373
-385
-346
-180
-196
-516
-370
-198
-479
-508
-224
-297
-523
-304
-233
-364
-212
-25
-174
-290
-89
-128
-253
-218
-203
-93
85
62
-103
-88
-46
156
427
460
482
337
216
314
216
-123
-307
-295
-385
-499
-521
-455
-191
-359
-781
-619
-557
-521
-318
-600
-809
-396
410
1884
3822
5594
6075
3422
289
-168
-146
-430
-468
-647
-733
-785
-727
-747
-929
-929
-782
-670
-576
-559
-697
-704
-681
-618
-447
-412
-425
-442
-419
-404
-488
-542
-306
23
-45
-163
29
129
256
491
650
512
458
550
466
753
889
395
220
412
286
31
-69
-80
-217
-252
-272
-348
-279
-231
-413
-533
-280
-187
-348
-477
-417
-371
-439
-378
-290
-371
-465
-395
-281
-169
-264
-538
-342
-56
-250
-517
-484
-47
148
-139
-266
-202
-140
203
413
286
357
276
148
282
362
165
-351
-499
-371
-378
-440
-724
-698
-398
-423
-527
-605
-597
-384
-484
-806
-701
-214
993
3196
5261
6224
4949
1448
-410
0
-225
-624
-643
-664
-628
-757
-666
-716
-740
-438
-654
-946
-611
-478
-740
-675
-631
-659
-559
-494
-414
-175
-266
-539
-590
-397
-44
-145
-117
180
85
114
255
424
758
809
652
610
681
579
525
548
342
314
247
-134
-140
195
76
-131
-324
-487
-246
-282
-486
-351
-374
-285
-6
-283
-494
-384
-306
-334
-381
-306
-252
-229
-374
-383
-121
-155
-330
-16
-8
-279
-13
-34
-197
-90
-21
-47
84
493
528
455
426
420
235
-35
219
-77
-723
-241
-55
-685
-492
-416
-593
-420
-580
-656
-478
-346
-453
-683
-756
-374
850
2583
4578
6180
5673
2474
-187
-172
52
-491
-590
-550
-694
-792
-711
-603
-805
-872
-782
-667
-505
-508
-614
-765
-644
-549
-537
-223
-323
-605
-427
-253
-329
-290
-130
-12
-29
5
137
207
312
502
766
620
563
833
754
587
716
734
506
462
209
-30
-27
-28
-75
-295
-253
-183
-332
-342
-383
-343
-276
-401
-473
-438
-352
-291
-44
-94
-389
-337
-278
-177
-234
-372
-173
-140
-163
-112
-243
-226
-161
-86
-101
-100
43
-2
119
420
311
205
417
295
272
454
120
-141
-352
-471
-373
-310
-231
-334
-529
-493
-290
-378
-532
-437
-314
-421
-605
-425
530
2341
4359
5745
5622
3080
180
-551
-305
-357
-612
-755
-581
-403
-617
-933
-823
-689
-680
-580
-648
-627
-554
-596
-464
-406
-433
-518
-603
-40
-28
-623
-388
-263
-430
-112
131
-74
-43
286
271
350
843
867
578
681
924
874
571
481
574
502
382
201
73
-29
-199
-166
-177
-359
-209
47
-183
-518
-487
-236
-160
-300
-394
-311
-208
-226
-316
-316
-315
-308
-169
-98
-116
-58
-198
-352
-73
-185
-293
-9
-1
-100
-52
-22
-84
155
644
644
328
207
201
181
203
-2
-359
-356
-438
-567
-564
-482
-355
-531
-625
-394
-386
-525
-614
-738
-727
-240
708
2325
4376
5810
5641
2891
211
-215
-253
-504
-572
-595
-580
-666
-891
-906
-652
-553
-707
-778
-759
-711
-638
-447
-540
-687
-354
-401
-593
-290
-328
-528
-280
-323
-302
-255
-255
275
210
13
194
247
452
749
817
534
433
535
591
627
390
304
330
55
-114
-69
71
-121
-333
-426
-537
-491
-394
-206
-328
-461
-358
-376
-389
-362
-299
-239
-246
-312
-364
-243
-254
-390
-358
-337
-279
-287
-228
-53
-12
-104
-149
107
-76
-323
200
299
189
413
269
187
312
304
39
-275
-260
-306
-438
-316
-336
-571
-698
-649
-545
-460
-531
-602
-615
-669
-668
-258
1138
2875
4549
6046
5298
1951
-169
-150
-359
-418
-335
-715
-759
-700
-879
-970
-813
-538
-631
-874
-597
-411
-577
-772
-797
-538
-296
-252
-540
-648
-272
-227
-635
-407
-97
-133
105
77
-81
177
417
437
469
740
856
589
595
563
537
568
431
352
196
166
-76
-161
-132
-199
-51
-214
-323
-379
-413
-229
-340
-621
-549
-356
-351
-233
-175
-248
-200
-265
-364
-287
-255
-229
-163
-114
-119
-396
-403
-89
-157
-174
-61
73
34
-138
181
411
391
447
349
251
249
241
105
-338
-466
-295
-425
-518
-408
-428
-579
-509
-399
-550
-386
-374
-838
-898
-495
450
2032
3854
5574
6235
3807
419
-144
157
-402
-675
-665
-503
-330
-722
-925
-721
-770
-729
-459
-506
-776
-725
-723
-717
-385
-409
-614
-483
-258
-246
-441
-318
-125
-269
-145
81
-31
-105
121
448
510
424
433
576
684
676
778
791
519
272
293
371
330
87
-217
-128
-89
-317
-228
-300
-555
-295
-188
-460
-521
-507
-422
-281
-193
-118
-282
-428
-390
-491
-272
-26
-410
-518
-314
-278
-18
-69
-383
-377
-187
38
-129
-123
136
69
259
281
148
561
457
-60
99
254
-8
-34
-254
-616
-511
-486
-458
-346
-623
-776
-587
-529
-426
-409
-751
-862
-277
515
1827
3937
5852
6088
3315
345
-183
-161
-312
-530
-735
-618
-656
-895
-845
-584
-642
-777
-867
-831
-644
-492
-504
-685
-722
-591
-483
-353
-312
-427
-481
-480
-304
-180
-165
30
70
-37
77
307
285
365
604
559
671
867
657
628
661
378
236
395
230
6
339
16
-511
-274
-186
-327
-311
-254
-399
-505
-285
-371
-455
-121
-150
-389
-302
-187
-245
-184
-266
-408
-338
-331
-78
21
-340
-365
-127
64
41
-63
-43
-66
194
306
138
345
561
575
525
274
76
87
-22
-280
-417
-313
-260
-400
-496
-524
-562
-468
-287
-403
-522
-526
-688
-485
282
1356
3108
5090
6219
4837
1395
-166
-83
-362
-348
-447
-690
-803
-747
-301
-378
-835
-772
-447
-519
-760
-715
-484
-297
-589
-654
-212
-253
-334
-244
-452
-371
-132
-222
-113
294
191
-134
86
190
251
674
689
623
836
644
721
982
607
626
786
162
35
272
-21
-90
30
-144
-274
-143
-262
-273
-338
-349
-58
-324
-469
-398
-510
-293
-178
-296
-203
-213
-308
-354
-203
169
-60
-441
-274
-207
-161
129
-37
-381
-231
-93
228
466
182
267
428
251
305
243
138
175
63
-106
-353
-317
-298
-465
-413
-434
-418
-392
-603
-639
-578
-573
-539
-478
-73
545
1843
3886
5593
6017
3604
396
-351
-146
-277
-368
-471
-640
-683
-736
-743
-531
-414
-468
-817
-988
-721
-321
-378
-665
-440
-453
-536
-251
-227
-166
-48
-248
-493
-381
-61
-49
65
109
322
441
270
580
681
564
660
828
791
632
567
591
577
372
289
65
-224
-147
-23
-58
-151
-170
-297
-448
-134
66
-370
-515
-389
-333
-291
-251
-117
-167
-268
-263
-268
-168
157
-11
-430
-250
76
13
-249
-191
-21
-79
-75
93
109
327
509
399
320
352
387
159
167
113
-177
-245
-195
-216
-326
-374
-431
-593
-574
-365
-468
-680
-481
-497
-724
-284
379
1472
3269
5120
6067
4423
1212
-225
-175
-250
-411
-635
-636
-524
-775
-920
-657
-619
-767
-677
-593
-827
-546
-324
-695
-548
-452
-644
-395
-334
-498
-454
-552
-210
-130
-374
-82
-199
-240
219
380
289
434
755
742
539
366
452
714
655
612
383
111
184
72
-110
-213
-206
-43
-56
-322
-526
-596
-506
-218
-310
-523
-322
-385
-427
-252
-254
-320
-472
-440
-339
-267
-286
-445
-108
113
-304
-362
-98
-78
-147
-128
-57
71
88
-13
114
361
477
363
175
260
351
28
-343
-372
-395
-392
-343
-523
-376
-257
-543
-504
-450
-620
-480
-473
-671
-521
-133
914
2688
4676
6296
5521
2070
-218
-155
-175
-420
-532
-673
-623
-790
-919
-678
-696
-750
-629
-753
-702
-491
-626
-669
-441
-517
-433
-152
-344
-557
-526
-587
-413
-54
-110
-70
46
-87
37
167
415
572
456
771
685
422
683
693
589
463
397
478
268
43
26
164
88
-208
-291
-292
-520
-438
-190
-341
-265
-311
-598
-332
-184
-461
-476
-418
-289
-59
-217
-285
-199
-311
-307
-226
-124
-174
-274
-191
-221
-21
247
-49
-135
143
347
509
490
329
198
229
281
38
-91
-370
-525
-263
-432
-684
-574
-343
-374
-550
-588
-619
-526
-453
-689
-671
21
1378
3297
5153
6157
4590
1429
46
-360
-333
-188
-742
-805
-597
-710
-889
-777
-719
-832
-680
-763
-815
-474
-529
-808
-702
-510
-635
-703
-472
-461
-469
-329
-323
-194
-114
-404
-379
110
96
59
385
384
424
615
521
588
683
568
609
360
132
240
151
93
104
-51
-383
-498
-385
-416
-412
-339
-176
-254
-654
-429
-115
-456
-462
-259
-328
-426
-446
-363
-272
-193
-252
-263
-199
-123
-144
-329
-314
-272
-179
62
40
-178
-123
146
272
308
349
353
227
297
322
62
-217
-382
-432
-323
-194
-462
-477
-439
-616
-530
-559
-549
-334
-495
-787
-778
-332
805
2613
4572
5992
5583
2349
-164
-46
-109
-427
-485
-756
-590
-638
-981
-653
-586
-586
-534
-769
-715
-766
-710
-478
-506
-715
-639
-171
-280
-752
-639
-249
-230
-304
-71
-150
-216
134
126
148
426
460
580
545
569
907
773
530
657
656
506
409
247
66
-157
-75
-7
-182
-84
-118
-536
-503
-208
-329
-345
-333
-426
-448
-398
-315
-175
-273
-452
-332
-238
-140
-167
-139
-304
-486
-47
-53
-401
-187
58
-149
-158
87
95
225
350
388
554
346
165
452
230
-178
-195
-290
-438
-419
-303
-244
-414
-619
-498
-438
-536
-660
-709
-479
-473
-464
233
1544
3212
5021
6073
4526
1319
-420
-340
-223
-584
-735
-488
-499
-831
-911
-678
-502
-731
-760
-489
-495
-569
-414
-515
-688
-579
-512
-426
-382
-426
-339
-231
-258
-323
-214
-5
-8
58
235
263
399
621
591
587
685
586
505
620
634
420
217
243
295
23
-123
77
-88
-373
-298
-264
-374
-281
-159
-415
-626
-524
-416
-399
-343
-256
-204
-227
-125
-223
-266
-73
-366
-420
-195
-359
-522
-311
117
27
-260
-132
-143
-25
140
46
174
461
491
244
123
120
177
120
-225
-287
-360
-687
-495
-317
-478
-509
-378
-481
-718
-412
-341
-646
-824
-922
-162
1363
3000
4714
6183
5068
1305
-426
-219
-430
-304
-536
-942
-708
-648
-596
-644
-905
-873
-702
-606
-768
-812
-709
-594
-525
-602
-579
-535
-551
-430
-220
-285
-503
-505
-264
-147
-107
66
68
171
382
340
473
590
672
617
365
560
607
302
267
287
122
77
54
-171
-143
-88
-400
-496
-420
-484
-465
-295
-240
-373
-499
-488
-328
-418
-317
-100
-411
-514
-290
-211
-217
-366
-425
-189
-202
-331
-305
-263
-28
-20
-235
-9
121
-103
227
812
368
-87
97
-35
150
271
-265
-495
-328
-457
-738
-646
-520
-602
-607
-619
-486
-440
-555
-714
-870
-382
508
2002
4084
5745
5763
3054
251
-181
-175
-609
-615
-721
-773
-508
-825
-969
-777
-856
-626
-622
-752
-777
-847
-593
-524
-641
-551
-540
-491
-522
-597
-401
-324
-256
-199
-279
-216
-15
-11
209
444
224
344
760
625
533
770
632
525
489
374
274
67
-19
-50
-333
-227
-13
-366
-442
-170
-266
-494
-427
-358
-364
-291
-373
-538
-361
-290
-421
-322
-352
-507
-463
-235
-98
-120
-318
-427
-303
-227
-23
4
-259
-56
65
-182
263
417
-53
193
369
319
337
-9
-110
-55
-132
-216
-507
-407
-40
-602
-821
-365
-552
-832
-692
-412
-463
-669
-545
-65
1012
2953
5130
6337
5051
1707
-274
-305
-281
-564
-754
-588
-580
-702
-599
-827
-914
-681
-634
-761
-924
-697
-580
-784
-620
-377
-582
-753
-609
-267
-294
-541
-426
-352
-72
3
-265
236
351
-135
314
537
312
451
558
617
577
594
502
428
484
303
86
-35
52
-22
-320
-224
-135
-290
-476
-435
-173
-253
-471
-340
-214
-414
-629
-550
-395
-209
-75
-274
-350
-413
-252
50
-123
-165
-315
-504
-269
-25
-72
-119
-77
-123
25
249
369
548
521
128
186
349
9
-218
-247
-276
-295
-276
-522
-741
-464
-491
-594
-505
-526
-596
-655
-622
-648
-241
1006
2708
4531
6202
5616
2134
-30
1
-458
-705
-415
-526
-872
-855
-528
-720
-958
-693
-553
-455
-506
-955
-932
-539
-660
-703
-387
-332
-554
-436
-221
-338
-363
-274
-267
-136
-4
2
118
224
403
460
517
634
548
768
890
458
449
585
337
282
222
15
-34
-33
-162
-174
-190
-396
-357
-433
-490
-196
-316
-456
-285
-308
-376
-469
-391
-352
-367
-339
-331
-120
-187
-349
-392
-396
-39
-50
-514
-186
53
-169
27
-10
-99
116
420
553
333
267
192
203
275
27
-206
-321
-290
-235
-604
-704
-368
-403
-581
-490
-598
-719
-217
-339
-1021
-714
302
1822
3596
5122
5891
4205
1152
-173
-462
-799
-622
-559
-658
-679
-843
-900
-706
-487
-526
-595
-714
-873
-720
-491
-536
-603
-523
-610
-520
-368
-395
-308
-416
-308
-174
-334
-151
12
103
247
240
405
432
434
583
799
899
540
375
419
406
365
352
358
-2
-147
-121
-338
-196
-100
-415
-523
-209
-118
-314
-313
-339
-503
-375
-303
-304
-349
-456
-389
-126
-57
-478
-451
-165
-151
-228
-67
178
-142
-254
35
-83
-166
-65
93
143
244
463
260
191
162
-96
17
77
-217
-184
-199
-488
-401
-463
-905
-679
-362
-637
-681
-461
-422
-783
-792
-26
1382
3206
4674
5772
4853
1617
-60
-90
-400
-507
-531
-608
-691
-812
-655
-547
-907
-998
-793
-694
-648
-612
-505
-562
-645
-531
-499
-606
-498
-199
-229
-426
-384
-329
-162
-146
-172
108
278
241
238
424
696
611
417
485
754
899
534
266
193
156
92
30
47
-87
-79
-76
-296
-443
-496
-393
-161
-286
-563
-351
-275
-434
-342
-473
-339
-188
-362
-468
-399
-124
-150
-186
-338
-479
-357
-114
-125
-360
-158
-47
-74
67
166
153
138
218
435
421
113
231
50
-347
-327
-403
-292
-338
-670
-624
-392
-360
-544
-578
-494
-620
-604
-589
-835
-644
377
1958
3804
5570
5903
3224
384
30
-177
-570
-417
-534
-751
-879
-645
-600
-905
-816
-817
-877
-888
-713
-636
-699
-584
-575
-578
-481
-222
-320
-477
-414
-523
-479
-384
-170
-72
-49
96
-178
185
698
515
531
463
509
649
644
628
301
220
394
315
83
-92
-122
-18
-232
-458
-263
-357
-409
-418
-452
-279
-235
-330
-415
-420
-447
-417
-405
-405
-362
-420
-413
-316
-238
-250
-332
-171
-137
-306
-195
-226
-215
-124
-221
-180
44
306
248
175
300
443
373
86
90
42
-247
-326
-264
-401
-605
-537
-377
-544
-640
-582
-612
-525
-361
-423
-788
-737
77
1567
3526
5403
6230
4126
710
-239
-39
-230
-520
-836
-793
-582
-385
-638
-1005
-946
-736
-611
-570
-731
-748
-285
-621
-1092
-634
-377
-336
-500
-434
-345
-617
-334
-89
-171
-34
-59
-133
152
220
193
574
657
392
664
799
484
566
641
465
241
148
178
-13
-145
-181
-127
-266
-553
-264
-287
-421
-247
-496
-441
-295
-446
-481
-490
-361
-387
-434
-108
-126
-398
-300
-407
-340
50
-254
-450
-153
-174
-261
-201
-284
-90
192
81
45
77
314
789
532
271
322
43
44
-58
-324
-394
-501
-523
-448
-573
-490
-386
-759
-637
-330
-544
-506
-448
-728
-59
1627
3322
5056
6296
4946
1321
-421
-337
-471
-334
-535
-850
-688
-638
-739
-767
-461
-461
-1034
-834
-374
-518
-483
-403
-482
-517
-563
-516
-296
-412
-543
-141
-156
-234
-55
-118
2
127
53
274
514
555
769
803
656
661
687
706
515
459
706
494
172
130
35
32
14
-215
-242
-198
-330
-160
-282
-598
-411
-273
-241
-307
-305
-266
-245
-177
-422
-127
9
-302
-142
-184
-267
-173
-20
-122
-279
-107
-61
42
4
-113
242
297
217
320
237
361
530
292
33
234
258
-159
-360
-196
-179
-259
-273
-443
-517
-438
-481
-499
-305
-315
-408
-486
-448
172
1600
3683
5289
5979
4366
893
-315
-27
-421
-504
-443
-661
-724
-404
-503
-814
-538
-452
-798
-625
-474
-789
-483
-240
-542
-652
-569
-289
-182
-344
-131
-65
-439
-393
-104
-35
75
150
60
213
498
477
533
833
957
795
656
756
593
392
437
250
172
200
74
-113
-227
-108
-147
-224
-261
-295
-124
-346
-390
-233
-500
-307
-97
-424
-403
-267
-240
-8
-221
-475
-198
-92
-247
-266
-166
-162
-208
-177
-33
-50
-128
-141
-103
55
-46
116
533
429
304
215
-23
123
17
-390
-357
-246
-350
-474
-619
-673
-586
-504
-375
-525
-649
-686
-793
-659
-555
-199
984
2895
4920
6069
4983
1653
-525
-335
-273
-649
-641
-705
-643
-459
-821
-932
-666
-588
-660
-927
-880
-497
-563
-654
-584
-672
-608
-585
-598
-480
-344
-245
-246
-506
-458
-12
-78
-221
24
179
236
336
502
591
530
526
518
588
740
512
142
59
71
50
25
-59
-16
-264
-559
-419
-478
-414
-163
-313
-515
-521
-518
-328
-322
-517
-304
-157
-443
-485
-355
-382
-277
-253
-291
-357
-403
-244
-268
-275
-5
-146
-452
-163
12
-183
-149
87
395
267
145
370
79
-110
-38
-246
-299
-257
-561
-838
-687
-524
-590
-619
-580
-663
-699
-588
-753
-1082
-861
-169
714
2613
4489
5627
5362
2005
-296
-86
-371
-695
-860
-888
-748
-899
-740
-634
-877
-894
-916
-878
-920
-968
-680
-612
-812
-785
-642
-568
-508
-528
-496
-532
-557
-326
-213
-323
-368
-234
-217
-206
84
476
615
550
477
571
631
474
443
364
200
129
141
-7
-114
-98
-350
-535
-518
-395
-409
-512
-523
-447
-428
-478
-423
-539
-428
-399
-449
-400
-329
-376
-663
-410
-255
-492
-439
-340
-259
-181
-530
-649
-236
-148
-248
-346
-367
-79
34
43
262
210
120
210
118
135
122
-233
-482
-562
-604
-667
-755
-590
-614
-813
-634
-562
-795
-655
-417
-855
-1159
-603
402
2074
4040
5573
5814
3038
27
-361
-258
-609
-661
-810
-1010
-485
-716
-1203
-887
-963
-960
-774
-834
-848
-802
-743
-642
-738
-661
-553
-629
-399
-520
-757
-529
-434
-338
-184
-200
-169
-125
-156
5
303
310
300
617
773
603
437
510
406
291
312
125
-54
-277
-197
51
-219
-381
-380
-512
-621
-607
-281
-356
-449
-299
-520
-578
-274
-447
-566
-394
-504
-435
-396
-428
-479
-278
-87
-253
-346
-340
-185
-258
-193
-71
-312
-131
97
-88
74
187
186
483
381
175
87
-91
-17
-143
-569
-579
-363
-371
-400
-571
-842
-797
-517
-284
-266
-445
-788
-966
-725
125
1625
3619
5357
6120
4242
692
-372
-210
-591
-583
-601
-759
-675
-582
-758
-869
-742
-680
-509
-479
-718
-684
-645
-606
-613
-696
-465
-390
-460
-435
-363
-338
-400
-302
-246
59
160
-43
215
275
181
462
764
641
576
698
510
457
613
535
472
437
212
63
-47
-103
266
-56
-589
-192
-295
-384
-200
-426
-473
-217
-232
-352
-216
-277
-248
-222
-320
-160
-31
-182
-268
-157
-13
-29
-259
-267
-92
-49
-33
65
41
-67
-49
42
216
301
330
460
495
360
359
294
75
28
-130
-248
-33
-268
-585
-236
-253
-442
-495
-508
-382
-408
-291
-443
-712
-240
815
2363
4211
5687
5865
3324
294
-280
-155
-379
-517
-632
-600
-724
-746
-465
-519
-440
-338
-513
-672
-563
-322
-555
-424
-218
-580
-609
-303
-221
-409
-447
-255
-74
35
-37
-101
3
24
342
782
508
324
575
722
648
551
737
758
616
418
393
568
293
-127
-252
-75
54
-204
-349
-273
-234
-34
-203
-586
-328
-156
-267
-202
-274
-383
-448
-282
-120
-279
-281
-163
-154
-38
23
-48
-246
-455
-37
60
-275
-105
-28
-35
108
112
193
342
382
300
249
246
289
166
-148
-136
-298
-461
-336
-310
-363
-609
-681
-723
-550
-381
-485
-459
-691
-859
-285
735
2271
4486
5769
5500
2941
-23
-304
-181
-640
-610
-556
-733
-670
-493
-763
-827
-642
-744
-731
-719
-788
-578
-380
-517
-744
-605
-492
-569
-348
-398
-590
-324
-56
-212
-351
-156
-45
-144
21
481
426
308
646
623
455
547
629
606
468
491
430
-25
-92
21
-221
-211
-228
-315
-401
-512
-238
-324
-448
-200
-281
-324
-292
-418
-486
-445
-392
-318
-336
-432
-263
-190
-335
-208
-111
-220
-318
-390
-253
-32
-133
-273
-198
-73
-13
198
307
2
120
385
376
197
109
323
208
-179
-229
-357
-530
-373
-533
-500
-331
-572
-624
-485
-450
-667
-616
-677
-766
215
1396
3095
5274
6172
4495
1281
-70
-62
-312
-467
-598
-614
-788
-852
-752
-750
-632
-502
-630
-783
-700
-577
-445
-514
-560
-385
-575
-648
-365
-437
-300
-217
-489
-210
-32
-231
-171
83
184
50
292
623
635
714
838
730
470
416
713
618
177
137
239
307
51
-265
-106
-139
-305
-122
-203
-502
-425
-283
-198
-97
-215
-380
-465
-435
-344
-326
-376
-360
-183
-169
-285
-73
-109
-241
-51
-120
-216
-119
-52
-108
-32
169
119
103
283
355
422
501
422
177
252
272
-185
-275
-142
-179
-303
-558
-601
-493
-394
-149
-403
-620
-397
-526
-746
-778
-247
637
1970
4040
5742
6024
3541
473
-196
-128
-488
-664
-549
-628
-590
-366
-572
-714
-754
-841
-667
-629
-694
-589
-485
-416
-568
-698
-645
-399
-215
-382
-326
-250
-330
-277
-141
-96
152
474
95
31
461
585
674
714
675
629
596
512
566
533
298
341
320
-52
-171
-62
-144
-110
-120
-379
-369
-156
-375
-403
119
-117
-515
-312
-337
-328
-356
-430
-282
-291
-291
-146
-135
-45
-78
-370
-295
-188
-119
-31
-209
-286
-83
124
64
174
290
283
457
538
445
110
73
281
1
-300
-221
-265
-405
-405
-329
-435
-501
-347
-558
-703
-601
-611
-604
-618
-315
592
2244
4233
5635
5950
3624
642
-252
-313
-390
-551
-567
-593
-604
-578
-731
-712
-713
-669
-397
-500
-850
-627
-434
-611
-386
-289
-393
-280
-268
-356
-507
-179
99
-325
-324
34
109
20
151
488
606
590
726
751
600
763
755
551
757
742
300
168
283
318
263
-99
-321
-168
-67
-183
-135
-180
-498
-432
-89
-19
-369
-380
-188
-251
-270
-191
-149
-181
-138
-103
-243
-230
-50
-42
-39
-110
-98
15
-69
-6
114
47
129
267
266
409
527
554
502
230
131
-16
-195
-193
-256
-408
-289
-63
-372
-608
-398
-312
-375
-510
-411
-343
-725
-730
-126
1191
3087
4581
5873
5448
2068
-135
-183
-453
-351
-292
-716
-574
-452
-774
-831
-646
-659
-690
-487
-528
-640
-474
-513
-699
-485
-248
-388
-514
-331
-65
-164
-390
-400
-47
-12
-162
149
144
325
560
359
460
707
740
719
730
653
531
577
705
404
212
254
-159
-252
164
-155
-535
-361
-148
6
-346
-502
-257
-181
-269
-379
-322
-217
-211
-266
-235
-282
-237
-136
-198
-127
-183
-298
-240
-199
-41
-136
-186
80
-86
-73
190
143
229
482
529
452
348
122
44
156
177
-48
-404
-610
-462
-303
-450
-625
-477
-379
-569
-549
-500
-499
-414
-686
-483
783
2331
4125
5763
5733
2998
213
-224
-204
-389
-534
-749
-584
-597
-786
-652
-487
-630
-892
-864
-733
-579
-557
-668
-503
-384
-445
-407
-402
-473
-485
-500
-355
-37
-148
-402
-125
249
179
210
368
285
503
643
529
770
790
516
588
611
477
373
277
142
95
-25
-388
-237
-136
-405
-272
-256
-271
-264
-396
-105
-260
-665
-317
-225
-457
-238
-237
-455
-323
-150
-166
-125
-107
-256
-233
4
-105
-346
-167
-22
2
14
39
116
104
198
445
526
390
315
284
168
35
-136
-384
-393
-260
-365
-440
-473
-423
-467
-588
-583
-438
-340
-695
-861
-454
381
1537
3376
5345
6218
4507
1014
-257
-177
-504
-373
-456
-701
-558
-745
-990
-670
-748
-867
-651
-684
-747
-593
-438
-678
-734
-288
-290
-619
-600
-506
-346
-175
-263
-278
-279
-322
-107
140
179
251
297
159
331
688
875
839
530
418
588
547
372
359
142
-111
50
75
-173
-424
-470
-248
-375
-465
-291
-433
-451
-176
-254
-414
-244
-269
-355
-327
-328
-337
-232
-130
-437
-587
-181
2
-239
-357
-230
-131
-112
-57
-77
-38
114
214
231
440
769
469
-140
-59
188
181
16
-267
-330
-509
-572
-306
-296
-470
-678
-746
-518
-379
-388
-530
-870
-545
242
1257
3304
5247
6182
4732
1152
-378
55
-153
-460
-448
-679
-898
-751
-647
-829
-681
-515
-822
-921
-833
-434
-310
-775
-469
-336
-721
-536
-416
-399
-189
-431
-642
-328
105
104
-292
-97
179
207
298
440
578
440
610
873
618
503
689
483
203
263
123
181
144
-307
-289
-347
-418
-248
-181
-197
-412
-420
-275
-423
-414
-257
-454
-520
-235
-301
-477
-271
-215
-298
-163
-145
-319
-363
-174
-127
-248
-107
-18
-144
-289
-99
147
134
269
385
428
509
447
152
32
149
-120
-392
-336
-413
-489
-506
-581
-730
-635
-461
-712
-583
-248
-208
-569
-1040
-390
994
2855
4797
6008
5376
2196
-29
-60
-170
-460
-766
-984
-737
-528
-839
-870
-627
-833
-796
-681
-818
-720
-339
-528
-914
-676
-296
-253
-601
-448
-357
-334
-7
-317
-492
-212
57
221
94
23
158
364
521
607
677
896
882
641
742
692
341
190
175
57
45
-34
-238
-81
-83
-192
-242
-389
-335
-312
-314
-367
-349
-360
-370
-166
-154
-361
-408
-189
-274
-502
-209
48
-56
-110
-224
-310
-170
-110
-5
2
-124
-89
-59
1
382
639
304
193
247
297
589
337
-149
-254
-342
-429
-396
-466
-579
-364
-160
-461
-588
-546
-532
-416
-464
-663
-450
389
1648
3604
5582
6196
3986
732
-260
-167
-464
-632
-595
-694
-804
-602
-503
-720
-860
-649
-472
-687
-734
-536
-584
-650
-524
-480
-493
-490
-536
-221
-71
-219
-354
-436
-195
36
241
230
80
127
383
670
582
526
958
921
475
488
450
518
602
563
373
-84
-113
-87
-168
-147
-66
-89
-261
-329
-453
-399
-272
-311
-235
-362
-465
-241
-175
-370
-433
-118
-143
-372
-300
-277
-54
105
-192
-349
-174
61
644
317
-393
-94
52
222
317
333
596
508
137
22
144
133
44
-27
-317
-588
-408
-337
-550
-497
-312
-376
-590
-641
-485
-429
-590
-670
-157
1049
3036
4854
5710
5078
2049
-198
-267
-242
-400
-505
-483
-686
-706
-573
-804
-756
-563
-475
-567
-790
-509
-405
-621
-628
-528
-300
-298
-352
-327
-492
-425
-199
-193
-292
-136
28
104
253
164
216
424
488
585
606
783
939
617
379
441
432
351
261
114
132
54
-279
-365
-297
-337
-335
-190
-170
-422
-600
-393
-370
-482
-326
-281
-267
-263
-345
-293
-203
-336
-368
-178
-73
-102
-338
-417
-251
-120
38
-25
-297
-221
137
148
231
470
258
175
349
330
52
-246
8
-24
-478
-344
-170
-475
-656
-487
-483
-377
-351
-667
-594
-539
-710
-782
-615
31
1286
3259
5108
6031
4574
1228
-141
-25
-377
-598
-759
-663
-552
-710
-773
-706
-668
-807
-783
-876
-1012
-637
-435
-569
-514
-446
-425
-600
-539
-242
-302
-407
-414
-432
-348
-83
35
1
52
207
318
380
484
649
826
871
767
489
357
380
371
423
188
-142
-66
-1
-286
-229
-141
-397
-397
-369
-350
-303
-461
-418
-340
-513
-387
-276
-300
-192
-304
-421
-300
-68
-152
-387
-209
-256
-345
-183
-178
-106
-241
-290
12
16
-71
-25
41
312
490
309
261
325
370
419
-12
-161
-148
-466
-501
-512
-479
-408
-531
-634
-668
-565
-443
-459
-385
-483
-854
-530
930
2774
4751
6221
5406
2192
-109
-41
-68
-626
-674
-600
-527
-779
-1141
-864
-691
-750
-614
-568
-552
-558
-772
-541
-410
-688
-513
-476
-617
-596
-606
-376
-173
-233
-332
-356
-206
-29
300
540
226
474
725
354
455
540
716
772
489
436
209
178
369
148
-49
-118
-211
-156
-208
-342
-290
-389
-483
-178
-243
-436
-354
-365
-385
-438
-313
-219
-403
-615
-524
-264
-138
-341
-563
-325
34
-53
-381
-281
-78
-270
-360
33
178
40
-63
13
484
423
89
147
258
150
66
-105
-511
-483
-450
-623
-553
-365
-462
-731
-640
-249
-446
-817
-787
-975
-768
-146
1065
2981
4820
6178
5092
1776
-145
-316
-309
-365
-680
-892
-751
-711
-764
-844
-892
-696
-724
-811
-685
-809
-774
-492
-606
-596
-368
-398
-589
-569
-394
-450
-370
-223
-308
-255
48
180
230
387
513
414
218
508
918
853
627
565
617
688
628
377
204
103
-209
-157
80
-201
-404
-381
-256
-144
-197
-272
-465
-406
-153
-361
-447
-200
-231
-182
-74
-340
-469
-259
-181
-178
-219
-317
-28
-7
-311
-85
-8
-223
-133
148
226
48
173
295
189
297
373
148
283
440
-29
-162
-37
-268
-455
-304
-335
-712
-582
-208
-480
-590
-477
-642
-579
-716
-664
108
1049
2812
4848
6174
5419
1889
-32
75
-555
-724
-472
-660
-631
-447
-612
-929
-894
-558
-630
-690
-483
-577
-686
-642
-419
-245
-555
-570
-385
-435
-391
-251
-258
-166
27
-54
-80
157
268
192
524
764
613
598
681
627
463
715
895
551
347
464
484
187
8
-40
-63
-143
-303
-318
-381
-379
-301
-311
-304
-289
-214
-335
-457
-528
-335
-67
-155
-156
-285
-398
-240
-153
-248
-310
-299
-2
-16
-334
-139
-120
-155
94
80
-82
-137
119
432
378
430
459
156
128
126
-44
-180
-295
-446
-362
-176
-530
-586
-413
-532
-586
-569
-265
-272
-621
-801
-507
297
1439
3310
5183
6095
4393
892
-454
-160
-361
-592
-479
-579
-798
-614
-470
-711
-996
-791
-482
-647
-782
-747
-583
-336
-414
-601
-585
-452
-489
-445
-156
-195
-262
-249
-309
-262
-88
260
224
92
435
674
495
504
654
636
693
631
496
494
485
287
112
112
5
-228
-287
-277
-254
-404
-586
-411
-254
-349
-372
-382
-423
-364
-481
-524
-411
-428
-482
-336
-254
-136
-188
-550
-507
-291
-162
-98
-297
-427
-98
2
-244
-218
-224
-225
217
438
223
361
265
66
158
-74
-274
-247
-264
-423
-521
-586
-759
-611
-375
-666
-941
-736
-486
-502
-680
-925
-755
-88
1147
3128
4989
5914
4585
1237
-386
-64
-460
-796
-708
-870
-975
-974
-776
-528
-908
-1135
-860
-900
-882
-754
-448
-617
-898
-672
-561
-622
-584
-381
-628
-575
-365
-473
-316
-245
-227
-47
-59
147
436
126
60
471
618
570
427
329
432
427
146
230
342
-135
-317
-391
-531
-241
-103
-446
-556
-426
-449
-442
-340
-419
-521
-396
-428
-614
-623
-564
-620
-592
-410
-318
-561
-511
21
-57
-294
-313
-533
-480
-258
-48
-122
-169
78
-189
-249
147
281
196
200
269
40
-26
111
-149
-546
-367
-195
-592
-563
-283
-489
-698
-561
-618
-605
-378
-592
-782
-817
-704
-21
1691
3914
5413
5918
4053
749
-323
-56
-465
-618
-484
-791
-763
-598
-813
-857
-839
-659
-627
-805
-860
-844
-735
-664
-552
-604
-754
-479
-191
-340
-527
-448
-382
-245
-230
-267
91
-11
-146
331
528
399
339
456
648
673
607
476
476
521
512
476
123
-120
-173
-222
-353
-311
-234
-339
-233
-433
-541
-398
-435
-548
-406
-137
-363
-562
-484
-387
-256
-248
-343
-455
-406
-116
-302
-394
-203
-294
-237
-300
-163
-6
-345
-190
89
43
48
175
385
543
335
-60
69
202
70
-267
-418
-302
-605
-692
-520
-603
-451
-492
-742
-737
-489
-183
-568
-999
-645
-7
1143
3286
5352
6266
4696
1207
-303
-23
-319
-626
-590
-589
-711
-891
-790
-576
-656
-789
-869
-881
-715
-379
-534
-828
-546
-437
-554
-762
-634
-262
-439
-448
-352
-464
-201
-19
66
140
27
124
190
378
530
552
925
750
467
671
507
428
451
197
21
-114
-57
-10
-161
-195
-379
-232
-322
-654
-236
-330
-630
-337
-213
-275
-282
-389
-458
-310
-264
-505
-450
-101
-273
-505
-269
-245
-350
-193
-193
-372
-226
-22
-132
-226
-100
101
132
166
300
371
491
434
104
58
118
-183
-403
-313
-388
-501
-502
-533
-372
-446
-624
-500
-526
-652
-467
-560
-926
-469
684
2285
4401
6054
5857
3018
180
-266
-256
-600
-669
-560
-479
-655
-809
-595
-632
-900
-787
-612
-553
-586
-636
-501
-507
-439
-349
-675
-547
-283
-553
-362
-79
-246
-189
-85
-164
-47
229
192
184
527
745
680
714
643
551
771
845
616
410
381
475
243
-85
-121
-113
-131
-214
-197
-262
-278
-137
-175
-347
-335
-289
-462
-346
-150
-360
-408
-204
-238
-214
49
-205
-381
-156
-130
218
48
-551
-382
-135
60
12
-169
204
189
-174
77
364
495
457
247
404
453
264
118
-105
-272
-239
-238
-239
-140
-432
-702
-550
-486
-420
-458
-559
-429
-409
-577
-324
608
2035
4252
6103
5884
3253
303
-379
-147
-524
-650
-515
-622
-605
-611
-630
-500
-603
-675
-442
-563
-669
-514
-668
-383
-234
-613
-614
-360
-232
-427
-439
-359
-295
141
73
-273
-41
213
344
371
242
637
851
647
776
584
561
846
670
335
327
353
105
-25
-52
-108
-111
-163
-277
-279
-125
-181
-303
-164
-244
-459
-497
-282
-117
-162
21
277
275
264
508
933
1179
1511
2039
2464
3363
3774
3283
3033
2163
749
229
-161
-627
-507
-228
-78
-317
-461
-233
-203
-326
-271
-161
-456
-729
-518
-441
-523
-321
-231
-376
-287
-242
-468
-425
-306
-16
76
-294
-147
44
-83
132
413
325
332
318
185
394
582
543
604
458
395
418
190
179
107
-167
-241
-321
-454
-307
-297
-458
-379
-453
-609
-566
-476
-464
-591
-486
-370
-506
-522
-555
-526
-340
-403
-437
-362
-633
-737
-557
-320
-310
-635
-582
-409
-511
-443
-373
-549
-581
-445
-419
-463
-513
-594
-467
-250
-481
-589
-563
-633
-335
-367
-447
-311
-455
-508
-269
-220
-553
-469
-446
-641
-374
-223
-300
-355
-453
-591
-409
-37
-355
-322
-40
-187
-145
25
227
43
364
747
197
116
245
181
244
-190
-428
-404
-481
-454
-641
-560
-355
-372
-297
-313
-378
-517
-839
-521
431
1466
3340
5327
6182
4559
1032
-291
55
-269
-494
-483
-474
-629
-891
-729
-581
-702
-474
-565
-814
-537
-448
-621
-435
-216
-541
-566
-270
-343
-384
-392
-216
-106
-277
4
166
-29
-44
79
259
416
608
658
516
612
753
674
727
864
601
479
693
464
367
395
173
199
311
72
-82
28
-45
-127
-203
-223
-139
-90
-125
-228
-62
95
151
121
-295
-287
-2
-24
-104
-56
-65
-278
-155
189
110
16
-80
-39
372
287
100
280
380
606
592
250
392
537
104
-277
-231
-227
-246
-104
-267
-557
-421
-384
-520
-336
-399
-627
-589
-579
-466
151
1594
3355
5170
6382
4450
984
-97
-104
-244
-193
-577
-680
-533
-574
-553
-716
-722
-626
-700
-624
-555
-598
-545
-436
-364
-276
-246
-360
-394
-212
-195
-239
-159
-269
-292
-160
165
363
161
325
781
657
696
1061
720
604
752
720
682
592
661
335
38
219
-16
-374
-147
60
-79
-197
-356
-431
-186
-135
-294
-310
-442
-391
-363
-311
-151
-377
-444
-353
-149
-120
-230
-252
-471
-333
-143
-156
84
92
-77
-141
-90
-12
-112
150
330
227
333
409
367
480
449
53
-250
-139
117
-208
-487
-414
-535
-589
-506
-433
-348
-406
-628
-574
-407
-477
-281
666
2215
4252
6081
5995
3014
236
-157
-204
-473
-501
-468
-660
-625
-626
-880
-644
-566
-581
-531
-745
-580
-366
-548
-449
-273
-599
-629
-246
-271
-499
-329
-229
-274
-172
-68
18
58
148
233
335
461
613
588
774
1014
809
680
841
829
372
337
388
82
42
175
6
-319
-41
85
-344
-407
-198
-85
-377
-350
-90
-211
-185
-349
-347
-112
-211
-24
-62
-345
-254
-37
132
-184
-337
-79
-123
-42
184
8
-153
2
211
281
442
692
419
181
448
361
131
171
-23
-341
-366
-357
-391
-301
-501
-477
58
-302
-746
-561
-384
-326
-784
-662
463
2007
3751
5651
6406
3821
549
-218
-196
-225
-321
-685
-804
-752
-499
-535
-728
-478
-439
-680
-763
-582
-420
-694
-618
-349
-382
-220
-356
-569
-371
-296
-274
-266
-188
-22
14
121
127
191
482
557
543
666
734
604
728
932
745
487
405
569
353
50
68
-108
-107
11
-169
-183
-137
-336
-284
-252
-430
-442
-203
2
-316
-429
-241
-270
-220
-246
-264
-235
-216
-131
-272
-383
-251
-116
-177
-170
46
-29
-28
102
-116
-73
248
319
328
498
488
258
239
202
122
21
-310
-438
-397
-403
-385
-206
-334
-616
-507
-405
-389
-300
-382
-637
-446
-288
683
2933
4609
5561
5208
2461
92
-262
-286
-264
-362
-509
-409
-727
-809
-598
-863
-706
-370
-613
-642
-488
-597
-769
-405
-231
-632
-469
-257
-398
-317
-199
-468
-439
-46
-21
-78
56
210
239
230
468
606
520
663
695
639
673
588
617
536
213
139
309
210
-100
-142
-111
-208
-191
-144
-245
-397
-419
-278
-394
-409
-169
-332
-295
-300
-302
9
-293
-341
-33
-279
-419
-189
-85
-199
-146
-21
-310
-34
302
-232
-188
-7
310
729
481
473
346
141
351
383
178
-165
-488
-497
-469
-515
-279
-216
-520
-535
-399
-510
-496
-488
-701
-738
-550
289
1622
3241
5161
6243
4428
1013
-1
73
-438
-708
-666
-578
-692
-713
-815
-734
-641
-737
-586
-429
-474
-728
-872
-675
-563
-619
-402
-324
-451
-443
-339
-191
-367
-123
84
-215
39
179
155
353
316
285
552
655
563
702
696
650
603
433
419
221
121
15
-147
6
-156
-335
-309
-459
-386
-206
-208
-32
-315
-644
-372
-412
-493
-337
-269
-342
-366
-267
-260
-239
-161
-275
-338
-247
-127
8
-326
-506
-73
7
-143
14
20
35
459
582
264
193
150
186
473
142
-249
-201
-313
-387
-452
-501
-326
-360
-406
-603
-847
-560
-343
-434
-571
-613
-453
364
2069
4156
5835
6033
3261
105
-282
-85
-506
-600
-364
-486
-785
-690
-810
-1089
-829
-561
-759
-683
-581
-756
-571
-390
-491
-555
-252
-362
-685
-442
-402
-453
-241
-186
-310
-52
98
35
271
364
436
606
589
452
618
684
615
693
648
519
300
79
4
169
67
-329
-326
-187
-266
-291
-334
-352
-282
-507
-492
-327
-313
-264
-325
-222
-156
-347
-580
-434
-9
-105
-494
-259
-6
-231
-187
-20
-99
-277
-365
-248
20
110
128
227
169
127
359
731
586
97
203
423
-184
-357
-104
-466
-599
-465
-496
-540
-492
-278
-198
-526
-635
-578
-706
-634
-279
553
2390
4408
5699
6025
3294
-49
-222
-39
-460
-460
-711
-651
-441
-677
-847
-738
-624
-701
-747
-655
-409
-396
-624
-828
-673
-496
-438
-124
-273
-498
-361
-279
-341
-293
126
178
-1
217
305
214
509
863
656
481
747
670
512
706
695
588
384
176
100
142
140
-154
-350
-273
-53
-113
-344
-221
-233
-481
-228
-38
-404
-569
-226
-166
-520
-341
-48
-265
-427
-237
-209
-194
-23
-25
-183
-280
39
33
-280
-131
122
79
-88
6
217
254
487
643
311
146
191
376
113
-521
-507
-266
-349
-447
-487
-480
-427
-402
-229
-468
-617
-164
-531
-981
-328
589
1787
3619
5414
6065
4068
819
-480
-370
-212
-437
-856
-702
-498
-837
-657
-382
-654
-612
-507
-410
-712
-916
-424
-312
-427
-425
-535
-593
-428
-308
-272
-206
-270
-180
-122
5
245
151
53
273
699
721
477
525
657
799
744
679
766
463
319
447
337
118
-67
-200
-218
-24
-171
-336
-417
-511
-219
-109
-336
-566
-402
-270
-430
-306
-203
-151
-327
-432
-179
-111
-259
-343
-92
-105
-463
-222
140
-24
-68
-127
-271
-54
162
160
231
179
413
558
148
110
403
221
-69
-116
-373
-431
-372
-568
-462
-236
-467
-674
-638
-605
-452
-268
-456
-702
-644
-113
1168
3128
5132
6039
4619
1504
-174
-177
-451
-541
-443
-774
-779
-713
-944
-761
-489
-689
-712
-596
-758
-650
-359
-377
-536
-644
-671
-563
-247
-246
-500
-350
-218
-394
-368
105
124
-95
110
349
487
387
433
688
738
707
758
663
607
484
233
302
154
-130
-136
-174
-240
-245
-281
-280
-195
-257
-264
-207
-474
-493
-246
-374
-496
-306
-213
-480
-615
-353
-131
-268
-359
-275
-326
-163
-30
-264
-213
19
-268
-383
-60
28
-54
36
177
121
279
546
352
40
56
98
-101
-154
-169
-406
-406
-470
-601
-550
-583
-563
-591
-619
-582
-476
-581
-897
-714
-38
1398
3556
5172
5950
4403
996
-398
-303
-543
-318
-417
-888
-662
-738
-963
-836
-888
-756
-533
-688
-790
-669
-691
-807
-625
-376
-614
-704
-558
-418
-146
-406
-611
-218
-82
-188
-18
51
7
162
303
541
641
449
527
742
644
547
660
585
467
206
-75
-3
58
-37
-250
-228
-376
-499
-165
-301
-629
-470
-342
-408
-332
-295
-239
-200
-378
-381
-346
-263
-279
-545
-310
-65
-357
-430
-233
-148
49
59
-162
-234
-183
-79
-58
-8
99
266
527
435
104
-57
216
546
-79
-540
-279
-425
-475
-323
-513
-592
-513
-462
-459
-610
-579
-465
-779
-994
-553
334
1762
3920
5804
5885
3519
757
-158
-193
-456
-726
-582
-517
-763
-776
-772
-880
-803
-715
-807
-841
-703
-534
-648
-676
-502
-584
-401
-367
-645
-535
-423
-388
-232
-187
-264
-220
-55
300
208
-54
259
313
478
785
551
478
745
786
405
396
580
171
-108
-191
-160
-214
-355
-183
-240
-453
-317
-335
-487
-201
-383
-625
-227
-322
-535
-515
-553
-397
-393
-437
-247
-296
-353
-264
-384
-351
-149
-210
-224
-196
-96
-137
-204
-50
-192
-35
407
429
234
287
313
88
48
52
-299
-393
-365
-341
-290
-461
-555
-728
-475
-378
-813
-765
-474
-549
-723
-469
23
1058
2953
5023
6249
4868
1346
-366
-90
-222
-426
-605
-713
-731
-986
-1007
-710
-704
-914
-789
-611
-686
-834
-803
-566
-509
-573
-478
-328
-318
-558
-671
-409
-82
-115
-352
-219
-2
-85
115
336
184
521
678
463
593
647
849
667
533
734
436
233
241
135
-112
-271
-206
-261
-434
-226
-130
-477
-570
-458
-242
-205
-489
-452
-66
-151
-623
-554
-288
-129
-39
-317
-555
-229
63
-349
-323
57
-221
-333
-141
-53
-224
-66
445
247
195
329
217
297
425
514
167
-133
-7
-132
-417
-527
-347
-269
-506
-700
-702
-475
-457
-513
-410
-657
-738
-556
-306
1034
2969
4558
5835
5417
2357
-82
-173
-196
-594
-657
-741
-930
-546
-273
-773
-852
-647
-616
-606
-641
-452
-672
-861
-469
-391
-522
-265
-31
-377
-389
4
-515
-658
-92
-2
39
51
169
394
539
559
510
599
596
746
825
627
629
515
633
797
147
-124
5
-55
69
-120
-271
-124
-231
-344
-436
-517
-298
-141
-180
-262
-413
-351
-377
-476
-249
-99
-28
-260
-451
-129
-102
-249
-78
-149
-351
-100
-108
-250
-63
107
-65
-111
309
234
267
607
291
55
122
203
54
-309
-376
-504
-507
-349
-476
-563
-328
-205
-531
-714
-481
-396
-708
-923
-559
174
1329
3308
5173
6007
4568
1245
-401
-211
-168
-626
-990
-681
-588
-839
-674
-640
-786
-623
-662
-776
-729
-431
-526
-873
-653
-614
-570
-342
-270
-447
-491
6
-192
-696
-332
-131
-112
147
145
195
304
313
483
711
657
440
653
764
519
448
459
116
9
290
-13
-283
-174
-267
-277
-287
-486
-456
-430
-336
-176
-451
-393
-301
-560
-539
-370
-283
-288
-425
-446
-261
-249
-294
-75
-32
-411
-282
-40
-321
-300
4
-38
-27
96
-2
173
508
339
163
318
203
-79
-238
-281
-232
-318
-533
-449
-422
-631
-526
-487
-604
-441
-519
-763
-698
-820
-676
178
1262
3017
5218
6120
4573
1463
-356
-324
-330
-556
-623
-739
-814
-521
-566
-1126
-1009
-679
-685
-668
-821
-668
-401
-695
-892
-660
-451
-342
-411
-572
-321
-221
-454
-363
-347
-382
-46
145
285
373
206
177
475
747
786
881
578
264
434
409
282
380
131
-145
-62
-315
-384
-185
-95
-213
-725
-662
-195
-249
-635
-586
-147
-367
-604
-256
-52
-243
-456
-445
-510
-414
-364
-418
-211
-156
-331
-383
-177
-156
-307
-18
180
-170
-182
-50
35
434
457
167
49
99
268
404
35
-492
-470
-396
-529
-661
-651
-528
-553
-642
-571
-598
-583
-274
-595
-1124
-484
570
1845
3942
5745
6062
3569
205
-332
75
-505
-720
-744
-908
-729
-592
-667
-837
-844
-723
-782
-723
-614
-728
-645
-490
-674
-681
-505
-565
-455
-297
-438
-486
-299
-257
-198
-75
-116
-38
49
350
559
527
652
655
712
723
560
493
475
551
437
116
39
75
-80
-212
-176
-153
-316
-367
-391
-608
-429
-302
-327
-300
-314
-261
-421
-485
-247
-188
-422
-458
-460
-396
-203
-219
-376
-321
-34
-136
-317
-219
-38
79
-91
-261
-73
319
481
487
467
221
124
374
448
92
-371
-486
-200
-355
-624
-304
-355
-791
-628
-486
-548
-499
-644
-671
-707
-501
228
1244
3020
5025
6191
5078
1677
-325
-461
-511
-455
-591
-597
-480
-615
-712
-844
-972
-632
-435
-801
-919
-751
-708
-496
-175
-381
-705
-667
-464
-390
-425
-269
-39
-172
-316
-87
70
29
130
333
657
681
494
660
538
456
972
1058
530
275
291
609
304
-271
125
158
-266
-415
-465
-306
-103
-328
-552
-351
-182
-211
-450
-576
-377
-364
-570
-402
-133
-279
-336
-192
-193
-285
-343
-240
-182
-239
-213
-134
-76
-52
-107
-71
55
96
310
337
368
518
334
338
313
0
-83
-98
-276
-344
-357
-455
-494
-624
-629
-247
-299
-554
-611
-661
-547
-601
-464
204
1362
3214
4962
5956
4892
1776
-188
-492
-431
-542
-710
-668
-701
-573
-542
-811
-894
-666
-493
-499
-620
-595
-498
-609
-604
-488
-470
-365
-381
-533
-411
-243
-68
-113
-307
-94
149
-3
2
300
395
504
692
700
533
750
900
682
719
662
366
151
226
94
-128
39
-80
-450
-431
-295
-299
-341
-315
-297
-245
-344
-370
-313
-409
-311
-468
-523
-225
-246
-164
-192
-377
-230
-309
-318
-85
-113
-137
-151
-325
-177
-102
-296
-254
-30
120
128
355
496
365
399
299
176
159
-309
-460
-354
-480
-418
-469
-569
-629
-612
-454
-493
-542
-560
-524
-613
-782
-377
522
2157
4169
5702
5572
2719
-6
-424
-383
-507
-489
-643
-832
-885
-825
-721
-726
-807
-728
-730
-799
-769
-790
-699
-542
-678
-704
-554
-575
-338
-257
-601
-547
-198
-264
-486
-262
4
-48
-7
230
363
473
731
810
805
591
320
437
468
341
295
193
-121
-196
-211
-341
-273
-441
-266
0
-503
-592
-306
-586
-699
-516
-469
-364
-324
-287
-463
-567
-415
-324
-220
-307
-411
-493
-537
-479
-308
-195
-295
-298
-172
-114
-185
-299
-172
201
170
145
395
382
282
92
8
-53
-282
-357
-531
-434
-289
-638
-690
-598
-695
-664
-563
-484
-506
-670
-985
-965
-288
745
2396
4380
5750
5338
2273
-26
38
-224
-663
-832
-930
-792
-611
-648
-938
-1047
-851
-698
-732
-692
-717
-637
-412
-638
-927
-765
-482
-452
-460
-505
-483
-227
-237
-410
-230
58
68
72
164
326
362
474
667
537
460
708
905
638
359
379
251
200
363
-23
-282
-185
-443
-477
-224
-110
-213
-431
-462
-409
-378
-342
-421
-427
-408
-149
-130
-543
-272
-110
-452
-260
49
-227
-468
-107
-99
-442
-218
-35
-171
-140
-71
6
49
173
246
189
431
451
310
267
153
30
-178
-301
-496
-480
-146
-358
-675
-625
-641
-479
-457
-616
-525
-536
-729
-832
-410
693
2537
4570
5955
5562
2431
-61
-272
-313
-145
-283
-830
-943
-849
-746
-669
-676
-740
-832
-719
-666
-758
-748
-664
-412
-411
-612
-511
-381
-528
-484
-15
93
-454
-555
-258
-152
85
259
212
358
542
559
587
470
559
807
816
645
259
224
414
78
-125
54
-36
-88
-157
-512
-470
-264
-335
-259
-260
-466
-507
-256
-341
-601
-541
-477
-346
-235
-267
-389
-217
-139
-396
-293
-175
-304
-429
-438
-336
-353
-294
-99
-55
15
45
-21
54
72
148
337
251
136
208
184
-143
-465
-524
-164
-188
-789
-662
-544
-797
-655
-440
-469
-565
-622
-653
-820
-758
8
1250
3008
4906
6089
4675
1275
-340
-435
-461
-538
-720
-572
-659
-991
-1033
-898
-811
-819
-629
-666
-921
-789
-681
-692
-726
-657
-600
-764
-631
-410
-476
-628
-670
-277
20
-312
-447
52
119
0
305
343
391
496
474
615
768
814
534
129
197
122
-60
252
-29
-563
-331
-173
-370
-419
-482
-562
-241
-227
-622
-662
-456
-355
-457
-491
-398
-374
-449
-541
-484
-293
-184
-370
-520
-386
-107
-144
-328
-91
-228
-484
-303
-235
-129
-128
-231
43
217
464
824
312
-392
-203
135
-115
-476
-604
-457
-351
-579
-739
-534
-337
-753
-764
-550
-849
-676
-610
-827
-574
405
2056
3843
5523
5925
3220
186
-170
-235
-835
-774
-568
-824
-1093
-960
-915
-880
-651
-755
-893
-584
-564
-860
-738
-528
-518
-542
-506
-385
-450
-530
-363
-407
-412
-298
-287
-57
49
23
118
241
356
567
715
631
682
788
690
572
403
263
317
153
22
-33
-188
-238
-9
-1
-468
-697
-335
153
-396
-808
-330
-322
-540
-374
-313
-559
-386
-31
-369
-543
-353
-166
-149
-443
-335
-153
-340
-332
-253
-253
-50
-87
-155
-26
-221
-72
197
25
252
370
286
218
-3
77
208
-79
-200
-222
-394
-347
-651
-761
-446
-482
-597
-650
-681
-519
-594
-701
-500
-344
344
1933
3891
5586
5842
3185
125
-273
-250
-728
-571
-600
-976
-924
-568
-574
-834
-922
-811
-697
-724
-526
-574
-806
-661
-526
-470
-740
-664
-492
-500
-300
-456
-380
-126
-178
-129
-35
93
410
559
466
332
364
596
591
602
790
740
586
526
361
52
-15
11
-81
-145
-226
-292
-401
-290
-115
-172
-249
-556
-590
-134
-335
-730
-373
-353
-483
-248
-265
-206
-282
-306
-284
-158
87
-366
-467
-253
-272
-170
-80
-10
-169
-139
-2
108
360
48
146
683
255
-168
119
114
-13
-83
-448
-481
-610
-476
-168
-363
-531
-807
-715
-446
-439
-448
-662
-988
-721
497
2231
4087
5761
5719
2958
279
-83
-118
-552
-340
-509
-792
-782
-1069
-872
-649
-809
-686
-566
-730
-761
-492
-581
-658
-437
-385
-352
-483
-637
-511
-289
-395
-449
-61
-123
-214
224
179
117
403
434
366
679
933
574
570
820
717
592
386
215
269
423
129
-196
-156
-211
-182
-221
-290
-359
-482
-402
-220
-10
-239
-548
-308
-246
-313
-388
-586
-370
-155
-294
-366
-197
-110
-201
-350
-231
-23
-254
-35
107
-116
-24
-99
-202
72
417
294
468
644
215
178
311
97
-169
-323
-397
-416
-457
-534
-466
-413
-519
-347
-310
-567
-352
-345
-806
-831
-198
979
2730
4730
6178
5377
1963
-82
-20
-231
-505
-585
-476
-456
-584
-688
-810
-730
-551
-742
-767
-475
-613
-761
-762
-647
-306
-320
-480
-332
-255
-361
-230
-93
-194
-270
-97
17
54
113
244
447
563
915
844
569
843
807
547
666
577
327
429
321
92
136
52
-59
-69
-277
-349
-207
-266
-334
-201
-358
-422
21
-230
-599
-287
-263
-187
-184
-385
-173
-86
-227
-398
-305
-57
-50
-105
-224
-184
-3
-72
-159
-10
227
267
161
279
476
501
347
321
390
102
-151
9
-106
-463
-228
-308
-750
-541
-364
-482
-522
-486
-544
-404
-305
-637
-453
769
2379
4018
5731
6113
3455
428
-274
-364
-491
-346
-506
-678
-427
-524
-909
-855
-707
-664
-604
-486
-467
-618
-469
-349
-532
-467
-329
-358
-513
-430
-191
-89
-26
-97
-108
-36
93
145
134
419
597
559
866
1013
676
729
843
628
706
714
267
45
107
74
77
45
-103
-1
-196
-474
-238
-264
-315
-263
-333
-206
-78
-321
-496
-253
-53
-245
-263
-72
-261
-385
-210
-160
-168
-11
-21
-146
-116
-110
126
148
-91
36
124
361
441
323
508
403
163
266
397
-1
-402
-181
-56
-209
-273
-374
-433
-505
-603
-552
-463
-339
-454
-699
-455
-150
493
2236
4008
5430
6193
3877
403
-292
-105
-440
-524
-537
-531
-757
-847
-584
-616
-802
-697
-438
-435
-524
-411
-395
-482
-379
-258
-457
-405
-153
-330
-263
92
-82
-246
-3
11
62
378
437
404
442
645
773
699
751
783
810
753
804
809
539
334
139
10
-51
-25
-17
-126
41
72
-263
-297
-140
-248
-390
-443
-306
74
-53
-424
-243
-145
-338
-244
9
87
-60
-183
-71
-95
-230
-52
97
-12
-6
122
17
174
349
344
551
386
348
541
280
260
310
5
-146
-157
-121
-322
-281
-188
-469
-405
-415
-444
-355
-416
-389
-505
-627
-492
267
1626
3363
5281
6092
4555
1451
-205
-364
-393
-301
-561
-619
-465
-573
-735
-813
-709
-552
-415
-340
-596
-746
-584
-546
-487
-479
-455
-283
-323
-387
-398
-305
-150
-329
-278
201
214
-17
-17
216
587
758
619
534
636
752
694
614
716
528
