0
0
0
0
0
0
0
0
0
0
0
0
0
0
0
0
0
0
0
0
0
0
0
0
0
0
0
0
0
0
0
0
0
0
0
0
0
0
0
0
0
0
0
0
0
0
0
0
0
0
0
0
0
0
0
0
0
0
0
0
0
0
0
0
0
0
0
0
0
0
0
0
0
0
0
0
0
0
0
0
0
0
0
0
0
0
0
0
0
0
0
0
0
0
0
0
0
0
0
0
0
0
0
0
0
0
0
0
0
0
0
0
0
0
0
0
0
0
0
0
0
0
0
0
0
0
0
0
0
0
0
0
0
0
0
0
0
0
0
0
0
0
0
0
0
0
0
0
0
0
0
0
0
0
0
0
0
0
0
0
0
0
0
0
0
0
0
0
0
0
0
0
0
0
0
0
0
0
0
0
0
0
0
0
0
0
0
0
0
0
0
0
0
0
0
0
0
0
0
0
341
1577
2934
3235
2616
1495
374
73
83
-143
-14
149
-140
-301
-99
-105
-370
-174
82
-145
-198
-148
-135
-178
-330
-50
160
-142
-284
-56
72
-108
-147
-59
-26
-9
-40
-21
-50
-115
9
207
136
143
408
361
247
298
250
251
434
342
150
424
528
385
434
490
355
371
274
20
204
81
-23
223
-5
-199
-94
-177
-100
-75
-334
-316
-162
-130
-252
-221
34
-111
-442
-309
-5
-8
-137
-142
-127
-190
-188
-101
-107
-61
-88
-204
-239
-97
-12
-109
-140
-141
0
-126
-322
-127
-4
-122
-290
-304
-205
-31
-94
-194
-36
-218
-364
-150
-182
-127
-201
-422
-95
-55
-205
-175
-320
-219
-56
-154
-240
-321
-239
-57
-223
-359
-87
-160
-188
37
-292
-408
-113
-41
-108
-223
-311
-190
-5
-99
-123
-168
-393
29
197
-44
133
199
107
81
75
-83
-13
239
179
-31
-282
-238
-14
-132
-271
-140
-213
-450
-143
38
-100
-153
-244
-193
-191
-235
169
990
2006
2893
2976
2087
818
93
72
214
116
-68
-108
-210
-223
-11
-31
-229
-329
-324
-200
-376
-485
-263
-125
-93
-92
-73
-109
-202
-140
-34
-152
-19
12
-181
-51
-73
-27
81
18
149
87
17
209
262
274
269
306
341
369
389
358
417
478
440
434
522
500
331
385
439
96
67
174
-11
55
56
-177
-138
-42
-143
-279
-201
-113
-193
-183
-125
-236
-278
-133
-71
-117
-176
-139
-244
-198
-48
-260
-302
-156
-62
-103
-156
-180
-215
-203
-96
25
-5
-51
-156
-154
-94
-233
-387
-137
-81
-200
-57
-145
-302
-235
-107
-282
-346
-70
-38
-173
-219
-202
-143
-182
-315
-212
-227
-132
70
-228
-382
-165
-109
-167
-178
-183
-176
-437
-301
48
-176
-308
-12
-35
-263
-123
-84
-290
-309
17
41
-176
-49
117
84
61
59
-77
-82
203
294
174
176
103
137
170
-284
-223
-101
-441
-266
-75
-85
-305
-403
-60
-151
-414
-295
-138
-110
-144
281
1183
2277
3268
3182
2101
973
228
-202
-45
288
-63
-93
42
-181
-133
-157
-225
-167
-202
-160
-91
-168
-114
-126
-262
-208
-145
-258
-323
-110
23
-41
-96
-129
16
61
-188
-23
192
131
63
-27
-80
196
398
201
287
402
242
371
566
466
490
485
472
632
495
419
515
222
89
142
181
158
65
132
-47
-179
-65
-150
-265
-266
-137
-53
-156
-170
-240
-321
-282
-151
-159
-420
-216
-75
-262
9
-32
-276
-80
-157
-288
-87
-213
-221
-92
-96
59
-197
-352
-31
-47
-474
-307
179
-48
-203
-91
-206
-225
-100
-158
-346
-171
-18
-244
-317
-282
-156
-78
-193
-151
-132
-227
-251
-176
-127
-237
-248
-115
-83
-193
-392
-186
-78
-227
-31
-201
-260
-81
-306
-248
-79
-226
-220
-162
-138
-168
-213
-20
58
-124
-218
25
170
148
137
125
111
-15
-49
-53
-109
-12
258
0
-251
43
-49
-367
-325
-160
-238
-189
-221
-448
-271
-154
-258
-214
-134
5
549
1396
2547
3184
2658
1966
873
-2
64
86
-19
112
40
-309
-244
-128
-336
-294
-104
-135
-164
-198
-289
-200
27
-39
-268
-293
-131
-75
-179
-27
0
-67
-33
-66
-215
-93
243
209
19
3
127
111
198
321
47
110
426
423
375
406
431
382
503
480
381
368
370
538
374
232
200
74
127
-84
-182
107
25
-97
-146
-176
-60
-199
-207
-139
-268
-257
-53
-149
-423
-196
83
-164
-311
-171
-256
-178
-30
-150
-143
55
-141
-393
-143
-105
-161
4
-72
-176
11
-29
-260
-165
-22
-240
-321
-51
32
-72
-92
-97
-172
-159
-152
-42
-42
-207
-55
-240
-549
-206
19
-82
-129
-185
-94
-73
-117
-62
-193
-266
-238
-169
-124
-113
-48
-136
-257
-131
25
-29
-134
-191
21
42
-48
149
185
78
99
290
311
-117
-244
206
205
89
120
-8
101
52
-210
-216
-186
-243
-223
-278
-205
-49
-132
-54
42
-215
-316
-241
381
1606
2559
2977
2606
1595
542
-32
7
101
-130
-86
85
-61
-150
-114
-118
-93
-215
-435
-93
16
-242
-217
-219
-213
-29
92
-100
-120
-77
-239
-14
5
-44
30
-324
-120
172
85
79
108
147
100
101
143
154
188
326
485
546
402
228
257
364
479
426
409
451
312
245
196
118
63
-62
-100
-155
19
118
-166
-219
-123
-217
-294
-154
-275
-438
-300
-81
-52
-282
-245
-105
-186
-210
-209
-270
-302
-109
-69
-200
-100
-249
-298
-22
-12
-292
-219
-43
-415
-282
105
-104
-266
-133
-151
-254
-160
-248
-230
-151
-266
-179
-127
-156
-147
-183
-262
-291
-229
-265
-265
-181
-281
-264
-206
-233
-254
-332
-28
63
-309
-304
-110
-248
-277
1
-53
-181
-172
-212
-174
-220
-309
-199
-40
-87
-133
-26
52
10
123
208
65
130
160
-18
11
70
-67
96
180
-133
-81
24
-156
-275
-270
-333
-354
-114
-32
-415
-401
-26
-107
-218
-54
583
1627
2733
3240
2733
1538
280
12
151
82
-21
-186
-43
-225
-302
25
-101
-304
-266
-264
-380
-106
-114
-270
-31
-125
-129
-105
-147
-8
-75
-278
-203
-146
-59
-110
-206
204
156
-146
71
221
141
68
134
276
279
224
283
307
413
399
337
533
442
344
369
479
623
414
198
231
199
132
83
-193
-273
-47
68
-36
-265
-351
-216
-66
-130
-256
-164
-138
-219
-264
-243
-112
-326
-461
-113
-29
-192
-273
-213
-155
-249
-228
-18
-96
-182
-19
-165
-331
-178
-215
-194
-44
-264
-268
-67
-272
-265
-23
-354
-388
-173
-165
-46
-251
-278
-188
-246
-300
-357
-199
-283
-376
-148
-191
-272
-162
-260
-308
-201
-230
-292
-253
-149
-187
-299
-309
-231
-242
-301
-168
-144
-143
-168
-159
-45
-232
-300
8
86
-15
32
-17
-64
-26
79
150
143
201
-16
-192
-3
60
-57
-160
-169
-368
-304
-34
-247
-320
-219
-437
-494
-69
111
-205
-359
-263
204
1221
2276
3159
3314
2217
744
116
113
92
106
127
-139
-293
-202
-150
-113
-132
-217
-250
-151
-294
-238
-17
-505
-407
-61
-284
-82
-3
-4
-61
-69
21
-133
-113
-52
-79
-26
29
93
-84
-64
116
-154
31
600
501
217
385
445
314
526
553
322
396
509
517
495
411
286
269
249
-72
-41
159
22
16
36
-138
-236
-87
-50
-330
-364
-268
-242
-97
-182
-195
-222
-392
-182
-100
-407
-218
-93
-190
-40
-164
-263
-149
-67
-120
-153
-167
-169
-94
-170
-403
-242
-35
-270
-373
-145
-55
-260
-61
-3
-224
-232
-261
-156
-166
-283
-105
-102
-261
-310
-254
-271
-465
-164
-79
-299
-168
-87
-204
-311
-111
-27
-165
-302
-336
-166
-118
-34
-90
-344
-184
-28
-156
-318
-274
-96
-107
33
86
-63
67
83
47
152
152
166
103
43
-63
18
362
244
-13
-102
-296
-322
-212
-109
-150
-257
-281
-119
-23
-277
-328
-251
-516
-224
210
276
1362
2397
2955
3186
1973
518
191
130
-49
42
48
-4
-99
-277
-232
-181
-161
-169
-173
-1
-260
-440
-74
-5
-161
-299
-139
94
62
-68
-159
-90
-153
-137
46
-13
-19
125
24
13
217
134
7
197
385
200
125
418
386
312
532
577
568
500
370
478
501
343
438
453
195
132
174
118
1
-4
-98
-41
97
-136
-100
-90
-240
-107
-85
-424
-268
54
-297
-220
44
-126
-298
-233
49
-27
-206
-105
-120
-234
-136
-39
-111
26
-58
-219
-125
-241
-39
-70
-447
9
255
-91
-200
-198
-132
-49
-104
-159
-122
-147
-231
-212
-49
-67
-345
-210
-2
-217
-255
-187
-78
-105
-188
-221
-218
54
-109
-310
-88
-89
-211
-82
12
-248
-201
-81
-303
-116
-12
-122
27
-76
-40
102
32
75
124
112
104
159
38
-92
65
145
10
-150
-121
87
-63
-396
-328
-133
-269
-467
-231
-132
-271
-170
-226
-302
-158
260
1350
2454
2917
2783
1786
536
-74
-19
102
-25
-55
-96
-327
-354
-213
-199
-85
-206
-442
-353
-165
-115
-131
-196
-334
-158
-167
-212
-112
-78
-87
-307
-210
-139
-123
147
-38
-148
85
20
9
94
124
104
136
235
219
385
307
42
402
678
463
404
450
324
235
227
393
412
140
227
276
63
-28
-57
-134
-170
-156
-164
-85
-231
-480
-283
-29
-207
-136
-115
-378
-268
-183
-140
-161
-205
-194
-257
-160
-77
-233
-232
-113
-123
-147
-127
-219
-384
-182
-103
-220
-124
-101
-145
-185
-181
-188
-81
-119
-387
-240
-51
-137
-257
-260
-280
-370
-297
-147
-70
-252
-363
-266
-175
-179
-191
-126
-168
-208
-192
-257
-301
-274
-241
-181
-234
-304
-181
-66
-176
-191
-277
-357
-115
-103
-217
-97
-163
-180
167
14
-134
49
109
153
-87
-13
243
126
17
55
43
-253
-256
-43
-210
-471
-404
-69
-36
-194
-260
-277
-321
-256
-204
-343
-132
138
474
1228
2436
3296
2874
1822
525
-100
184
61
-26
136
0
-297
-331
-96
-134
-272
-179
-116
-304
-323
-170
-50
-91
-51
86
-116
-233
-109
-95
-58
25
-105
-160
-26
-108
-54
131
-73
-153
152
302
264
256
374
205
249
553
475
441
449
523
499
320
497
713
257
183
606
516
253
199
272
183
39
77
6
-152
-61
-186
-218
5
-172
-281
-240
-209
-133
-289
-313
-74
-65
-101
-53
-180
-274
-181
-113
-230
-217
-72
-58
-203
-320
-100
-64
-348
-137
-67
-283
-181
17
48
-315
-411
-138
-134
-78
-104
-203
-154
-267
-188
-91
-293
-323
-147
-162
-152
-128
-220
-15
-16
-297
-343
-218
-106
-140
-205
-271
-215
-200
-159
-194
-306
-167
-170
-79
-88
-253
-22
-11
-220
-255
-239
-134
91
-23
-183
157
170
-79
67
306
235
98
98
57
88
23
-134
-118
-165
-201
-131
-256
-276
-147
-312
-271
-73
-254
-297
-133
-305
-428
-277
131
1064
2039
2748
3123
2778
1366
143
4
99
75
1
-90
-113
-153
-278
-256
-362
-341
-125
-203
-349
-197
-132
-139
-204
-462
-176
-7
-222
-238
-124
-71
-120
-265
-166
15
-178
71
156
-190
-5
119
118
248
259
147
264
387
339
496
436
295
393
405
301
405
735
687
351
331
290
216
313
50
-29
151
-114
-242
43
-72
-320
-115
-106
-218
-96
-194
-304
-150
-167
-251
-122
-93
-227
-190
-186
-113
-39
-432
-428
49
-47
-142
-192
-280
-160
-183
-197
-158
22
87
-127
-197
-181
-249
-112
-90
-120
-109
-268
-208
-189
-328
-252
-53
-97
-190
-175
-368
-243
-13
-212
-142
-87
-349
-195
-103
-226
-172
-158
-191
-337
-177
-195
-515
-90
3
-334
-85
-140
-267
-19
-148
-15
169
-132
34
155
73
91
45
192
-65
-233
122
185
248
215
39
-156
-255
-39
-90
-173
-93
-281
-371
-199
-146
-138
-189
-268
-341
-100
81
153
1040
2207
3145
3109
2005
812
-2
-38
-52
-102
65
-25
57
-76
-465
-336
-108
-243
-334
-285
-73
84
-125
-268
-134
-109
-219
-231
-278
-154
-24
-45
-44
-333
-195
242
56
-175
-78
11
27
153
269
242
-14
13
378
413
307
324
241
388
526
283
437
626
335
184
442
502
162
156
164
-90
-103
-161
-121
-48
-175
0
-85
-325
-132
-159
-306
-115
-80
-254
-274
-396
-299
-41
-83
-198
-168
-93
-180
-336
-260
-84
-64
36
-128
-517
-258
-81
-204
-43
-158
-165
-17
-196
-309
-9
47
-308
-311
-183
-118
-81
-198
-257
-477
-325
-15
-382
-289
44
-197
-318
-173
-129
-109
-188
-259
-214
-293
-180
-64
-80
-228
-379
-163
-120
-263
-170
-93
-113
-124
-205
-265
-174
23
105
-37
-116
18
-2
67
325
63
-163
140
66
-141
89
266
61
-298
-352
-83
-4
-300
-434
-321
-141
-94
-193
-155
-157
-186
-251
-293
-170
402
1516
2729
3232
2701
1624
444
-71
19
-14
19
-75
-172
-126
-353
-153
12
-208
-203
-498
-323
59
-252
-192
-84
-279
-237
8
-66
-188
-28
-193
-234
-21
-201
-315
-10
-31
-171
144
176
18
48
30
184
239
301
332
181
392
377
209
404
475
332
500
584
374
435
385
218
238
201
-54
-48
101
-31
-78
-117
-191
-299
-219
-105
-307
-357
-113
42
-182
-213
-159
-411
-275
-6
-216
-312
48
-78
-359
-218
-346
-335
-59
-115
-190
5
34
-204
-303
-204
-118
-137
-218
-58
-84
-407
-188
-105
-398
-295
-151
-118
-56
-11
-178
-323
-229
-87
-139
-368
-257
-197
-246
-210
-332
-333
-155
-158
-295
-126
-35
-358
-246
-65
-206
-221
-173
-151
-249
-174
-210
-347
-303
-295
-276
-53
32
-79
-95
-51
179
147
-148
75
251
21
76
89
-43
24
44
47
-38
-175
-152
-292
-254
-151
-363
-285
-156
-174
-187
-240
-139
-244
-273
-62
-30
671
1963
2950
3241
2631
1374
290
-109
105
100
-199
27
37
-148
-261
-229
-87
-245
-198
-133
-298
-197
-46
-177
-168
-167
-182
-197
-355
-91
-37
-192
17
-72
-260
-15
140
27
23
107
97
-45
82
213
198
264
240
267
340
478
594
369
308
608
634
613
625
540
496
366
172
193
289
10
-16
234
41
-40
-86
-220
-126
-7
-139
-347
-113
8
-147
-248
-167
-183
-170
-46
-301
-257
37
-85
-189
-130
-179
-211
-196
-158
-191
-53
83
-200
-278
-64
-70
-162
-165
-150
-176
-284
-161
-60
-205
-144
-160
-335
-71
95
-259
-351
-103
56
-305
-408
38
-60
-232
-166
-259
-230
-68
-183
-255
-90
-141
-255
-195
-159
-103
-131
-142
-137
-234
-160
-281
-318
-51
-52
-286
-316
-121
18
-113
-93
4
-74
68
78
-80
54
267
117
98
235
-34
-164
81
129
59
-37
-223
-266
-302
-340
-352
-173
89
-110
-300
-238
-290
-209
-178
-169
-39
275
1365
2464
3058
3151
2152
728
-30
-45
186
183
57
-85
-268
-478
-257
126
-71
-100
-114
-320
-214
-259
-226
1
-59
-204
-258
-196
-243
-237
20
-78
-343
-86
146
31
-71
62
2
-103
203
151
12
147
236
318
300
289
301
277
437
451
403
517
611
627
447
476
481
96
194
448
122
14
264
-98
-289
94
-141
-196
-76
-177
-2
-124
-259
-172
-235
-200
-176
-122
-82
-271
-289
-234
-244
-77
-166
-270
33
57
-244
-236
-61
-118
-117
-27
-102
-310
-194
-39
-148
-57
-132
-99
-141
-270
-76
-214
-219
-97
-171
-86
-118
-120
-147
-247
-156
-199
-286
-218
-41
-93
-97
-18
-119
-3
-161
-387
-144
-36
-109
-253
-274
-55
-76
-174
-231
-162
-23
-167
-85
131
-45
-239
-166
21
69
127
238
311
178
-9
191
199
30
59
-15
166
230
-161
-146
32
-109
-253
-134
-46
-57
-145
-370
-269
-173
-221
-140
-55
-15
304
1074
2073
3187
3095
1923
695
-214
-39
254
133
-69
-108
4
-294
-294
-55
-68
-96
-124
-126
-342
-123
98
-236
-180
13
-98
-87
57
-146
-265
-153
-71
12
-100
-37
137
99
76
63
49
-35
-83
85
337
420
279
352
434
324
413
363
109
443
679
463
592
527
272
218
226
234
138
9
11
83
-192
-321
-12
-177
-266
-65
-80
-91
-410
-409
-2
-138
-148
-47
-245
-230
-94
-180
-258
-104
-118
-279
-264
-196
-154
-69
-229
-447
-227
97
-13
-146
25
-59
-229
-161
-192
-244
-135
-87
-159
-161
-124
-176
-176
-248
-283
-159
-174
-267
-250
-141
-300
-230
125
-43
-209
-181
-297
-283
-111
-167
-280
-268
-496
-264
22
-279
-258
-68
-187
-355
-68
101
-142
-141
-68
-102
-76
-131
-273
-272
245
395
108
90
-58
-89
5
101
150
-141
-174
89
-198
-194
-176
-543
-358
-191
-158
-114
-292
-259
-93
-211
-329
-59
343
1155
2508
3027
2839
1935
453
23
181
-70
-70
117
-96
-86
-101
-338
-363
-185
-195
-395
-90
2
-413
-231
7
-144
-203
-129
-94
-151
-88
-127
-176
-238
-147
-13
-95
-49
-34
97
125
30
35
168
252
131
167
350
296
232
441
477
432
469
479
363
446
519
316
366
429
249
107
299
204
-68
49
-184
-297
-81
-146
-158
-134
-274
-224
-53
-173
-195
-126
-407
-508
-187
-115
-314
-72
136
-138
-230
-214
-118
-263
-275
-53
-225
-147
-144
-252
-108
-162
-219
-174
-83
-56
-164
-158
-287
-277
-109
-363
-143
165
-273
-344
-104
-88
-148
-109
-175
-368
-247
-125
-165
-190
-463
-312
126
-102
-162
-89
-285
-195
-300
-302
-69
-222
-162
1
-171
-318
-202
-180
-265
-173
-322
-266
29
-120
-97
22
-103
87
290
-25
-102
154
186
6
38
182
33
86
160
103
50
-179
-222
-147
-200
-239
-248
-115
-36
-157
-398
-350
10
-112
-283
-88
-84
162
1220
2425
3193
3040
2150
953
69
95
223
-28
-59
83
-40
-112
-177
-234
-94
-232
-378
-240
-145
-146
-243
-154
-149
-203
-89
-161
-268
-47
78
-65
-105
-213
-161
51
38
-96
-68
42
121
146
-24
115
302
144
207
445
459
389
515
592
471
535
597
547
331
277
551
458
290
311
158
76
20
-68
50
-47
-150
0
-75
-258
-177
-148
-238
-300
-267
-107
-65
-242
-260
-142
-168
-190
-321
-379
-332
-224
-3
-97
-100
-65
-236
-171
-159
-89
-148
-438
-168
49
-203
-165
-45
-245
-245
-109
-152
-186
-181
-245
-227
-63
-133
-154
-30
-119
-328
-204
-248
-463
-33
-20
-326
-203
-156
-225
-265
-306
-266
-8
-94
-320
-160
-55
-114
-136
-183
-335
-317
-130
-231
-241
-27
-61
-175
-155
0
-1
7
76
-32
98
257
69
27
86
-84
17
142
23
-28
-51
-20
-100
-321
-343
-70
-13
-327
-274
-33
-222
-207
-180
-369
-76
108
-6
694
1955
2908
3085
2497
1367
211
-22
291
161
-70
-99
-215
-109
-141
-196
-180
-315
-97
4
-251
-253
-244
-298
-178
-151
-159
-75
21
-74
-135
-47
-99
-99
-198
-60
95
-143
-83
18
44
122
39
20
202
257
218
223
399
453
308
382
330
450
592
519
484
361
312
338
209
193
128
-116
40
21
-75
29
-47
-171
-294
-163
38
-127
-244
-247
-300
-31
86
-170
-453
-434
-94
-137
-240
-105
-228
-254
-25
-128
-289
-145
-147
-115
-72
-278
-267
-184
-80
-32
-237
-184
4
-189
-150
-154
-296
-44
-62
-208
-136
-117
-282
-362
-225
-164
-240
-217
-121
-39
-65
-162
-147
-235
-289
-191
-136
-139
-148
-322
-358
4
86
-126
-148
-50
-252
-477
-44
-1
-311
-34
-19
-246
-101
109
28
-119
-10
178
96
114
96
-232
-188
198
193
-8
-24
-77
-160
-171
-181
-311
-317
-158
-288
-394
-213
-113
-331
-477
-155
20
137
721
1751
2719
2911
2185
965
245
50
4
85
80
14
-132
-264
-464
-369
-89
-63
-246
-411
-62
-80
-286
-210
-426
-192
87
-118
-200
-145
-148
-198
-127
-40
-81
-206
-67
129
-22
-155
80
194
-354
-178
391
95
189
459
372
358
446
452
209
270
414
324
417
392
300
312
275
111
64
-78
-196
141
40
-222
-161
-163
-119
-139
-310
-378
-338
-246
-164
-267
-326
-451
-373
-91
-230
-268
-171
-329
-296
-172
-369
-260
41
-62
-373
-427
-224
-190
-187
-101
-114
-369
-334
-95
-204
-160
-151
-350
-244
-244
-394
-206
-279
-526
-262
28
-253
-416
-181
-387
-544
19
-14
-391
-268
-227
-192
-252
-391
-269
-234
-398
-316
-248
-221
-145
-309
-128
25
-342
-391
-188
-174
-213
-279
-260
-166
-201
-203
-50
26
-98
-93
116
152
-84
35
244
15
2
33
-37
149
-56
-411
-122
28
-164
-214
-193
-316
-312
-89
-232
-317
-309
-208
-28
-268
-162
10
533
1862
2780
3048
2462
1322
462
-6
-2
60
-83
-56
-243
-548
-190
44
-102
-81
-249
-304
-194
-190
-246
-311
-145
-182
-255
-166
-120
-106
-303
-242
-178
-321
-42
206
-11
-55
1
12
41
25
86
32
226
220
-3
276
431
431
384
386
365
320
460
502
526
338
308
490
352
286
191
68
12
47
126
-218
-205
80
-144
-182
-36
-264
-308
-189
-282
-296
-227
-191
-184
-418
-226
95
-339
-303
-36
-68
-83
-170
-187
-129
-164
-202
-223
-324
-154
-55
-233
-270
-242
-183
-161
-177
-118
-261
-150
-130
-316
-146
-104
-122
-264
-318
-134
-77
-229
-291
-191
-254
-473
-341
-78
-182
-213
-193
-247
-62
47
-219
-299
-233
-288
-215
-200
-201
-46
-132
-383
-287
-182
-45
-49
-230
-97
-64
-205
-290
-176
47
-107
-284
-167
-192
-49
-2
-110
34
-41
-168
38
136
45
80
116
196
143
93
166
31
-40
-160
-203
-98
-184
-108
-141
-401
-281
-200
-278
-167
-227
-318
-249
-258
-115
27
770
1913
2698
3221
2719
1370
440
195
137
87
-150
-212
-64
-62
-268
-305
-129
-163
-227
-266
-120
-110
-319
-237
-95
-144
-428
-448
-273
-190
113
228
-10
-254
-167
-74
-181
-213
-65
44
139
152
-96
183
394
27
87
208
309
692
534
256
403
536
503
437
507
430
305
378
408
170
175
289
-49
-153
46
75
-82
-127
-68
-109
-142
-292
-485
-212
-50
-201
-47
-225
-470
-101
-88
-447
-303
-49
-108
-218
-240
-122
-12
-228
-393
-111
-38
-233
-145
-85
-312
-248
6
-2
-98
-236
-254
-160
-159
-349
-365
127
221
-180
-171
-68
-195
-336
-296
-109
-101
-67
-138
-370
-237
-140
-154
-113
-433
-343
81
62
-26
-69
-128
-124
-240
-178
-1
-204
-256
-121
-117
-234
-86
12
-218
-71
-9
-194
-111
19
4
-36
118
180
-43
76
273
208
204
32
-46
112
285
370
194
52
50
-71
-286
-205
-76
-152
-29
-25
-49
-101
-407
-221
-75
-175
-68
-23
167
776
1741
2711
3137
2551
1176
206
69
41
23
66
33
-63
-16
28
-129
-169
-275
-399
-268
-46
-25
-67
-83
-333
-291
-91
-207
-177
-20
4
-57
-140
-104
35
-86
-186
81
83
4
101
57
85
168
178
78
88
344
527
443
345
282
302
426
334
423
515
382
464
359
223
322
88
-49
66
-183
-185
62
-28
-200
-221
2
-221
-429
-97
-218
-196
56
-274
-383
-148
-264
-243
-43
-114
-222
-129
-179
-326
-186
-95
-27
20
-182
-249
-112
-86
-114
-32
-140
-167
-37
-178
-153
-34
-204
-191
-19
-100
-113
-69
-286
-242
71
-127
-299
-172
-173
-116
-128
-60
74
-56
-284
-194
7
-105
-184
-222
-168
-21
-152
-247
-122
-156
-402
-186
-30
-315
-130
63
-8
-104
-147
-95
-235
-267
-202
-185
76
100
-86
19
-35
-138
-44
49
117
100
290
282
62
30
36
5
99
97
-213
-121
-8
-238
-96
-29
-293
-271
-296
-362
-28
-16
-327
-167
-28
69
810
1775
2655
3067
2516
1197
198
-3
-46
103
109
-9
-44
-169
-125
-283
-299
-27
-95
-197
-146
-128
-139
-145
-254
-290
-112
-28
-130
-121
36
11
-203
-107
46
-65
-133
-111
-70
15
170
171
-7
143
365
220
129
210
266
436
536
441
431
465
529
604
334
142
436
509
298
175
30
96
192
1
-146
-163
-60
-230
-228
-42
-194
-151
-141
-242
-72
-82
-336
-295
-64
-269
-476
-272
-260
-103
-100
-214
-86
-147
-208
-190
-218
-136
-124
-317
-11
85
-172
-150
-316
-27
-33
-475
-135
-61
-222
-45
-167
-326
-325
-289
-186
-224
-201
-194
-176
-115
-268
-369
-230
-5
-160
-255
-112
-143
-304
-268
-28
-309
-258
-53
-323
-294
-208
-168
-93
-161
-188
-117
-138
-317
-520
-242
69
-136
-216
-59
-147
-352
-366
-179
-125
-192
-79
-92
-128
-13
-16
-118
94
-15
-364
56
195
19
207
196
116
200
140
32
48
-64
-135
-182
-267
19
28
-323
-343
-327
-298
-164
-174
-283
-312
-294
-154
-48
189
1167
2488
3221
3053
2173
920
151
96
144
-28
-84
8
-75
-174
-191
-195
-272
-249
-85
-148
-273
-296
-149
11
-178
-195
-76
-238
-214
-135
-224
-135
125
28
-338
-95
125
-103
-55
91
34
82
287
257
172
217
353
449
177
199
511
293
402
685
441
403
609
549
347
437
262
34
296
195
-5
204
103
-111
-103
-168
-193
-257
-248
-213
-272
-94
-95
-199
-172
-248
-194
-49
18
-187
-264
-61
-252
-232
-19
-92
-162
-180
-67
-136
-148
-3
-65
-287
-394
-50
170
20
-86
-128
-204
-301
-98
-79
-158
-61
-200
-172
-79
-65
-163
-286
-168
-54
-24
-192
-316
-182
-61
-166
-287
-112
-149
-263
-149
-31
-55
-347
-145
33
-141
-40
-74
-140
-269
-250
-12
-199
-258
46
-116
-244
-45
-149
-157
-28
-189
-170
84
40
14
-120
-19
258
110
52
149
337
230
25
-30
-99
192
352
120
-88
16
91
-243
-269
-38
-134
-209
-31
-26
-266
-223
-110
-299
-285
-62
56
629
1749
2781
3405
3087
1796
596
78
108
292
198
-21
-201
-126
-20
-93
-38
-266
-457
-241
-8
124
-46
-101
-14
-37
-136
-295
-28
69
-253
-191
13
111
20
-134
-57
36
-52
26
111
62
121
184
293
439
378
191
273
467
494
377
394
482
549
526
264
421
587
379
353
318
178
196
158
-53
11
55
-60
-125
-155
-200
-168
19
-44
-187
-253
-225
-61
-69
-278
-201
-56
-171
-123
-126
-210
-206
-300
-235
51
3
-193
-18
17
-67
-1
-74
-22
-39
-311
-222
59
-64
-228
-143
-136
-130
-158
-254
-155
-197
-67
138
-215
-302
-39
-112
-176
-74
-73
-189
-218
-30
-142
-283
-121
-271
-346
-93
-57
20
-44
-335
-164
-80
-130
-39
-167
-152
-61
-128
-206
-224
-120
-94
-140
-217
-188
134
54
-45
166
29
57
305
187
27
27
60
248
246
47
-106
-155
-162
-280
-202
-143
-218
-213
-81
-133
-171
-153
-336
-195
-30
-94
-8
934
2110
2805
3054
2296
944
81
-57
-51
73
95
65
-51
-182
-15
-206
-404
-56
20
-140
-142
-14
-16
-218
-201
-305
-256
27
-9
-111
-171
-34
69
-6
72
-9
-47
-18
-28
156
124
29
206
332
298
260
268
98
229
657
420
195
430
378
351
440
372
518
510
299
461
351
-44
86
170
26
-192
-292
21
-103
-124
-140
-400
-51
-73
-382
-127
35
-83
-206
-266
-380
-268
155
-66
-277
-66
-40
-184
-234
-29
-105
-350
-120
34
-62
0
-9
-193
-183
12
-154
-338
-169
-197
-252
-23
-10
-222
-214
-89
-216
-277
-174
-217
-184
-84
-181
-233
-299
-318
-167
-112
-121
-204
-211
-283
-322
-122
-183
-244
-99
-204
-238
-110
-140
-230
-308
-361
-279
-92
-105
-138
-51
-186
-302
-261
-232
-181
16
68
2
28
0
-45
-91
70
159
75
76
-70
38
258
167
8
-148
-105
-216
-436
-290
-128
-367
-362
-100
-135
-122
-246
-268
-218
-219
-59
135
912
2200
3142
2925
1888
898
165
-42
66
15
-106
-1
21
-319
-421
-20
-80
-420
-236
-176
-142
19
-159
-382
-303
-143
-93
15
-66
-306
-292
-155
1
67
28
-27
-136
-148
24
79
59
202
119
112
262
274
404
313
199
196
207
458
618
650
594
483
437
386
324
469
357
91
118
75
110
74
-83
-101
-2
-165
-248
-149
-344
-125
-37
-308
-142
-106
-154
-160
-251
-248
-126
-177
-356
-112
-63
-269
-264
-345
-193
72
14
-49
-11
-144
-382
-332
-38
7
-131
-246
-244
-103
-94
-149
-403
-364
-32
-181
-173
-115
-236
-227
-186
-85
-247
-276
-142
-183
-212
-302
-323
-303
-135
38
-123
-251
-93
-123
-369
-355
-133
-116
-474
-287
123
-99
-117
-113
-286
-154
-91
-104
-166
-222
-290
-247
81
115
-80
93
130
-168
-15
237
167
161
172
16
-71
127
253
149
17
-176
-118
-31
-203
-193
-173
-167
-92
-311
-175
-8
-289
-103
-104
-309
-3
301
753
1918
3150
3380
2483
1223
489
198
-20
-63
62
61
14
-178
-371
-139
-33
-176
-233
-249
-184
-231
-206
-39
-235
-238
-92
-194
-84
-90
-307
-145
42
-64
-163
-164
13
53
-28
89
16
-9
256
247
101
130
262
304
286
423
465
382
544
539
319
517
576
388
331
398
393
255
144
116
-4
-91
-5
-3
-36
-116
-92
-127
-131
-87
-341
-405
-87
6
-186
-132
-178
-285
-43
-185
-401
-160
-128
-408
-276
34
-47
-64
-199
-303
-94
-80
-91
-136
-397
-316
205
224
-186
-228
-104
-206
-290
-45
-90
-240
-177
-129
-127
-305
-262
-109
-195
-182
-195
-330
-177
-22
-43
-141
-183
-94
-215
-336
-101
-32
-183
-222
-220
-165
-69
-142
-362
-274
-97
-171
-183
-164
-65
-101
-152
36
-157
-298
-46
63
-60
-69
61
104
28
-154
-20
316
328
204
54
-119
63
251
-118
-100
145
-160
-106
93
-212
-241
-95
-196
-252
-209
-72
-82
-449
-366
111
49
454
1598
2598
3172
2861
1694
422
-151
91
271
28
85
132
-184
-214
-116
-136
-134
-209
-316
-183
28
-82
-149
-249
-247
-2
-204
-201
-62
-120
30
-28
-82
10
-5
-109
-42
-44
-191
188
309
120
202
192
144
157
315
423
297
318
463
370
358
561
422
328
618
588
127
284
567
160
164
147
-94
76
64
-67
-48
-290
-307
-51
-107
-215
-135
-165
-136
18
-87
-162
-233
-105
-11
-156
-266
-180
-45
-179
-36
30
-139
-344
-199
136
-124
-79
130
-48
-152
-109
-126
-136
-105
-40
-179
-252
19
-185
-224
-45
-223
-238
-276
-316
-156
-154
-188
-48
-179
-168
-4
-44
-174
-373
-338
-238
-144
-86
-171
-153
-206
-179
-193
-459
-237
-89
-195
-40
-115
-274
-103
-39
-107
82
32
-182
-65
71
121
-28
-181
70
80
37
123
-68
84
132
-33
-2
-284
-239
16
-183
-400
-292
-46
-151
-267
-261
-228
-198
-305
-199
-118
94
1055
2007
2675
3024
2154
763
117
-56
-30
87
49
-43
-294
-423
-98
-37
-207
-219
-316
-251
-264
-329
-92
-85
-191
-113
-284
-285
-110
-24
40
-230
-146
71
-31
-69
-143
-55
-90
-160
145
68
-120
143
357
379
326
264
251
373
412
361
343
409
435
413
435
283
323
327
-34
136
301
65
-10
-67
56
11
-256
-231
-95
-324
-354
7
-71
-187
-57
-185
-283
-162
-144
-350
-383
-8
-104
-307
-44
-161
-375
-107
71
-88
-125
-207
-114
-57
-290
3
69
-89
-68
-186
-157
-189
-177
-169
-184
-80
-117
-185
-279
-308
-190
-90
-207
-321
-124
-86
-128
-150
-101
-121
-252
-101
-218
-375
-154
-85
-292
-269
-175
-250
-195
-223
-261
-158
-196
-230
-64
-72
-138
-62
-181
-192
-97
-236
-109
17
-77
38
128
10
-89
151
312
41
-7
8
-16
221
28
-151
46
-169
-297
-124
-150
-125
-88
-361
-531
-234
-54
-277
-281
-73
-71
-112
352
1400
2408
2965
2793
1920
729
183
181
10
15
37
1
-82
-306
-478
-293
-14
-98
-342
-407
-109
-19
-210
-263
-217
-162
-274
-216
-111
-216
-33
31
-178
-158
-12
5
-43
45
110
58
-65
44
226
-45
-5
227
160
406
511
476
565
407
385
567
541
552
540
400
380
280
135
209
177
-32
-25
-21
-1
-58
-423
-231
184
-14
-364
-296
-146
-217
-89
-68
-195
-247
-300
-119
51
-196
-250
-58
-283
-236
-42
-333
-199
43
-264
-292
-20
18
-168
-301
-72
-68
-214
-146
-115
-135
-322
-299
-199
-246
-137
-227
-208
-84
-251
-259
-362
-220
-13
-175
-209
-232
-223
-136
-230
-340
-89
-119
-380
-248
-205
-360
-201
-84
-282
-143
-110
-269
-148
-104
-185
-157
-239
-251
-38
-178
-256
-100
-165
-184
47
100
111
37
-109
-44
32
221
208
42
-17
-120
185
272
-301
-230
100
-149
-270
-298
-339
-200
-175
-151
-156
-185
-111
-254
-422
-187
-127
36
1115
2243
3038
3286
2519
1130
4
63
208
-47
51
36
-90
-154
-176
-170
-268
-172
-116
-328
-354
-122
-103
-270
-262
-272
-178
-143
-211
-134
-171
-204
-146
-20
15
-75
-33
-15
-64
-56
-13
125
156
63
164
44
19
425
516
375
477
476
310
347
386
419
609
630
402
273
318
290
-18
-26
80
-124
-76
-75
-35
31
-272
-199
-31
-240
-250
-106
-122
-189
-228
-415
-345
-50
-169
-181
-165
-232
-194
-167
-76
-144
-253
-222
-139
-160
-27
-46
-179
-60
-307
-459
-17
124
-267
-325
-78
-90
-152
-184
-91
-169
-391
-225
-35
-61
-228
-234
20
-42
-159
-245
-300
-65
-187
-311
-117
-151
-205
-21
-66
-337
-339
-196
-138
-137
-144
-88
-38
-235
-196
-185
-303
-116
-199
-243
8
-51
-354
-225
82
-98
-165
99
14
-95
138
270
203
-15
-121
28
175
116
-19
-14
-131
-288
-211
-36
-105
-232
-365
-338
-172
-214
-113
-23
-165
-200
-83
13
752
1934
2881
3136
2327
1245
367
52
120
14
-20
1
-186
-218
-101
-205
-213
-169
-206
-143
-126
-125
-86
-71
-281
-313
-161
-119
-129
-203
-45
-26
-193
-172
-94
-225
-29
234
-108
-204
128
230
201
258
229
238
292
199
199
420
432
293
275
325
352
463
500
371
407
284
210
284
93
28
40
-19
103
-91
-352
-87
-115
-204
-85
-293
-319
-13
-151
-303
-100
-282
-446
-86
23
-203
-167
-177
-271
-196
-67
-220
-274
-78
-232
-224
-152
-156
-73
-118
-30
-89
-231
-338
-197
-56
-195
-205
-101
-284
-379
-109
-179
-83
-64
-403
-270
-86
-141
-197
-291
-398
-185
-85
-300
-317
-194
-202
-244
-101
-118
-389
-338
-101
-183
-286
-239
-172
-336
-335
-65
-205
-385
-85
97
-152
-100
53
-139
-68
126
86
-37
-140
119
331
125
137
-8
-322
-223
-327
-303
3
-148
-263
-260
-255
-174
-328
-388
-284
-195
-175
-251
-125
15
655
2032
2857
2859
2191
876
82
67
-27
-87
-104
-6
-46
-362
-256
-128
-280
-266
-155
-234
-359
-206
-111
-351
-274
-67
-297
-279
-162
-299
-134
-55
-145
-15
71
-145
-274
-95
-79
-85
-54
2
33
150
271
57
84
313
265
261
214
203
561
625
441
238
199
444
295
192
251
84
53
88
11
-169
-89
-60
-266
-254
-267
-157
-137
-194
-95
-261
-325
-116
-200
-302
-159
-202
-228
-107
-240
-446
-199
-39
-234
-338
-239
-50
-179
-206
-42
-78
-130
-131
-202
-218
-112
-153
-139
-153
-255
-83
-172
-336
-313
-235
-104
-48
-199
-333
-269
-255
-65
-102
-236
-277
-267
-152
-163
-249
-275
-192
-84
-176
-365
-207
-55
-251
-276
-152
-183
-195
-161
-210
-369
-222
-77
-258
-186
-44
-132
-196
-262
-130
66
34
85
55
-72
79
281
212
34
-10
-9
-74
-87
43
90
-80
-67
-38
-157
-121
-307
-297
-72
-275
-357
-300
-159
-3
-185
-194
-70
56
736
1878
2883
3145
2347
1105
228
-114
13
121
-18
-244
-81
106
-226
-178
-49
-262
-266
-371
-300
-17
-115
-149
-205
-205
-110
-176
-175
-147
-211
-293
-144
-50
-185
-123
99
105
-33
-16
34
-64
102
255
230
168
-46
109
427
544
482
381
427
409
474
400
402
495
364
411
18
6
497
237
-42
-27
10
-59
-151
-183
-146
-398
-479
-76
-194
-174
-104
-186
-104
-281
-261
-141
-226
-149
-51
-137
-229
-214
-233
-627
-393
95
-65
-16
-21
-226
-158
-114
-200
-54
-89
-347
-220
-105
-187
-120
-110
-191
-257
-275
-258
-426
-458
-142
-41
-186
-150
-75
-247
-196
-96
-394
-235
-12
-185
-148
-153
-149
-235
-390
-308
-248
-70
-25
-304
-281
-101
-232
-288
-109
-60
-86
-169
-97
-61
-199
-135
-89
-179
-116
-137
-50
231
110
67
199
-6
-87
141
105
68
125
103
162
-18
-366
-180
30
-270
-343
-111
-247
-304
-176
-364
-169
-84
-378
-153
96
322
1062
2373
3346
3030
2195
999
12
82
322
155
-158
53
8
-393
-234
-275
-204
23
-124
-219
-199
-184
-148
-191
-210
-109
-131
-204
-200
-105
-64
-25
-58
-27
-34
-109
97
85
-99
27
114
87
139
120
168
336
263
168
346
493
458
420
445
357
442
572
440
494
537
348
256
202
117
32
-7
134
-63
-214
71
-25
-294
-331
-186
-98
-194
-175
-234
-234
0
-117
-306
-231
-209
-60
-39
-222
-209
-175
-72
-48
-125
-102
-73
-297
-281
-87
-340
-91
170
-120
-219
-126
-137
-187
-66
-93
-160
-258
-118
100
-160
-239
-125
-298
-274
-98
-186
-210
-182
-175
-167
-269
-341
-247
-155
-198
-169
-60
-101
-150
-67
-87
-257
-259
-35
-118
-252
-154
-119
-93
-241
-180
1
-109
-266
-126
-11
-130
-23
-90
44
338
181
52
93
162
207
30
1
115
78
26
-144
-212
-118
-97
-212
-196
-309
-361
-70
-91
-246
-180
-126
-240
-131
13
237
1198
2439
3273
3079
1856
695
214
-33
-57
181
132
-86
-97
-70
-296
-370
-154
-236
-175
22
-103
-168
-161
-207
-153
-51
-77
-17
-98
-210
-90
-130
-93
102
117
33
15
-156
-222
158
251
63
171
236
279
305
70
232
497
425
300
262
445
535
449
176
229
547
395
289
148
100
203
-21
75
162
-48
33
-124
-355
-110
-144
-245
-122
-122
-135
-170
-185
-210
-233
-200
-192
-103
-251
-467
-114
172
-104
-238
-73
-125
-116
-103
-107
-15
-114
-175
-105
-73
-75
-8
-275
-385
-10
-54
-192
-105
-111
-85
-195
-265
-82
-160
-244
-20
-57
-245
-178
-104
-158
-195
-151
-126
-156
-221
-145
-80
-154
-183
-208
-175
-111
-47
-148
-309
-85
79
-192
-455
-216
104
65
6
-65
125
280
34
100
153
120
152
67
58
164
121
-73
-15
-22
-147
-201
-179
-104
-143
-155
-197
-209
-249
-288
-216
-248
-49
21
-8
610
1674
2772
3245
2606
1198
91
-215
-42
191
22
-8
43
-242
-263
-151
-116
-93
-275
-293
-47
-122
-152
-55
-235
-360
-136
3
-210
-232
-67
-39
-86
10
-39
-131
25
14
-57
-18
-31
6
291
345
47
101
220
207
333
348
322
314
297
427
479
217
377
651
406
260
171
131
202
165
-32
-123
-150
-256
-85
-104
-179
-37
-138
-175
-266
-256
-127
-258
-303
-166
-152
-236
-100
-31
-282
-351
-172
-155
-260
-257
-63
-93
-75
50
-4
-119
-225
21
-44
-221
-145
-307
-215
3
-100
-102
-229
-442
-206
-20
-241
-291
-47
-89
-220
-203
-109
-69
-213
-273
-289
-289
-161
-144
-175
-132
-199
-276
-315
-209
-90
-126
-212
-186
-66
-154
-288
-221
-108
-364
-387
-72
-151
-151
32
-149
-222
107
134
53
205
105
-58
26
53
-79
-32
155
10
-167
-44
-52
-194
-292
-417
-283
-273
-447
-284
-40
-54
-301
-321
-150
-116
-72
511
1698
2760
3097
2615
1473
353
-97
42
189
57
-148
-255
-242
-211
-161
-172
-179
-200
-321
-227
-175
-215
52
95
-1
-42
-136
-166
-245
-7
153
-29
92
139
-68
-32
109
-25
-82
152
295
157
198
372
236
262
373
311
331
446
538
447
455
622
480
450
683
420
188
383
289
287
332
-125
-104
241
8
-93
17
-90
-159
-192
-229
11
71
-217
-144
-54
-68
-47
-170
-182
-97
-87
-117
-123
-174
-118
-63
-136
-148
-80
38
-30
-50
-70
-279
-275
-67
90
20
-210
-190
-96
-69
-76
-191
-79
23
-75
-206
-272
-174
-120
-113
-168
-236
-153
-161
-103
-134
-243
-153
-212
-448
-230
132
-149
-262
-83
-133
-74
-54
-257
-249
-207
-185
-126
-139
-64
-62
-155
-223
-133
-20
-184
-81
245
32
-54
149
111
160
214
101
-77
-173
68
225
126
40
-184
-215
-219
-359
-24
57
-314
-402
-247
-188
-215
-214
-301
-236
-56
243
935
1939
3154
3321
2207
971
290
282
33
-40
186
-167
-326
-86
-136
-237
-199
-185
-221
-260
-288
-213
-50
-118
-260
-243
-199
-59
-108
-349
-170
-133
-262
-17
33
-105
-44
11
7
23
14
75
168
216
217
197
209
251
377
469
232
268
328
242
427
405
411
463
429
336
271
218
131
140
-16
-155
-62
-92
-183
-106
-197
-331
-216
-156
-296
-287
-40
-250
-600
-312
-111
-45
-76
-213
-122
-155
-156
-166
-246
-207
-177
-112
-125
-345
-225
1
-127
-181
-295
-256
-94
-210
-238
-35
62
-149
-227
-158
-249
-132
-20
-196
-260
-252
-188
-93
-191
-241
-169
-266
-343
-162
-74
-168
-231
-154
-184
-274
-147
-77
-262
-282
-73
-68
-88
-175
-299
-153
-136
-132
-15
-297
-283
-28
-12
71
-25
54
116
14
178
130
-2
73
126
141
190
147
8
-24
-40
-155
-165
-132
-352
-403
-229
-185
-162
-180
-195
-194
-161
-177
-92
124
764
2014
3040
3213
2285
1161
137
-393
69
286
99
-62
-94
-86
-361
-254
26
-90
-202
-109
-115
-211
-124
-57
-187
-199
56
-165
-265
27
-7
-99
-156
-87
-43
7
167
72
-8
21
-8
-73
21
293
274
224
356
386
321
359
338
163
291
565
420
364
515
376
221
231
162
114
179
76
60
104
-31
-41
-181
-254
-74
-289
-233
-53
-136
-114
-198
-266
-233
-122
-152
-226
-325
-277
-4
-26
-78
-81
-222
-169
-237
-324
-82
-96
-78
5
-125
-153
-119
-50
-60
-49
-197
-292
-152
-133
-41
-116
-295
-298
-177
-72
-229
-291
-279
-245
-116
-134
-153
-198
-229
-94
-53
-156
-176
-233
-149
-86
-264
-284
-172
-109
-215
-393
-341
-239
-170
-117
-337
-159
62
-297
-267
58
-17
-71
-63
49
137
56
101
14
43
39
11
113
1
-133
-267
-233
-76
-142
-263
-264
-238
-215
-109
-276
-455
-244
-158
-345
-356
-95
68
649
1522
2374
3111
2496
1197
452
55
-102
-77
-66
-107
-90
-122
-317
-245
-241
-379
-172
-132
-195
-144
-135
-158
-154
-190
-322
-182
-33
-134
-213
-52
-56
-250
-109
-35
-82
-89
-73
-32
-53
55
182
76
62
197
211
400
444
211
268
383
333
221
534
598
105
207
434
251
250
275
7
-19
24
-29
-117
-309
-200
-70
-231
-204
-67
-155
-144
-153
-203
-159
-341
-486
-299
-104
-142
-401
-240
42
-229
-82
-8
-222
-111
-225
-117
18
-249
-227
-58
-54
-4
-207
-329
-62
-117
-325
-107
-61
-325
-259
-94
-168
-179
-220
-275
-173
-278
-302
-31
-93
-207
-91
-231
-213
-119
-181
-189
-324
-189
-225
-378
-1
-97
-275
-158
-251
-226
-63
-255
-375
-102
-147
-167
-9
-89
-209
-142
-138
-195
-125
-13
13
-146
-111
158
171
-76
124
303
-76
-104
123
120
124
115
22
-111
-194
-114
-113
-195
-228
-329
-389
-289
-184
-136
-114
-335
-288
-65
-104
128
1008
2206
2897
3050
2393
916
131
45
62
27
-132
-114
-229
-207
61
-30
-221
-113
-142
-323
-241
-144
-272
-207
-153
-132
-105
-214
-137
-78
-33
-222
-305
103
108
-94
-27
-41
-20
62
98
123
130
188
299
195
-34
316
533
375
524
439
121
303
555
539
542
290
321
447
297
298
136
12
86
69
-84
-182
-81
-15
-164
-234
-178
-220
-345
-307
11
-74
-362
-107
-60
-224
-123
-116
-187
-327
-168
108
-108
-347
-214
-42
-149
-165
-140
-244
-119
-65
-163
-245
-347
-202
24
-46
-120
-109
-209
-112
-218
-399
-134
-194
-227
-54
-286
-320
-110
-98
-219
-229
-118
-208
-262
-164
-138
-108
69
-362
-648
-102
-43
-194
-260
-303
-140
-131
-159
-88
-146
-263
-188
-148
-299
-309
-154
-69
-74
-138
-238
-107
101
53
4
-68
-30
78
180
328
206
111
13
-23
163
228
134
-116
-195
15
-143
-389
-52
-15
-317
-248
-255
-296
-192
-63
30
-160
-336
-236
361
1484
2629
3223
3007
2002
622
133
179
99
72
3
-2
-80
-183
-265
-188
9
-200
-451
-257
14
41
-229
-252
-61
-88
-141
-164
-250
-177
52
-86
-181
55
-27
-135
129
167
33
-50
-49
123
255
289
243
340
343
325
489
230
151
493
413
409
609
484
465
456
268
281
284
189
113
105
150
64
-131
-138
85
-19
-295
-282
-205
-107
-82
-201
-163
-185
-270
-146
-131
-126
-105
-222
-177
-130
-139
-83
-148
-260
-162
54
-118
-361
-85
-81
-408
-130
0
-78
-54
-231
-87
10
-129
-156
-133
-106
-196
-322
-198
-123
-171
-165
-155
-196
-254
-112
-113
-242
-250
-175
-151
-315
-178
45
-213
-288
-29
-90
-186
-195
-98
-63
-185
-183
-169
-121
-133
-240
-239
-50
-87
-161
-13
37
14
-2
-63
-28
66
150
137
47
209
182
51
53
75
31
61
120
-204
-285
-96
-203
-209
-11
-45
-221
-142
-54
-186
-280
-277
-204
-59
199
828
1819
2695
3096
2539
1121
150
-5
-14
-9
19
23
-130
-254
-211
-173
-67
-93
-226
-186
-65
-253
-230
-77
-286
-164
0
-243
-250
51
-124
-236
26
-8
-180
-74
65
61
91
0
175
256
98
65
142
288
266
325
349
256
182
100
252
668
628
384
423
353
269
313
173
92
141
-20
99
43
-160
-15
-25
-147
-226
-219
-376
-408
-124
-228
-152
39
-230
-170
-5
-301
-345
-88
-55
-165
-187
-83
-254
-230
86
-121
-345
-51
5
-248
-255
-217
-101
-64
-241
-198
-62
-213
-311
-99
20
-143
-234
-37
-49
-282
-202
-149
-438
-314
44
-168
-306
-174
-192
-188
-136
-211
-293
-153
-245
-346
-115
-37
-104
-280
-274
-66
-221
-288
-98
-40
-211
-325
-228
-169
-120
-39
-154
-245
-122
-151
35
80
111
241
-35
-38
205
148
28
90
45
-26
-53
-49
36
-2
-85
-136
-160
-319
-387
-359
-428
-161
-60
-200
-160
-188
-241
-157
-83
426
1556
2727
3166
2636
1466
247
-76
37
67
32
-110
-146
-160
-214
-217
-185
-166
-237
-290
-198
-85
-267
-416
-222
-64
-62
-181
-188
-65
-36
-138
-127
-38
-139
-146
-66
-1
154
22
-43
221
56
-17
212
50
22
248
254
378
500
454
460
431
279
232
440
459
300
187
333
311
116
137
125
27
-132
-59
-111
-309
-249
-150
-163
-168
-159
-278
-316
-196
-221
-203
-72
-230
-299
13
-27
-421
-336
-20
-85
-101
-127
-232
-121
-141
-133
-143
-265
-95
-147
-407
-135
86
-151
-306
-158
-169
-277
-165
-225
-231
-159
-261
-274
-130
-100
-197
-247
-321
-227
-114
-75
-153
-297
-260
-244
-343
-278
-110
-389
-245
-63
-445
-267
-101
-157
-229
-379
-152
-55
-113
-122
-258
-315
-256
-254
-395
-212
-69
-160
-62
-80
-131
-98
73
167
95
78
-97
-11
145
100
162
-87
-276
-100
28
1
-194
-268
-308
-297
-246
-289
-301
-251
-331
-611
-290
43
-237
-248
-33
680
1722
2636
3243
2702
1400
429
71
-83
33
165
-14
-73
-327
-415
-110
-176
-365
-287
-179
-251
-185
-180
-342
-324
-220
-77
-102
-168
-142
-238
-160
-42
-223
-265
-3
-26
-280
-39
172
-51
48
85
-54
278
307
11
158
378
382
393
390
420
399
279
469
437
281
503
351
96
259
352
63
38
42
-181
-59
-5
-107
-171
-208
-165
-170
-174
-207
-305
-331
-202
-104
-242
-255
-175
-346
-316
-27
-136
-414
-121
-163
-446
52
131
-284
-86
-101
-502
-310
34
-21
-197
-143
-242
-401
-200
-50
-130
-251
-138
-67
-281
-287
-130
-182
-266
-229
-196
-221
-199
-186
-274
-193
-219
-359
-200
-229
-259
-52
6
-219
-359
-125
-93
-263
-188
-135
-215
-226
-163
-102
-227
-299
-268
-310
-147
33
-117
-279
-183
-43
-179
-284
-18
-8
-28
163
93
21
-9
-14
25
17
152
276
138
154
26
-269
-33
34
-152
-189
-160
-222
-344
-197
-139
-166
-249
-275
-139
-342
-283
-130
-248
489
1694
2581
3264
2970
1765
688
152
12
72
230
140
-149
-269
-257
-293
-209
-237
-196
-143
-304
-141
-18
-200
-233
-84
-95
-167
-107
-162
-384
-163
53
-86
-57
-154
-122
37
-16
-88
3
85
132
196
196
332
161
68
247
265
379
433
379
391
366
387
449
351
353
380
251
217
181
157
12
-144
47
36
-134
-68
9
-87
-235
-256
-127
-68
-117
-190
-266
-256
-228
-113
-70
-121
-112
-296
-256
-127
-247
-32
-32
-73
145
-91
-142
-35
-151
-8
-171
-379
36
29
-328
-131
8
-152
-145
-67
-220
-182
49
-324
-541
-16
-11
-257
26
-115
-172
41
-149
-153
-57
-96
-141
-192
-276
-292
-126
-50
-132
-183
-148
-147
-200
-202
-294
-125
55
-166
-118
-65
-75
-62
-313
-113
150
56
-45
-27
106
41
-27
125
272
232
186
73
-68
60
268
126
-24
-45
-159
-185
-134
-72
-196
-302
-159
-172
-217
-30
44
-143
-111
47
-281
419
2093
2845
2922
2448
1240
236
66
144
68
-85
-46
-73
-259
-93
-38
-202
-135
-64
-67
-148
-148
-109
-187
-166
-158
-165
-115
-8
-44
-118
-56
-141
-107
101
132
-135
-85
190
-38
-142
21
184
245
256
397
268
124
232
245
368
472
203
273
687
474
309
495
418
186
96
207
107
41
83
-89
-102
48
-68
-261
-144
-106
-405
-280
-15
-187
-361
-352
35
35
-415
-251
43
-117
-207
-167
-208
-165
-201
-214
-201
-173
-156
-306
-100
26
-227
-102
-22
-266
-191
-82
-231
-276
-35
68
-378
-525
-92
-84
-216
-140
-191
-168
-196
-252
-237
-142
-111
-449
-414
-21
-177
-390
-167
-160
-168
-1
-215
-387
-343
-258
-131
-148
-225
-111
-173
-391
-132
-111
-307
-263
-231
-172
-366
-468
-146
8
-36
-31
-165
-82
145
4
-100
38
122
78
31
151
191
49
-98
-17
99
-161
-378
-228
-212
-260
-207
-154
-215
-308
-141
-166
-238
-193
-356
-287
-117
155
971
2116
3030
2920
2117
1025
75
-52
163
45
-149
-222
-198
-162
-249
-191
-135
-151
-352
-289
-97
-279
-270
-224
-300
-139
-117
-340
-208
-105
-255
-106
106
19
-171
-305
-45
166
56
93
104
65
63
127
130
161
303
307
325
444
483
468
426
304
389
548
484
252
105
351
406
219
246
192
113
-180
-424
-105
-26
-60
73
-93
-226
-167
-164
-150
-208
-231
-185
-278
-208
-266
-339
-114
-62
-117
-113
-207
-234
15
-233
-373
-29
-186
-74
7
-92
-70
-224
-178
-200
-145
-159
-208
-63
-204
-382
-221
-39
-149
-225
-203
-193
-140
-312
-420
-165
-180
-244
-31
-75
-252
-73
-31
-230
-204
-293
-290
-119
-179
-140
-105
-267
-207
-18
-12
-217
-396
-248
-147
-119
-7
-91
-182
-154
-122
28
0
-66
-1
-91
-103
103
92
-71
-41
171
316
165
181
207
43
8
106
196
176
-17
-155
-1
-141
-267
-63
-115
-323
-363
-214
-153
-147
-189
-100
-28
-77
789
1989
2815
3284
2726
1540
550
188
47
44
220
30
-95
-4
-185
-295
-87
-54
-103
-155
-261
-206
-255
-90
49
-374
-334
123
-28
-229
-21
-7
-22
44
-102
-57
59
-77
-91
147
199
-6
137
272
204
320
336
335
386
351
434
466
440
444
487
413
315
525
494
262
277
386
389
178
162
197
-32
-95
-99
-7
58
-122
-285
-336
-266
-167
-124
-125
-59
-98
-176
-336
-477
-146
124
-62
-168
-63
-129
-290
-162
-6
-32
-139
-372
-297
-110
-171
11
-43
-253
21
42
-78
-134
-205
-159
-207
-187
-80
-54
-187
-242
-167
-187
-200
-125
-130
-200
-157
-259
-191
-90
-173
-134
-278
-223
-118
-241
-281
-209
-74
-226
-245
-111
-225
-123
-36
-194
-287
-197
-118
-301
-116
0
-382
-218
-51
-226
-167
-114
-53
56
143
44
-11
69
107
121
74
136
29
-122
-59
184
265
-26
-110
-177
-233
-125
-185
-232
-259
-173
-116
-155
-201
-256
-213
-326
-257
143
990
2242
2983
3077
2415
1101
279
126
151
-60
-263
-5
18
-196
-163
-192
-200
-122
-323
-284
-69
-122
-213
-242
-80
-55
-231
-24
84
-208
-228
-64
-153
-81
131
-34
-283
-85
208
88
29
129
-66
-55
208
233
407
520
318
182
409
470
292
520
610
400
308
357
299
323
334
38
80
242
43
-80
0
52
23
-102
-214
-258
-181
-314
-233
33
-215
-156
54
-122
-207
-221
-263
-127
-42
-79
-11
9
-192
-317
-90
-96
-202
-146
-81
11
-27
-225
-392
-87
184
84
-267
-320
21
-53
-137
-136
-262
-97
-32
-267
-144
-116
-296
-98
-13
-107
-109
-221
-86
60
-378
-309
-60
-235
-185
-175
-104
-92
-139
-152
-229
-159
-186
-131
-122
-218
-89
-156
-177
-48
-105
-62
-15
-96
-136
-70
21
64
85
-167
-42
381
356
107
-44
105
186
195
82
-174
-32
33
-151
-222
-217
-181
-197
-95
-46
-275
-251
-74
-110
-131
-323
248
1537
2571
3130
2541
1567
752
146
110
130
88
-18
-179
-41
-55
-290
-180
20
-128
-242
-181
-241
-127
-112
-150
-98
-89
-30
-47
-187
-370
-55
127
-126
-10
108
-50
-11
77
-9
153
171
-50
223
358
147
249
350
250
290
379
363
386
449
373
177
331
523
381
365
217
208
350
220
-26
-100
72
-72
-111
-79
-183
-124
-221
-190
-127
-265
-154
-74
-191
-277
-201
-190
-239
-143
-292
-213
26
-126
-161
-178
-220
-83
-122
-85
-49
-137
-81
-85
-183
-134
14
-203
-344
-89
-68
-221
-205
-39
-55
-283
-264
-248
-363
-174
-37
-168
-398
-252
48
-194
-297
-157
-180
-137
-274
-286
-15
-107
-293
-290
-237
-246
-208
-1
32
-198
-234
-103
-278
-309
-225
-280
-59
-82
-160
-126
-176
-99
-16
-55
-139
-89
67
242
247
214
162
39
80
-76
-94
241
33
-201
-31
-72
-237
-323
-266
-163
-132
-225
-315
-154
-127
-194
-205
-287
-297
-188
826
2127
2852
3185
2567
1276
202
-48
127
124
74
6
-243
-309
-178
-258
-162
-80
-191
-216
-220
-207
-251
-265
-210
-48
-37
-211
-203
-134
-154
-62
-165
-171
45
-109
-82
117
53
49
106
-2
114
255
30
12
305
415
304
302
377
339
390
498
505
442
367
421
443
398
262
-49
-82
149
229
111
-132
-200
-95
-129
-158
-83
-290
-432
-44
-53
-374
-131
-93
-334
-163
-144
-243
-153
-199
-323
-196
-217
-281
-97
-159
-294
-307
-189
-73
-99
-108
-79
-43
-134
-186
-135
-254
-181
-92
-250
-231
-134
-338
-460
-258
-176
-168
-178
-273
-315
-116
51
-270
-487
-167
-87
-276
-60
-146
-363
-143
-345
-263
-89
-314
-228
-187
-154
-91
-255
-236
-81
-410
-395
-22
-156
-236
-116
-343
-469
-87
84
-169
-115
11
-104
-4
52
218
295
1
4
-143
-180
189
74
-161
-35
49
-137
-321
-214
-106
-194
-319
-479
-275
-71
-273
-330
-173
-349
-526
-102
257
867
2100
3061
3093
2336
1291
405
43
30
126
-37
-300
-63
38
-289
-415
-195
-108
-269
-279
-72
-148
-343
-182
-179
-159
-226
-267
-20
-149
-251
-198
-40
-34
-85
104
-186
-257
116
60
-149
9
269
196
147
143
25
286
453
214
355
574
471
394
383
397
305
180
397
506
324
299
132
-99
-43
51
-9
-230
-127
-44
-245
-225
-152
-234
-289
-165
-115
-136
-212
-336
-355
-412
-202
4
-342
-354
-93
-122
-114
-121
-224
-260
-247
-211
-134
-216
-274
-125
-85
-255
-248
-68
-151
-239
-238
-324
-213
-112
-344
-306
-143
-423
-270
-69
-292
-215
-159
-198
-226
-280
-251
-503
-631
-192
-119
-144
-120
-263
-110
-263
-490
-304
-197
-166
-306
-422
-118
-87
-194
-156
-345
-278
-170
-307
-186
-153
-288
-158
-146
-168
21
70
-94
-81
128
201
139
-38
29
149
-2
9
-11
-168
-224
-337
-249
-139
-253
-169
-188
-241
-123
-197
-447
-344
-253
-288
-68
49
530
1556
2769
3272
2796
1656
320
-109
30
145
54
-202
-52
-1
-276
-153
-98
-231
-182
-296
-299
-183
-274
-148
-3
-297
-270
21
102
-13
-172
-129
-122
-14
-12
-126
-180
-66
140
146
131
50
65
215
159
188
183
120
426
446
338
485
339
327
527
406
209
351
493
300
252
367
236
157
77
-11
70
-81
-126
-89
-247
-153
-37
-131
-248
-175
-124
-218
-125
-80
-51
-17
-135
-177
-221
-259
-124
-9
-216
-330
5
46
-145
-58
-97
-138
-137
-234
-8
139
-123
-250
-26
11
-185
-139
-205
-286
-115
-124
-155
-151
-187
-144
-245
-300
-209
-81
-118
-246
-97
-137
-204
-22
-91
-238
-120
-199
-335
-172
-254
-200
19
-242
-343
-104
-121
-167
-145
-197
-251
-219
49
78
-66
-25
-120
-132
54
-66
-155
-7
96
343
245
69
153
-24
-118
98
291
173
-188
-208
-87
-185
-120
-151
-193
-126
-215
-228
-108
-160
-292
-102
31
-11
412
1490
2697
3163
2679
1464
164
-93
181
106
40
-2
-129
-238
-188
-152
-233
-140
-219
-249
-118
-149
-156
-244
-279
-223
-124
-21
-102
-114
-137
-176
-264
-215
25
-36
-38
60
-23
46
132
56
98
85
150
299
112
133
402
424
398
548
356
170
434
540
437
320
407
283
174
293
111
-1
62
13
-31
-39
-56
-207
-188
-53
-269
-205
-131
-177
-71
-293
-332
-170
-222
-193
-229
-295
-176
-228
-289
-55
-92
-196
-46
-97
-155
-56
-206
-360
-157
-57
-94
-263
-204
26
-210
-298
-103
-113
-294
-135
-14
-333
-299
-53
-177
-259
-188
-213
-144
-192
-347
-155
-78
-254
-320
-304
-100
-36
-165
-262
-470
-250
25
-199
-304
-230
-149
-88
-208
-306
-149
-205
-214
-173
-263
-137
-178
-72
-188
-408
47
22
-124
126
61
44
150
197
125
-41
-29
-50
-17
179
64
-149
-99
-117
-180
-206
-302
-430
-426
-408
-384
-190
-113
-171
-314
-471
-332
-126
467
1611
2517
3088
2773
1444
358
-10
-59
-27
-127
-193
-120
-354
-439
-202
-429
-438
-288
-446
-350
-411
-464
-328
-389
-424
-469
-365
-130
-295
-389
-242
-347
-404
-222
-195
-290
-219
-215
-186
-95
-9
-156
-110
161
-121
-236
18
265
322
200
232
-55
25
505
370
339
305
149
56
80
134
-40
-10
-43
-279
-254
-121
-291
-429
-276
-348
-411
-253
-192
-305
-480
-540
-467
-296
-270
-267
-352
-541
-313
-238
-381
-190
-196
-452
-372
-273
-299
-256
-307
-233
-238
-322
-157
-246
-324
-185
-404
-415
-228
-291
-374
-460
-371
-310
-344
-300
-152
-123
-416
-379
-431
-539
-257
-299
-337
-273
-327
-232
-223
-343
-339
-358
-374
-176
-260
-546
-266
-224
-406
-167
-163
-266
-277
-292
-301
-318
-262
-176
-274
-217
-209
-318
-241
-182
-46
-151
-172
98
-83
-195
142
183
133
-15
-84
28
33
109
-174
-348
-80
-134
-370
-277
-179
-288
-349
-283
-113
-320
-405
-145
-387
-328
-109
171
1205
1950
2805
3404
2404
1094
223
-10
296
270
-47
-198
-90
-172
-220
-114
-237
-344
-149
-34
-524
-522
-86
-130
-106
49
-68
-229
-176
-83
-26
-163
-91
18
-245
-127
7
-92
175
41
-82
127
108
268
61
17
520
469
340
460
355
319
480
442
480
568
410
234
275
459
314
93
207
204
48
-8
-137
-137
5
-84
-88
-142
-226
0
-126
-210
-68
-317
-348
-85
-182
-225
-190
-167
-41
-104
-277
-322
-189
-6
-75
-164
-95
-230
-184
44
27
-140
-138
-71
-139
-163
-146
-151
-259
-203
-96
-77
-49
-158
-246
-185
-23
-136
-268
-278
-189
-52
-153
-216
-211
-147
-101
-311
-276
5
-158
-260
36
-98
-291
17
-72
-225
-138
-282
-140
-43
-145
-118
-160
-165
-148
-187
-182
-131
119
168
-25
96
141
117
229
140
47
182
138
90
133
70
43
-72
-70
-91
-268
-295
-435
-289
-95
-133
44
-48
-220
-186
-204
-118
75
657
1832
2897
3116
2506
1422
323
-134
-46
146
172
6
-124
-177
-370
-199
152
-143
-189
-25
-245
-261
2
-71
-189
-174
-407
-122
204
-37
-94
-35
-3
16
-254
-173
212
179
107
60
8
9
58
268
265
110
132
306
357
311
367
430
442
369
382
384
372
432
288
118
254
253
196
171
45
50
-117
-116
60
-246
-251
135
-72
-325
-196
-75
-159
-405
-236
150
-174
-399
-168
-186
-61
-171
-281
-135
-78
-7
-14
-123
-151
-157
-7
178
-46
-264
-160
-31
-122
-190
-53
-55
-290
-102
61
-276
-161
81
-249
-119
40
-176
-123
-85
-236
-363
-86
21
-218
-141
-28
-162
-108
-75
-259
-150
40
-70
-251
-218
-36
-151
-370
-88
-149
-424
32
135
-196
-282
-55
113
-81
-71
-3
29
167
205
194
247
66
17
176
118
71
-7
-1
-54
-225
-246
-143
-117
-261
-234
-80
-170
-245
-115
-95
-110
-163
-298
-168
389
1350
2422
3165
2760
1558
647
108
-16
183
154
-39
-85
-118
-51
-107
-137
-156
-179
-155
-320
-171
-73
-211
-139
-156
-161
-40
-124
-211
-16
-52
-88
7
-46
-92
-155
73
159
-49
152
252
-1
109
305
-7
44
501
359
390
470
319
431
354
392
447
402
474
384
400
289
214
423
142
-35
151
-132
-275
40
-7
-187
-126
-85
-144
-278
-258
-224
-148
-44
-164
-199
-204
-83
-35
-271
-249
-181
-104
-90
-96
-23
-267
-214
52
-43
-110
-61
-5
-47
-172
-194
-320
-305
-192
-117
35
-49
-63
-64
-158
-52
-168
-480
-338
8
-198
-346
-96
-69
-161
-208
-117
-125
-175
-205
-312
-244
-337
-375
83
72
-143
-182
-235
-122
-226
-168
-127
-240
-184
-300
-302
-84
-174
-87
-7
-105
-100
-269
-101
130
-103
-70
255
263
132
115
177
61
61
194
102
78
76
-111
-180
-168
-413
-243
-11
-260
-348
-178
121
-48
-289
-128
-138
-223
-173
59
883
2097
3023
3220
2319
1089
321
34
150
118
-103
9
-23
-139
-138
-289
-148
-78
-200
-124
-294
-352
-81
-123
-118
-256
-378
-66
-22
-10
68
-107
-147
-138
-249
-223
127
270
-4
23
122
228
178
96
232
35
199
587
542
481
323
357
485
436
557
506
399
316
268
389
354
230
219
228
117
43
-57
-86
-66
-159
-70
-40
-137
-171
-219
-103
-223
-232
-64
-174
-283
-243
-47
-85
-318
-272
-48
-46
-94
-66
-150
-145
-76
-154
-303
-134
-32
-235
-146
-126
-147
-193
-294
-118
-146
-251
-98
-248
-376
-32
-117
-335
-76
-110
-314
-286
-314
-290
-123
-234
-306
-234
-369
-263
-125
-301
-337
-132
-61
-181
-306
-339
-277
-183
-336
-321
-159
-259
-233
-225
-227
-117
-203
-335
-251
-145
-69
-72
-92
5
-34
-64
-49
-39
58
67
111
-27
-210
124
213
-58
-26
-78
-185
-130
-158
-273
-425
-252
59
-192
-352
-265
-394
-247
-114
-230
-158
59
422
1358
2795
3440
2804
1535
336
-238
33
316
70
-48
-223
-306
-169
-185
-414
-312
104
-16
-323
-294
-180
-134
-193
-250
-264
-284
-119
-59
-183
-144
-187
-311
-120
70
14
-52
38
47
-130
-144
203
247
117
272
353
314
269
404
284
345
558
314
253
370
434
488
285
149
275
208
123
87
2
47
-42
-38
-126
-270
-24
-76
-208
-101
-132
-283
-260
-235
-140
-168
-296
-89
-146
-257
-94
-90
-134
-294
-379
-116
-100
-160
-56
17
-252
-301
75
-58
-258
-105
-147
-155
-93
-179
-312
-348
-96
-157
-244
-47
-76
-180
-191
-224
-256
-201
-107
-99
-225
-247
-115
-195
-154
-140
-292
-210
-326
-319
-12
-71
-246
-234
-97
-212
-420
-62
85
-144
-337
-323
-60
89
97
-135
-242
77
154
26
276
247
92
21
-36
7
-5
179
138
-103
-245
-344
-238
-121
-252
-402
-236
-85
-234
-86
-149
-245
-159
-343
-3
871
1952
2687
2950
2491
1140
252
-3
-92
61
-76
-217
-39
-7
-76
-119
-211
-301
-203
-66
-100
-21
-123
-324
-143
-177
-142
52
-155
-299
-151
-35
23
-15
-83
24
74
-4
-119
-61
117
134
100
64
155
319
368
231
238
491
349
270
491
304
318
570
499
356
353
398
278
130
103
122
-5
-45
-40
-150
-100
-82
-163
-144
-195
-231
-75
-132
-190
-195
-269
-243
-282
-36
34
-389
-237
159
40
-174
-188
-157
-182
-73
-82
-150
-136
-157
-131
-95
-91
22
16
-185
-62
-14
-157
-257
-221
-28
-141
-137
12
-227
-202
-97
-243
-83
13
-94
-117
-213
-210
-293
-244
3
-93
-89
-90
-248
-189
-176
-206
-283
-332
-16
-27
-125
-72
-110
-58
-152
-156
-53
-196
-237
37
44
49
97
79
162
100
126
124
-13
131
228
75
-26
10
-89
-222
-64
-160
-300
-163
-238
-252
-224
-270
-103
-55
-241
-220
-39
-10
716
2248
3180
3041
2154
908
84
129
246
85
-17
-67
-181
-155
6
-185
-277
-192
-310
-247
-233
-313
-119
-65
-209
-136
-50
-124
-228
-338
-179
31
-1
-2
-112
-98
11
-80
-64
-76
57
240
158
-32
47
381
356
174
264
422
531
428
260
452
496
332
369
231
229
475
339
266
293
50
-62
2
-72
-153
-143
-34
-41
-264
-263
-145
-68
-186
-293
-135
-58
-180
-221
-96
-258
-385
-59
-162
-432
-80
67
-164
-236
-114
-99
-194
-146
-58
-67
-107
-92
-229
-268
-27
-182
-315
-98
-259
-258
-27
-113
-245
-273
-135
-244
-205
105
-44
-198
-158
-203
-224
-171
-91
-192
-263
-125
-279
-292
-151
-280
-215
-183
-171
100
-33
-238
-137
-144
-138
-183
-212
-224
-159
-49
-214
-129
178
102
41
13
-183
-49
234
191
90
68
134
190
107
157
96
-34
-66
-318
-294
-101
-169
-272
-256
-200
-162
-138
-173
-168
-161
-146
-186
-240
270
1289
2361
3216
3103
1985
659
61
245
231
55
55
-33
-263
-353
-89
-50
-231
-90
-296
-387
-27
-226
-290
-56
-223
-323
-137
-72
-158
-198
-59
35
-187
-214
6
128
13
-286
-113
205
77
96
116
-71
193
320
51
299
533
431
498
414
388
585
435
404
506
347
395
245
15
303
377
123
-3
-3
-132
-199
-34
-22
-15
-133
-265
-129
-198
-222
-59
-255
-283
-9
-211
-382
-96
-52
-195
-167
-148
-94
-197
-139
25
-287
-371
-101
-24
-93
-190
-125
-46
-124
-132
-183
-217
-221
-256
-180
-36
-48
-280
-267
9
-49
-132
-264
-348
-48
-46
-161
-172
-174
-150
-149
-327
-364
-168
-121
-104
-181
-227
-160
-76
-74
-162
-336
-317
-206
-78
-34
-184
-51
22
-169
-256
-223
-322
-116
169
43
135
96
5
238
119
226
206
-216
58
190
80
-22
-224
-130
-61
-44
-216
-216
-150
-316
-215
-148
-180
-184
-352
-329
-175
-245
-12
710
1761
2871
3201
2660
1595
432
-65
38
128
-101
-92
-105
-269
-81
-39
-106
-100
-135
-114
-135
-233
-148
-143
-411
-330
-103
-271
-316
-46
93
-101
-160
35
-22
9
146
20
25
60
-98
9
265
142
-30
201
424
361
334
423
421
435
438
399
283
275
623
599
343
397
281
189
318
127
-89
-5
77
10
-43
-97
-170
-103
-114
-154
-149
-145
-170
-209
-174
-123
-266
-202
66
-149
-305
-35
20
-173
-248
-106
56
9
-40
-173
-566
-260
255
8
-108
-46
-82
-110
-111
-22
-128
-226
-35
-110
-157
0
-149
-256
-135
31
-51
-171
-65
-134
-106
52
-69
-211
-97
48
-118
-279
-17
-93
-68
178
-13
-54
19
38
-14
59
125
31
150
153
182
322
299
282
164
246
386
330
439
352
196
284
266
296
283
81
197
98
-162
130
102
-70
-121
-118
61
40
66
113
-66
-18
78
50
768
1811
2723
3222
2755
1578
382
86
304
255
179
109
99
98
27
-50
-84
3
-195
-201
28
15
11
-85
-165
15
86
7
-68
-203
20
282
99
18
13
-62
124
194
54
17
113
355
191
102
456
387
356
369
262
502
541
542
676
551
481
469
433
572
553
308
303
340
231
125
207
206
37
69
110
-56
-77
25
-419
-486
24
41
-39
49
32
-133
-103
-44
-87
-120
-53
31
-343
-275
77
-46
-97
-184
-94
-36
-95
68
-120
-228
-31
-73
-141
-124
-21
-45
-114
4
-17
-54
-125
-289
-215
-122
-200
-165
46
-40
-324
-187
-100
-142
64
-42
-216
-122
-167
-237
-323
-225
4
-356
-239
166
-124
-91
-192
-363
-72
-55
-90
2
-77
-136
-68
-10
-60
-82
23
26
-117
-129
143
265
161
91
53
38
151
145
-54
-54
-27
-30
-27
-118
-160
-260
-250
-141
-185
-185
-147
-321
-491
-198
-57
15
790
1867
2914
3290
2629
1266
212
173
214
53
-25
-57
-207
-211
-248
-301
-105
-86
-99
-218
-316
-154
-169
-193
-135
-222
-181
-121
-114
42
-17
-138
-142
-116
-11
-91
-139
-11
71
-31
26
122
127
140
214
308
58
215
489
308
373
562
491
294
198
420
629
423
312
255
222
294
121
16
-44
-115
-222
-315
-88
-65
-251
-157
-199
-408
-242
1
-294
-533
-175
-59
-291
-339
-282
-334
-230
-199
-314
-173
-181
-302
-202
-169
-287
-263
-407
-349
68
-65
-425
-359
-302
-299
-188
-377
-263
-62
-324
-333
-342
-413
-244
-284
-445
-409
-355
-379
-261
-397
-673
-484
-326
-266
-224
-338
-366
-463
-568
-463
-387
-477
-576
-465
-285
-396
-575
-438
-355
-513
-520
-398
-469
-472
-380
-344
-270
-298
-275
-281
-392
-240
-202
-448
-138
159
-169
-247
-83
-146
-413
-427
-306
-346
-344
-471
-531
-511
-554
-536
-500
-488
-435
-351
-535
-798
-602
-183
593
1784
2755
2994
2405
1392
370
-44
-43
-156
-201
-188
-370
-491
-451
-413
-409
-433
-428
-401
-432
-508
-452
-284
-226
-322
-348
-385
-311
-323
-393
-192
-200
-359
-389
-269
-149
-278
-199
-34
-70
-28
-27
-4
50
6
57
187
200
292
264
134
259
270
244
342
454
298
-3
184
322
164
99
63
3
-152
-282
-169
-192
-273
-238
-280
-209
-361
-324
-116
-282
-330
-217
-323
-454
-333
-252
-288
-238
-254
-208
-99
-392
-424
-184
-173
-229
-317
-253
-144
-206
-321
-224
-95
-234
-278
-217
-210
-91
-146
-329
-294
-100
-220
-313
-217
-308
-171
-133
-312
-256
-217
-289
-285
-275
-315
-185
-142
-283
-206
-171
-306
-172
-205
-407
2
-17
-339
-161
-240
-275
-242
-122
-127
-483
-157
81
-143
-99
3
-36
-47
170
158
60
138
95
132
110
-31
50
58
-44
-86
-189
-199
-237
-322
-343
-268
-127
-221
-212
-107
-206
-292
-178
-145
38
946
1822
2749
3243
2527
1350
273
-255
-192
209
273
13
-132
-23
14
-159
-162
-251
-174
18
-198
-386
-180
-37
-111
-149
-131
-117
-115
-286
-293
-48
-126
-24
191
86
44
-2
-31
79
86
113
256
91
43
209
303
425
336
267
313
396
455
446
541
519
302
330
486
257
69
156
54
144
208
10
-94
-133
-107
-152
-83
-177
-405
-54
30
-185
-174
-181
-233
-292
47
14
-331
-193
-149
-222
-171
-109
-71
-84
-96
-202
-238
-36
-28
-90
26
-147
-340
-81
106
-73
-116
-46
-299
-343
-72
-2
-153
-189
-215
-314
-135
-94
-163
-98
-54
-74
-272
-174
-11
-212
-198
-180
-293
-61
46
-51
-87
-286
-266
-121
-194
-225
-153
-59
-154
-152
-100
-205
-1
3
-173
48
102
-15
65
113
200
190
151
152
7
45
92
-203
-209
229
136
-198
-107
-167
-443
-173
103
-113
-149
-55
-147
-211
-226
-198
-95
233
1122
2175
2833
2796
2088
774
-65
-17
149
300
112
-148
-196
-73
-11
-157
-172
-203
-234
-271
-215
42
-188
-370
-115
-68
-150
-152
-90
-75
58
17
-183
-99
-72
-136
11
-22
-70
220
194
-16
115
274
153
77
263
324
234
385
422
243
258
334
490
448
362
319
173
258
258
123
99
17
-42
40
-94
-223
-50
-152
-353
-316
-182
28
-81
-194
-145
-368
-407
-155
-181
-260
-178
-205
-164
-109
-66
-172
-270
-45
-118
-208
-191
-166
5
-39
-163
-131
-176
-329
-120
-85
-183
-33
-258
-287
-53
-106
-136
-194
-289
-328
-100
-53
-268
-120
-226
-399
-135
-27
-92
-118
-189
-145
-185
-359
-242
-126
-129
1
-133
-350
-208
-78
-92
-259
-263
-138
-150
-29
44
-32
66
85
-63
15
28
240
231
19
137
104
20
-23
-26
44
-15
-206
-293
-199
-62
-212
-274
-119
-196
-231
-161
-242
-296
-66
78
-202
193
1439
2475
3132
3015
1935
589
-49
-86
114
347
66
-155
-105
-130
-167
-374
-284
-54
-248
-136
13
-282
-306
-43
-66
-173
-45
-110
-238
-187
-83
-56
-130
56
-45
-164
95
70
57
61
68
297
91
-74
236
390
304
285
447
412
379
523
547
357
340
574
460
218
362
468
273
159
260
207
-50
-164
-1
151
-25
-246
-113
-47
-89
-47
-245
-276
-80
-10
-136
-253
-172
27
54
-230
-82
27
-143
85
-85
-383
-43
-26
-163
2
-61
-57
39
-116
-49
-76
-383
-131
-87
-118
184
-50
-203
-97
-76
-74
-335
-294
-30
-90
-106
-126
-133
-118
-185
-101
-112
-243
-149
-41
-247
-233
-7
-82
-184
-112
-26
-102
-169
-77
-214
-273
-85
-94
-173
-83
-206
-349
57
206
121
132
43
56
-14
94
464
276
131
279
78
8
137
117
-84
36
-6
-414
-204
152
32
-180
-207
-154
-168
-251
-143
-22
-117
46
49
112
1230
2481
3156
3110
2205
880
117
209
308
115
41
-59
-403
-251
-74
-201
-149
-61
-168
-493
-193
78
-154
-91
-152
-276
-120
-104
-231
-167
-111
-200
-148
67
-22
-79
49
-51
-119
-54
59
-23
-121
168
414
381
420
345
161
292
499
414
353
411
292
350
419
386
244
213
331
64
-56
108
88
-106
-216
-182
-21
-115
-191
-13
-176
-325
-195
-165
-317
-296
-219
-144
-94
-264
-235
-208
-128
-18
-267
-328
-166
-131
-49
-255
-392
-20
62
-160
-239
-221
-275
-255
-45
-36
-119
5
-170
-310
-72
-149
-291
-158
-81
-143
-252
-158
-186
-390
-140
-6
-166
-245
-248
-249
-277
-277
-220
-152
-105
-21
-246
-181
-97
-408
-151
65
-199
-323
-133
-52
-213
-197
-22
-24
-158
-64
-67
-106
194
172
-53
146
169
135
176
-32
-8
67
49
22
-355
-292
89
-103
-276
-149
-82
-202
-207
-172
-175
-72
-177
-386
-311
-206
139
1170
2338
3039
3060
2243
876
-51
-62
115
72
112
66
-23
-136
-381
-371
29
35
-312
-181
-46
-131
-162
-127
-41
-61
-137
-131
-117
-145
-117
-154
-37
148
34
3
-22
-94
30
172
79
76
204
139
111
294
442
370
247
391
517
435
489
461
311
405
454
269
332
364
293
193
94
181
-9
-90
-77
-54
118
28
-128
-240
-158
-9
-37
-41
-170
-222
-43
-87
-89
150
-85
-369
-86
49
-99
-179
-157
-25
-36
-117
-92
42
119
-92
-134
-25
-113
-104
-54
-164
-59
12
-211
-298
-116
-53
-98
-107
-123
-57
-158
-251
-119
-61
-101
-105
-165
-201
-193
-110
-86
-134
-78
-102
-106
-140
-147
-111
-255
-158
-43
-153
-247
-142
20
-109
-179
-95
-15
-23
169
208
1
9
129
174
84
114
103
97
157
128
149
43
-233
-210
-69
-190
-237
-83
-27
-248
-210
-86
-326
-289
-107
-80
-128
23
951
2004
2633
2977
2486
1133
50
-95
63
104
94
73
-73
-149
-58
-207
-258
-103
-185
-200
-90
-119
-152
-231
-167
-154
-253
-47
-4
-245
-104
19
-140
-52
-128
-211
100
79
-57
83
142
227
176
88
308
325
158
218
359
479
476
408
366
419
437
362
388
389
258
247
274
265
255
85
-11
-93
-101
-122
-179
-18
-17
-174
-177
-70
-218
-342
-180
-175
-163
-26
-195
-338
-176
-89
-158
-193
-196
-220
-54
30
-75
-170
-176
-39
53
-1
55
-126
-655
-378
284
52
-233
-74
-75
-63
-302
-342
-60
-202
-204
-150
-158
-131
-298
-213
-119
-273
-88
-243
-464
-51
-15
-109
-7
-159
-328
-161
-133
-229
-257
-314
-216
-146
-248
-336
-93
-30
-116
87
-81
-217
-116
-261
-138
81
92
57
77
65
53
191
111
69
148
-142
-82
154
185
250
-18
-170
-115
-80
-148
-396
-281
-35
-148
-187
-148
-152
-226
-270
-118
-50
404
1329
2395
3146
2970
1987
661
115
18
-32
191
164
4
-228
-115
5
-234
-142
-128
-265
-112
36
-304
-388
11
-82
-217
-67
-15
-160
-201
-26
-33
-108
-17
14
-55
23
88
-141
-195
283
369
54
133
294
386
373
210
267
487
313
206
652
629
370
454
512
423
287
196
175
222
153
90
93
-151
-210
96
45
-214
-142
-180
-375
-130
-14
-133
-101
-313
-311
-45
12
-124
-290
-219
-215
-125
-51
-82
-22
-53
-158
-249
-132
-1
-211
-264
-82
-61
-237
-429
-133
-38
-70
19
-302
-310
-92
-31
-136
-223
-4
-60
-262
-203
-148
-292
-233
-93
-192
-152
-287
-239
-62
-267
-321
-170
-129
-257
-154
-34
-181
-157
-158
-152
-49
-130
-133
-123
-183
-98
-156
-332
-133
44
-165
-232
-88
-4
49
29
11
47
74
263
265
76
144
200
-3
-108
47
-31
-56
26
-126
-227
-238
-106
-141
-314
-211
-275
-204
-88
-338
-252
-128
-55
590
1720
2850
3362
2827
1587
500
30
51
176
118
68
5
-240
-234
-108
-190
-299
-185
-236
-317
-170
-112
-113
-146
-83
-162
-265
-130
-41
-9
-61
-148
-26
-73
-172
-12
70
12
38
111
-62
118
235
-116
156
521
326
264
421
463
428
360
289
385
488
420
378
420
413
221
210
247
66
202
156
-93
-22
-4
-181
-249
-122
-109
-111
-190
-194
-85
-187
-197
-122
-130
-335
-429
-145
2
25
-54
-158
33
-132
-288
30
-99
-294
-149
-172
-65
-29
-257
-116
-72
-163
-16
-32
-86
-74
-138
-225
-142
-219
-310
-15
-45
-228
-177
-225
-129
-179
-312
-190
-200
-113
-29
-126
-258
-169
-96
-212
-221
-215
-119
-69
-56
-141
-216
-71
-184
-361
-152
-206
-158
-120
-314
67
137
-67
-38
94
139
0
114
246
205
82
2
84
123
43
73
35
-104
-143
-372
-464
-81
-44
-173
-75
-27
-61
-238
-218
-303
-285
-9
97
682
1988
3101
3120
2393
1208
89
-134
-103
-5
324
25
-306
-23
-13
-42
-82
-215
-108
-114
-163
-292
-337
15
-64
-311
-173
-78
-21
-83
-214
-65
190
20
-493
-279
160
20
158
210
106
227
257
198
72
153
279
308
353
272
278
418
375
351
502
432
301
393
393
349
316
126
112
139
19
-39
-24
23
-80
-194
-115
-163
-247
-86
-105
-215
-195
-191
-61
-52
-64
-2
-93
-177
-172
-166
-228
-185
-73
-49
-91
-72
-87
-170
-116
-61
-114
-120
-189
-302
-129
59
48
-96
-157
-93
-185
-261
-121
-60
-229
-166
-93
-173
-21
-115
-356
-351
-232
-14
-149
-282
-124
-125
-224
-150
26
-251
-312
-111
-205
-52
-54
-255
-96
5
-214
-317
-146
-18
-139
-78
113
-19
-38
-9
28
167
145
154
217
73
-57
-123
-99
91
43
-171
-298
-166
-113
-212
-164
-221
-280
-345
-201
-95
-249
-201
-108
-117
22
830
2020
2869
2918
1985
762
156
21
-98
-65
-108
-188
-29
-56
-283
-233
-230
-345
-219
-158
-203
-299
-314
-89
-76
-271
-250
-198
-177
-137
-177
-165
-260
-96
133
-16
-112
-144
-20
95
3
7
115
109
162
104
125
368
320
353
236
131
451
479
264
345
360
165
264
198
190
275
142
125
-7
-140
-115
-217
-289
-202
-178
-209
-139
-201
-422
-184
-157
-387
-176
-91
-148
-196
-211
-188
-235
-114
-18
-252
-273
-92
-152
-156
-219
-157
-81
-240
-173
-269
-250
-86
-237
-169
-78
-254
-366
-292
-91
26
-170
-377
-319
-283
-166
-134
-359
-236
-224
-299
-200
-343
-376
-167
-118
-295
-206
-28
-120
-227
-187
-142
-230
-281
-329
-469
-351
-46
-16
-144
-360
-337
-97
-102
-32
-6
-125
3
-18
-61
118
40
26
51
-68
38
88
53
105
-82
-111
12
-202
-218
-204
-485
-348
-135
-177
-194
-244
-217
-166
-327
-294
-152
-219
519
1816
2591
3031
2632
1379
439
49
51
67
-203
-333
-163
-138
13
4
-373
-337
-178
-204
-215
-267
-307
-352
-283
-94
-192
-259
-140
-237
-313
-82
-46
-143
-116
-92
-81
-69
-21
47
99
79
32
104
138
52
163
339
369
268
347
513
389
219
368
607
334
225
571
392
137
304
244
20
-35
-62
-131
-8
9
-256
-309
-250
-253
-174
-178
-254
-165
-223
-325
-191
-273
-323
-190
-251
-205
-192
-225
-54
-89
-298
-242
-223
-313
-186
-137
-101
27
-142
-376
-184
-98
-205
-134
-179
-159
-201
-364
-154
-57
-306
-325
-139
-240
-253
-100
-207
-333
-197
-141
-350
-373
-223
-262
-406
-185
17
-197
-207
-96
-232
-243
-286
-370
-222
-163
-160
-98
-182
-175
-193
-364
-191
-155
-193
92
48
-253
-109
112
61
67
254
87
-225
8
55
-30
90
63
42
11
-271
-241
-243
-457
-328
-205
-173
-274
-279
-190
-176
-220
-289
-226
-25
626
1738
2908
3148
2515
1523
410
73
85
102
55
-118
-136
-204
-271
-175
-182
-246
-250
-194
-201
-392
-313
-152
-357
-329
-178
-306
-211
-55
-135
-211
-160
-26
-63
-137
-31
-42
-94
-15
14
92
195
48
96
253
196
243
325
279
209
332
378
333
481
492
433
420
327
248
165
182
243
223
-20
-107
99
-134
-219
-55
-198
-202
-201
-315
-332
-174
-130
-248
-112
-27
-302
-375
-67
-18
-162
-169
-252
-310
-249
-89
-34
-274
-155
-159
-305
-27
-79
-164
-98
-229
-310
-175
-85
-188
-71
-267
-487
-214
-64
-49
-84
-193
-310
-269
-179
-116
-200
-236
-66
-160
-256
-158
-304
-355
-95
-47
-231
-373
-261
-82
-74
-138
-265
-278
-65
30
-153
-250
-220
-153
-91
-13
11
-115
-35
124
102
87
113
237
127
-46
-39
-20
216
199
49
93
51
-80
-282
-293
-115
-244
-233
-61
-198
-259
-125
-32
-209
-287
-79
214
871
2006
2999
3052
2296
1149
222
-10
49
61
58
26
-103
-209
-144
-90
-196
-179
-27
-83
-252
-240
-188
-100
-17
-94
-197
-144
-84
-114
-121
-78
-32
-138
-56
74
15
103
116
22
110
195
31
62
246
210
328
300
185
286
183
209
410
458
403
306
335
331
265
297
259
27
-31
98
88
6
-170
-74
-31
-207
-98
-44
-132
-150
-77
-217
-288
-146
-173
-242
-225
-174
-208
-15
-143
-540
-217
43
-26
-76
-167
-161
-158
-195
-138
-150
-286
-155
-72
-205
-121
-30
-148
-28
-27
-310
-317
-195
-214
-347
-283
-337
-332
-79
-91
-215
-252
-178
-167
-173
-92
-192
-326
-282
-188
-171
-99
-127
-262
-236
-145
-166
-414
-291
-67
-233
-139
-69
-258
-201
-78
-3
-27
-38
71
50
75
147
142
74
-21
8
-206
-204
72
-233
-221
26
-216
-313
-253
-246
-327
-327
-148
-330
-473
-279
-175
-95
-210
189
1268
2240
2966
2711
1657
582
-5
-124
-109
-33
-84
-224
-186
-266
-366
-87
-224
-466
-350
-242
-285
-241
-266
-456
-156
-20
-218
-174
-130
-102
-262
-428
-176
-113
-237
-86
-64
-153
-12
-8
-146
25
110
17
158
183
159
273
315
327
346
339
284
356
398
277
320
326
174
127
151
181
128
18
-48
-149
-183
-190
-222
-220
-353
-332
-125
-128
-319
-174
-140
-583
-354
-132
-253
-18
-103
-243
-265
-351
-166
-84
-229
-151
-123
-286
-145
-82
-242
-205
-106
-325
-420
-56
-7
-21
-26
-293
-364
-273
-260
-324
-182
-56
-224
-331
-204
-154
-355
-337
-39
-179
-433
-186
-115
-314
-192
-107
-282
-200
-53
-333
-433
-333
-257
-222
-354
-147
-41
-159
-221
-258
-207
-181
-53
-103
-119
47
-113
-218
14
135
185
192
87
91
156
11
-141
42
-87
-276
0
-24
-248
-233
-187
-273
-243
-168
-296
-426
-333
-123
-235
-281
64
449
1343
2535
3086
2842
1820
593
86
73
125
139
-39
-111
-262
-334
-107
-190
-314
-334
-288
-179
-202
-85
-123
-200
-203
-330
-179
-173
-362
-170
-28
-12
78
-126
-156
-49
-169
-42
99
25
61
188
130
140
232
160
240
366
366
483
444
333
428
477
383
332
345
429
450
132
220
362
118
38
27
40
9
-122
-265
-283
-188
-141
-204
-280
-257
-78
-88
-215
-162
-257
-325
-150
-136
-240
-189
-225
-294
-172
64
-49
-291
-170
-123
-234
-234
-171
-217
-213
-127
-134
-153
-84
-221
-306
-175
-171
-95
-310
-433
-215
-192
-181
-198
-192
-157
-119
-142
-215
-388
-583
-186
7
-199
-162
-177
-326
-317
-142
-98
-180
-158
-126
-249
-384
-468
-102
134
-213
-277
-10
-190
-246
-4
-98
-27
-47
-118
33
64
73
101
83
100
55
-18
24
-12
30
279
105
-126
-111
-258
-268
-269
-218
-134
-135
-175
-228
-171
-151
-309
-333
-123
88
894
2048
3073
3320
2614
1371
153
107
249
-35
-52
-43
-64
-73
-143
-125
-279
-355
-179
-229
-256
-105
-130
-244
-218
-108
-131
-217
-143
-98
-203
-196
-24
-126
-228
36
78
-88
10
31
-150
44
295
155
221
317
222
376
394
299
413
420
363
370
405
479
464
327
381
496
316
206
20
-127
145
175
-82
-145
-90
-150
-227
-162
-109
-217
-246
-87
-144
-308
-80
96
-189
-277
-114
-106
-128
-150
-157
-146
-117
-171
-207
-175
-112
-70
-181
-97
-102
-257
-141
-114
-84
-223
-301
-47
-254
-264
-12
-141
-203
-150
-288
-321
-95
-118
-226
-210
-281
-261
-256
-172
-69
-116
-53
-153
-196
-106
-191
-221
-154
-155
-240
-289
-263
-190
-76
-74
-127
-143
-119
-214
-222
-64
-166
-105
160
83
-1
169
218
33
62
89
-15
89
59
145
219
59
33
-15
-75
-236
-242
-112
-185
-247
-262
-223
-103
-37
-191
-190
-77
-149
137
1024
2159
3055
3161
2393
1048
58
-40
113
185
83
-3
-21
-158
-212
-139
-143
-101
-140
-284
-62
10
-162
-107
-22
-79
-184
-101
-33
-202
-145
-9
-32
-18
-82
-3
73
20
166
231
83
58
177
180
182
324
242
273
379
396
479
405
405
512
417
291
483
510
310
238
218
205
133
92
127
96
-161
-238
38
-28
-89
-46
-214
-202
-141
-208
-139
6
-111
-208
-219
-168
-119
-203
-95
-84
-137
0
-101
-175
-57
-115
-170
-49
-36
-93
-33
-47
17
-48
-159
-43
-168
-96
-55
-220
-52
-54
-196
-167
-108
-202
-334
-246
-80
-93
-170
-147
-96
-79
-184
-207
-110
-160
-213
-167
-114
-64
-12
-160
-384
-306
-107
-96
-306
-152
-64
-114
-30
-48
92
-23
-81
156
172
79
220
262
67
19
135
131
13
138
-4
-183
-67
-209
-159
-168
-251
-146
-240
-170
-102
-226
-159
-87
-157
-295
-349
237
1155
2163
3170
3075
2038
791
-100
-113
202
157
40
29
-194
-79
-124
-349
-174
-108
-171
-209
-111
-75
-317
-327
-31
-47
-139
-77
-8
-53
-226
-129
-8
-139
-71
96
5
-43
48
10
105
271
180
139
187
256
273
269
402
443
384
323
359
448
446
460
401
357
313
244
263
157
194
191
-23
-8
-52
-73
-106
-269
-131
-83
-140
-106
-147
-125
-135
-68
-196
-372
-39
-88
-252
-59
-259
-363
-55
-146
-190
45
-86
-152
-95
-90
-106
-82
-60
-135
-148
-37
-146
-233
-100
-200
-216
-99
-101
-165
-90
-65
-277
-242
-129
-240
-199
-159
-192
-205
-341
-268
-246
-209
-47
-200
-147
-109
-309
-37
-30
-357
-243
-207
-133
-65
-222
-194
-197
-218
5
-215
-377
34
33
-48
72
66
4
35
217
191
68
124
-103
-235
172
198
7
79
30
-209
-167
-135
-310
-283
-337
-340
-216
-119
-149
-244
-235
-162
-208
-42
891
2251
3213
3058
2190
965
130
212
179
28
29
72
-28
-155
-98
-161
-173
-171
-295
-289
-204
-176
-229
-123
-11
-207
-248
-181
-86
-149
-355
-78
-205
-214
267
135
-63
147
258
13
-39
51
108
242
284
283
284
326
369
373
431
401
360
424
431
449
539
323
105
388
451
351
240
-1
99
93
-120
-73
-160
-381
-210
-48
-65
-105
-130
-208
-394
-201
-57
-230
-105
-94
-337
-257
-82
-96
-150
-164
-132
-213
-263
-141
-156
-127
-31
-27
-167
-224
-99
-166
-204
-177
-129
-81
-208
-263
-147
-114
-139
-109
-249
-406
-191
-95
-174
-172
-258
-162
-45
-234
-243
-128
-178
-246
-248
-59
-202
-308
-10
-39
-161
-115
-185
-229
-158
-160
-265
-263
-100
-75
-73
1
-38
72
87
-130
31
297
204
103
163
169
10
86
215
107
64
-3
-120
-225
-196
-188
-203
-157
-206
-244
-234
-236
-217
-163
-181
-205
-136
251
1161
2358
3286
3237
2208
887
155
118
145
32
-64
22
-60
-105
-186
-498
-354
-109
-38
-186
-289
-162
-139
-58
-104
-184
-90
-124
-238
-135
-96
-242
-81
-39
-165
-41
-65
-82
46
90
40
-85
-38
157
274
395
492
402
286
371
462
352
319
441
350
375
499
421
374
410
357
166
-122
-95
172
42
79
89
-194
-187
-199
-321
-201
-59
-120
-123
2
-81
-237
-217
-113
-169
-351
-269
-113
-119
-102
-41
-253
-307
-4
-40
-245
-118
-79
-266
-83
44
-143
-282
-146
4
-253
-263
-16
-19
-154
-211
-178
-269
-266
-237
-315
-120
-80
-290
-184
-28
-184
-295
-170
-130
-257
-265
-170
-154
-157
-203
-214
-220
-289
-162
-46
-113
-238
-243
-43
12
-136
-31
89
-5
124
143
144
131
-56
77
123
18
66
-61
-104
-34
-239
-362
-258
-196
-319
-284
-76
-89
-136
-208
-308
-218
-91
-5
446
1395
2669
3291
2650
1675
454
-242
-49
46
25
7
13
-133
-147
-131
-241
-115
-13
6
-208
-280
-10
-148
-205
-45
-199
-188
-63
-188
-173
-94
-63
-60
-78
43
83
-45
-7
163
150
177
143
63
167
278
302
329
389
335
267
359
449
419
249
304
497
479
546
373
74
122
188
83
-23
52
103
-126
-117
-31
-271
-121
20
-236
-115
-86
-200
-130
-218
-195
-279
-338
-80
-71
-144
-43
-42
-74
-68
-147
-257
-81
-54
-153
12
-13
-95
-191
-99
-35
-185
-79
-168
-280
-143
-84
-104
-164
-241
-261
-40
-14
-140
-120
-99
-41
-93
-148
-207
-280
-215
-246
-231
-143
-165
-261
-289
-131
-45
-79
-182
-146
-117
-200
-127
-154
-185
43
111
-40
132
255
157
159
122
139
83
-27
89
87
-87
-89
-170
-361
-317
-259
-224
-222
-99
-27
-252
-182
-216
-361
-162
58
471
1289
2569
3205
2488
1648
587
-158
18
138
87
-32
-75
-165
-288
-207
-125
-177
-241
-161
-171
-164
-241
-336
-214
-265
-223
-76
-132
-115
-64
-95
-125
-106
-21
-110
-117
-41
-106
-123
39
121
77
344
289
-30
147
156
191
386
340
403
425
391
432
366
479
429
160
167
304
337
181
101
-89
-58
87
-107
-198
-36
6
-245
-259
-302
-334
-99
-98
-142
-201
-235
-222
-327
-166
-129
-238
-148
-86
-68
-130
-71
-85
-403
-270
66
-43
-120
-101
-153
-163
-135
-77
-17
-135
-256
-280
-254
-175
-290
-305
-54
-55
-138
-88
-146
-266
-347
-221
-182
-50
-72
-382
-188
-105
-215
-156
-188
-213
-326
-323
-106
-192
-227
-42
-192
-349
-147
8
-67
-126
6
19
-137
41
162
84
126
-21
-97
48
141
143
-12
-37
50
-38
-116
-254
-433
-307
-57
-120
-250
-225
-339
-373
-247
-174
-223
-196
169
914
1930
2860
3211
2449
1052
260
99
111
188
-5
-217
-189
-179
-259
-294
-292
-180
-211
-375
-276
-211
-157
-202
-254
-166
-223
-169
-55
-62
-184
-210
-19
-57
-213
-149
15
82
-98
-63
108
48
225
267
107
338
353
156
274
341
296
354
485
529
492
378
436
422
164
214
355
239
103
157
102
-71
-164
-177
108
29
-360
-465
-375
14
-19
-230
-92
-225
-169
-82
-432
-363
-48
-74
-266
-201
-73
-216
-197
-136
-216
-149
-154
-91
93
-179
-302
-50
-194
-155
9
-230
-258
-75
-117
-184
-139
-206
-269
-166
-266
-347
-117
-115
-256
-226
-171
-141
-197
-181
-120
-233
-220
-176
-205
-175
-223
-235
-255
-291
-202
-170
-188
-172
-242
-272
-54
22
-104
111
64
-166
91
100
-91
114
259
-2
-54
165
94
44
-16
-38
103
-39
-216
-226
-208
-197
-110
-112
-213
-197
-212
-283
-281
-276
-260
-18
636
1775
3024
3254
2595
1756
600
-53
71
243
106
-182
-209
-92
-140
-323
-244
-262
-410
-183
-133
-250
-211
-213
-155
-136
-184
-218
-251
-140
-144
-158
19
-35
-197
-165
-247
-72
104
53
98
-26
-14
234
272
185
197
252
280
248
327
392
248
318
552
460
384
418
428
313
133
90
132
162
76
-35
-43
-89
-166
-319
-289
-78
-107
-113
-162
-188
-236
-211
-148
-240
-173
-187
-222
-188
-196
-221
-244
-176
-30
54
-188
-395
-225
-217
-224
-49
-71
-209
-175
57
0
-231
-161
-51
-215
-211
-76
-267
-258
-95
-153
-191
-159
-113
-218
-238
-230
-425
-184
23
-135
-108
-78
-176
-248
-149
-87
-72
-54
-135
-195
-258
-203
-99
-97
-109
-159
-117
55
-60
-121
189
193
98
216
121
51
37
119
223
-2
1
138
19
-233
-288
-175
-233
-181
-131
-226
-255
-250
-251
-215
47
176
-72
-63
734
1794
2686
3246
2617
1236
254
-41
61
37
11
26
-411
-316
163
4
-26
-152
-344
-325
-161
4
-149
-158
-118
-155
-98
-61
-136
-133
-55
-79
-168
-107
47
3
-98
-113
-207
-59
246
174
78
133
236
282
295
432
337
223
461
388
265
386
315
446
517
185
79
171
264
184
-20
68
143
14
-128
-203
-174
-160
-201
-208
-235
-127
17
-156
-352
-300
-215
-204
-171
-137
-155
-243
-218
-201
-198
-69
-191
-289
-222
-225
-54
-212
-373
-53
-36
-95
-115
-183
-233
-199
-120
-223
-105
-115
-360
-204
-233
-304
-58
-155
-307
-167
-97
-307
-278
-102
-241
-264
-164
-341
-425
-88
-129
-264
-147
-255
-301
-261
-200
-250
-300
-156
-129
-202
-129
-125
-139
-27
-16
-26
-115
24
208
-15
-26
20
-48
-36
16
79
-79
-167
-161
-342
-327
-230
-259
-279
-259
-264
-322
-193
-335
-544
-132
34
50
968
2281
3037
2814
1936
824
41
-91
48
-65
-244
-164
-179
-185
-139
-67
-368
-562
-265
-124
-114
-117
-108
-130
-198
-292
-274
-157
-167
-255
-222
-344
-291
-11
25
-16
-154
-54
20
-64
91
90
11
101
245
222
195
414
429
372
386
314
352
422
557
566
235
139
354
401
254
180
181
62
8
-41
-123
-101
-163
-284
-145
-88
-147
-94
-242
-256
-129
-103
-205
-267
-178
-142
-175
-213
-273
-193
-125
-192
-86
-146
-189
-85
-48
-152
-295
-227
-164
-49
10
-169
-172
-79
-135
-88
-208
-332
-204
-98
-144
-278
-144
-90
-276
-280
-184
-206
-223
-140
-245
-234
-40
-158
-294
-274
-77
-44
-367
-291
-194
-187
-68
-184
-226
-111
-182
-246
-80
-156
-218
-112
-79
20
-104
-150
55
82
-36
-115
120
270
214
146
107
37
81
73
-100
0
-81
-171
-203
-246
-164
-207
-293
-239
-174
-104
-85
-302
-128
30
-373
-160
818
1807
2910
3356
2675
1424
331
101
113
43
84
22
-70
-17
-65
-233
-298
-245
-202
-216
-115
-196
-281
-92
-218
-311
-151
-232
-219
-121
-112
-13
28
-2
-30
-80
-112
-11
109
52
-8
26
43
105
245
247
170
295
398
443
402
282
418
594
598
507
387
294
478
454
282
319
25
-176
83
186
-89
-66
87
-151
-161
-98
-301
-194
-142
-256
-149
-55
-213
-313
-212
-136
-85
-222
-219
-196
-149
-47
-281
-211
67
-174
-449
-306
-28
-39
-109
20
-195
-341
-192
-150
-188
-77
-51
-337
-185
52
-196
-322
-293
-329
-228
-195
-114
-172
-437
-171
-92
-299
-258
-229
-282
-373
-148
-23
-245
-315
-270
-307
-302
-230
-181
-205
-184
-160
-275
-170
-226
-317
-32
-185
-156
79
-172
-154
15
-55
-59
100
128
27
-12
-59
51
86
75
144
-8
-199
-304
-181
-168
-306
-220
-242
-258
-266
-371
-206
-154
-327
-354
-367
9
723
1580
2826
3342
2733
1697
417
-160
50
120
14
-64
13
-105
-265
-260
-379
-195
-98
-182
-168
-267
-177
-200
-243
-51
-164
-285
-41
-77
-212
-36
33
-108
-301
-139
62
-9
45
88
60
36
78
216
328
251
76
151
374
449
366
329
458
507
344
394
387
259
406
354
168
255
165
68
152
-22
-104
-109
-184
-7
19
-174
-177
-134
-169
-198
-215
-213
-130
-181
-201
-144
-161
-213
-207
-44
-46
-116
-152
-63
-14
-150
2
56
-222
-100
-2
-279
-163
14
-138
-315
-215
-82
-153
-13
-56
-234
-166
-154
-88
-1
-230
-380
-197
-25
-203
-276
-43
-245
-200
-55
-290
-254
-200
-176
-97
-239
-230
-15
-154
-250
-157
-167
-205
-220
-193
-214
-129
-77
-221
-176
-54
-199
-126
206
183
137
235
117
25
-19
76
229
87
-86
-210
-222
-194
-144
-58
-241
-310
-216
-252
-442
-354
-103
-103
-121
-260
-189
363
1081
2027
2880
2829
1940
783
52
-98
-37
84
-42
-216
-105
-168
-191
-58
-114
-191
-320
-132
-72
-289
-217
-233
-286
-219
-111
-154
-193
-131
-112
-97
-184
-112
-70
-47
158
7
-58
69
108
157
53
48
174
232
266
263
269
354
365
352
352
389
383
300
366
407
433
271
81
149
219
121
-116
-82
-28
-172
-134
-97
-155
-64
-146
-340
-371
-278
-88
57
-209
-452
-149
-91
-215
-104
-41
-18
-126
-257
-204
-95
-47
-192
-151
-116
-237
-159
-147
-156
-179
-89
-10
-83
-52
-243
-300
-115
-218
-179
-177
-306
-245
-42
1
-303
-316
-247
-294
-164
-87
-142
-171
-200
-209
-212
-311
-194
-78
-215
-230
-249
-150
-94
-109
-98
-251
-250
-310
-168
-80
-204
6
-149
-253
50
-19
-9
149
89
141
217
213
89
-31
17
88
168
151
-100
-216
-126
-143
-194
-280
-368
-288
-265
-296
-150
-177
-193
-113
-249
-294
-58
457
1549
2641
3042
2698
1681
521
-24
-8
14
-59
-166
-114
-75
-327
-446
-235
-214
-149
-4
-169
-206
-151
-235
-234
-244
-296
-102
-111
-225
-174
-200
-88
-52
-138
-364
-226
201
21
-71
168
80
-2
107
104
158
288
256
251
257
200
287
390
604
649
491
419
358
373
250
148
185
118
53
23
-18
-65
-67
-60
-146
-169
-281
-255
-63
-225
-289
-63
-168
-366
-167
-190
-323
-259
-300
-163
-30
-134
-196
-135
-195
-412
-288
-123
-233
-216
-70
-80
-355
-277
-59
-205
-202
-117
-224
-262
-158
-155
-209
-281
-134
-62
-318
-353
-288
-185
-132
-211
-254
-279
-220
-210
-315
-245
-315
-335
-129
-169
-211
-269
-249
-160
-170
-189
-278
-185
-142
-217
-184
-188
-233
-256
-111
-151
-422
-231
25
-211
-189
-73
-117
124
224
162
5
-6
193
7
-76
99
94
25
137
160
-44
-88
-188
-296
-427
-370
-34
-61
-186
-330
-253
-175
-293
-183
-333
-319
124
833
2091
3199
3267
2545
1237
238
117
-47
-51
42
-12
-60
-191
-202
-220
-336
-188
-120
-261
-344
-363
-163
-149
-128
-192
-387
-223
-265
-257
-87
-24
-55
-194
-108
-30
-111
-53
9
-7
110
74
-25
23
91
283
308
224
289
278
376
412
292
358
434
411
460
501
381
313
219
173
192
30
47
37
-206
-141
98
-48
-222
-75
-155
-281
-172
-118
-211
-281
-181
-134
-175
-48
-80
-372
-229
-11
-142
-182
-156
-192
-152
-94
-54
-78
-172
-152
-94
-156
-222
-162
-147
-102
-93
-205
-204
-40
-69
-221
-172
-262
-324
12
17
-238
-140
-129
-221
-160
-143
-155
-129
-264
-234
-8
-169
-317
-144
-95
-18
-99
-189
-65
-152
-256
-199
-118
-98
-150
-168
-188
-207
-85
41
29
-48
19
80
70
108
183
261
234
101
12
141
142
27
125
125
95
2
-214
-112
-62
-267
-236
-153
-173
-108
-37
-186
-251
-89
-72
-16
229
950
2062
2983
3139
2324
1045
119
5
80
68
7
-129
-134
-101
-150
-219
-205
-96
0
-95
-186
-160
-66
-84
-255
-157
-95
-143
-70
-95
-138
-47
10
25
-38
-143
-166
-115
11
197
252
53
134
357
287
225
142
229
477
461
204
270
544
474
455
418
303
403
457
168
59
241
214
140
9
-27
-13
-107
-74
-91
-40
0
-201
-276
-177
-266
-274
-154
-130
-1
-75
-227
-136
-221
-388
-120
12
-216
-5
85
-248
-176
110
46
-131
-110
-126
-122
39
10
-189
-198
-113
-186
-316
-79
80
-185
-190
-103
-126
-54
-42
-126
-183
-119
-196
-228
-94
-86
16
-152
-414
-177
-70
-129
-111
-181
-179
-48
-127
-322
-141
-72
-233
-122
50
-99
-216
-120
-193
-215
-127
-40
62
45
37
14
19
182
313
238
128
93
-50
43
163
-60
-58
18
-186
-262
-125
-229
-328
-164
-108
-152
-178
-170
-133
-225
-193
-78
171
1237
2533
3056
2737
1816
601
-31
17
121
114
-92
-255
-157
-95
-170
-180
-136
-69
-214
-315
-140
-154
-268
-208
-130
-163
-172
-155
-140
-100
-127
-104
-52
-67
69
63
-61
-12
-55
-18
57
130
201
67
196
294
65
243
463
220
89
380
567
437
340
398
408
306
308
240
98
126
154
35
45
-54
-115
-82
-214
-90
-14
-154
-202
-130
-232
-264
-137
-99
-180
-292
-158
-86
-221
-243
-111
-128
-239
-88
28
-185
-379
-123
37
-103
-126
-43
19
-271
-302
-25
-86
-95
-99
-137
-139
-127
-142
-333
-253
-139
-165
-56
-199
-264
-195
-229
-102
-132
-248
-157
-75
-116
-208
-205
-97
-118
-179
-86
-78
-260
-258
-147
-212
-222
-232
-268
-193
-50
-187
-324
-57
-71
-198
-69
-65
-150
-187
-24
48
15
83
87
114
147
58
26
145
142
118
123
49
75
40
-141
-178
-161
-226
-204
-189
-324
-312
-89
-212
-410
-11
13
-217
-108
98
938
2155
2998
3167
2451
1045
59
42
223
162
-89
-229
-149
-81
-116
-110
-84
-311
-225
-51
-263
-124
57
-100
-202
-158
-60
-122
-133
-24
-185
-295
-99
-73
-185
44
121
-146
-12
140
-17
154
261
-1
207
282
136
342
339
362
469
459
375
366
364
425
528
277
285
423
244
265
220
-88
-216
9
44
-194
-57
-26
-243
-180
-109
-276
-246
-103
-113
-159
-163
-135
-318
-237
-7
-113
-255
-223
-238
-356
-69
-66
-325
-3
-64
-380
-162
-32
-73
-118
-154
-149
-152
-148
-142
-143
-286
-233
-143
-224
-101
-157
-240
-99
-86
-360
-460
-162
-157
-228
-117
-205
-330
-107
-103
-298
-180
-173
-99
-164
-374
-135
-98
-273
-327
-307
-183
-139
-164
-328
-228
-12
-219
-244
-62
-269
-272
54
36
-58
-241
-182
224
123
103
83
-3
238
152
84
141
-56
-149
-75
-26
-7
-7
-64
-165
-303
-291
-190
-256
-236
-277
-343
-266
-222
-202
-345
-124
816
1928
2779
3159
2782
1597
419
-89
49
303
144
-114
-152
-71
-168
-336
-319
-217
-190
-216
-200
-334
-179
-5
-360
-376
-111
-203
-285
-54
-21
-132
-55
25
-123
-309
-229
-139
5
104
175
107
-33
203
205
94
280
374
338
280
288
376
394
428
494
338
288
408
280
169
183
201
262
56
-70
16
36
-2
-164
-127
-17
-109
-162
-205
-205
-151
-120
-120
-296
-308
-181
-232
-112
-9
-175
-241
-101
-40
-159
-39
-12
-257
-123
-95
-262
-84
-12
-235
-150
-49
-38
-249
-502
-133
39
-122
-28
-35
-181
-73
-175
-304
-80
1
-70
-152
-223
-277
-217
-107
-200
-179
-86
-132
-226
-221
-123
-247
-292
-153
-136
-116
-172
-101
-6
-215
-250
-201
-237
-45
-96
-275
59
73
-200
-30
172
42
-182
62
300
136
174
188
-2
-11
111
186
1
-177
-46
-167
-333
-142
-125
-219
-249
-155
-192
-403
-112
-68
-314
-54
112
561
1659
2562
2993
2688
1501
290
-109
98
226
2
-113
-89
-139
-65
-53
-244
-229
-193
-320
-132
4
-196
-220
-86
-223
-307
-116
-85
-159
-189
-84
-6
-21
-87
-254
-27
36
-88
96
69
-58
103
213
231
297
133
183
343
136
273
562
296
160
350
409
334
322
361
239
33
53
149
36
-11
-24
-59
-3
-165
-181
-129
-241
-151
-136
-130
-145
-154
-249
-380
-277
-230
-246
-269
-117
-45
-112
-200
-261
-79
-217
-298
-27
-156
-181
88
-57
-222
-117
-172
-301
-232
-85
-161
-320
-138
-54
-190
-247
-135
-123
-234
-277
-371
-130
-100
-293
-177
-187
-152
-141
-287
-315
-321
-219
-140
-337
-319
-71
-162
-318
-183
-123
-233
-229
-320
-265
-50
-129
-208
-203
-146
-41
-65
-130
-95
-57
-30
194
257
-31
-67
-4
-29
27
44
-24
-235
-298
-90
-71
-315
-319
-223
-306
-375
-386
-351
-150
-17
-213
-353
-259
161
1037
2157
3066
3011
1862
545
-31
-15
10
-25
-115
-161
-150
-240
-255
-220
-178
-116
-251
-312
-294
-361
-254
-118
-153
-249
-371
-268
-100
-164
-251
-181
-55
-152
-159
-80
-144
-205
-118
18
-47
-130
-41
81
215
286
210
240
266
113
144
282
302
324
266
359
435
100
124
318
137
63
9
-94
-134
-157
-240
-205
-139
-272
-293
-296
-293
-213
-232
-176
-240
-410
-230
-180
-354
-269
-229
-291
-215
-246
-262
-137
-153
-348
-439
-109
19
-225
-259
-223
-359
-288
-166
-194
-124
-196
-175
-185
-327
-202
-210
-321
-243
-203
-356
-330
-255
-411
-236
-248
-435
-176
-101
-223
-245
-315
-332
-315
-307
-232
-219
-203
-248
-357
-287
-224
-264
-368
-439
-265
-208
-273
-240
-222
-184
-172
-213
-145
-97
-205
-133
-11
29
0
-12
-73
-37
240
120
13
123
18
22
-5
-103
-162
-213
-376
-387
-97
-224
-293
-173
-288
-310
-193
-298
-399
-187
-166
-278
138
1266
2470
3140
2953
1937
629
-115
15
178
32
-125
-197
-202
-280
-263
-169
-300
-263
-232
-337
-289
-229
-187
-269
-257
-284
-251
-122
-305
-375
-103
-259
-307
171
-5
-272
-88
-25
-34
23
128
43
-165
-63
182
270
329
275
134
194
397
314
202
549
544
301
362
299
181
252
239
94
69
-4
-117
-34
1
-30
-164
-468
-252
-57
-381
-287
14
-38
-158
-242
-300
-212
-132
-318
-373
-119
-38
-191
-318
-182
-129
-241
-125
-139
-289
-253
-168
-5
-11
-230
-218
-152
-99
-250
-374
-66
-95
-388
-286
-138
-220
-322
-220
-210
-356
-269
-219
-278
-193
-251
-409
-247
-150
-394
-335
-71
-116
-309
-349
-232
-266
-353
-200
-105
-291
-396
-408
-293
-223
-207
-112
-305
-313
-241
-264
-38
33
-125
-141
-79
-81
40
93
58
52
-59
-29
90
25
31
74
-91
-110
-28
-170
-284
-280
-303
-350
-275
-221
-362
-364
-189
-270
-329
-139
-84
138
924
1900
2881
3271
2484
1152
136
-34
125
110
105
-47
-198
-268
-259
-285
-310
-151
-228
-356
-256
-272
-307
-203
-204
-187
-102
-231
-346
-137
-46
-231
-164
-16
-150
-154
-49
12
0
-17
101
29
-9
12
88
245
164
144
251
304
414
465
344
318
424
388
395
346
97
167
154
95
294
105
-113
-51
47
-61
-244
-172
-110
-108
-331
-274
2
-145
-176
-148
-309
-280
-119
-84
-213
-289
-110
-137
-120
43
-150
-220
-119
-145
-154
-97
-211
-270
58
76
-226
-267
-188
-56
-97
-131
-37
-203
-238
-154
-88
-84
-271
-233
-154
-61
-1
-281
-232
-76
-251
-245
-154
-180
-56
-113
-223
-91
-165
-225
-266
-112
82
-94
-156
-147
-98
-71
-127
-135
-117
-32
-55
-100
-54
18
26
-63
96
262
201
274
240
-2
34
209
227
37
-57
138
-83
-350
-215
-178
-228
-304
-236
-215
-148
-66
-191
-120
-44
-78
335
1264
2336
3135
2870
1720
640
168
94
-112
-107
157
17
-138
-59
-72
-231
-225
-23
-230
-287
-55
-75
-153
-131
-114
-188
-145
-118
-157
-18
-109
-304
-209
-124
-28
144
99
-47
42
114
92
126
40
136
320
185
211
332
215
211
408
418
225
217
302
351
481
559
361
62
32
149
84
-67
-102
-121
35
87
-204
-227
-41
-230
-298
-234
-392
-231
-18
-77
-242
-304
-93
-269
-327
-31
-127
-137
-19
-212
-224
-61
-285
-319
-79
-112
-304
-194
-80
-290
-150
50
-186
-124
54
-135
-237
-271
-206
-155
-246
-228
-146
-88
-190
-208
-197
-232
-119
-157
-311
-305
-204
-162
-260
-263
-70
-259
-272
-24
-152
-231
-265
-168
-114
-180
-158
-179
-86
-1
-240
-389
-157
-75
-165
-67
94
106
-93
-161
74
154
131
143
75
70
98
135
159
88
-115
-254
-166
-188
-312
-246
-237
-267
-134
-99
-378
-402
-296
-376
-149
-71
216
1214
2305
3053
2960
2012
771
-15
-80
82
-58
-154
-26
-231
-330
-246
-362
-199
-90
-186
-87
-212
-282
-147
-148
-142
-178
-187
-241
-210
-32
-135
-129
-40
-113
-46
-42
-141
-167
25
203
119
118
-61
-115
210
304
328
237
247
432
453
381
337
335
278
432
482
291
209
179
164
179
159
86
-127
-160
-17
-144
-271
-138
-40
-248
-178
-170
-274
-105
-281
-326
-198
-200
-180
-115
-90
-170
-166
-291
-282
-140
-219
-162
-116
-123
21
-47
-181
-185
-274
-249
-7
-67
-234
-163
-186
-339
-383
-223
-156
-276
-216
-183
-324
-328
-156
-65
-227
-213
-88
-140
-220
-301
-252
-230
-275
-278
-332
-255
-220
-280
-378
-446
-242
-163
-161
-68
-288
-295
-129
-215
-287
-383
-119
18
-189
-49
-2
-144
-27
17
-82
-2
120
133
73
82
40
-156
-59
98
82
123
-140
-218
-142
-349
-231
-68
-187
-343
-318
-262
-299
-227
-280
-193
-44
-50
663
1957
2824
3133
2714
1446
282
67
174
114
69
-69
-135
-217
-302
-251
-233
-181
-195
-154
-80
-237
-201
-86
-200
-192
-164
-144
-247
-246
-26
-425
-372
206
48
-19
53
23
50
45
121
127
118
38
56
285
333
284
343
376
426
388
294
350
434
430
440
458
466
440
324
176
95
124
36
-22
52
52
-93
-202
-226
-230
-107
-202
-252
-22
-21
-203
-385
-229
-111
-165
-32
-166
-213
-69
-103
-124
-169
-179
-196
-252
-112
-105
-147
-48
-164
-176
-157
-107
-53
-219
-100
-35
-304
-344
-34
-100
-366
-151
-136
-259
-125
-161
-291
-264
-123
-213
-232
-169
-288
-299
-162
-52
-202
-193
-162
-172
-140
-277
-246
-173
-144
-137
-142
-143
-67
-138
-357
-120
-76
-234
-67
-49
-13
107
-85
-126
-104
-161
255
411
269
247
107
98
89
142
108
7
39
-70
-74
-89
-157
-150
-235
-159
-159
-329
-248
-207
-229
-213
-218
-144
208
1003
2180
3091
2924
2270
1238
170
-34
234
291
14
-159
-98
-130
-218
-79
-136
-158
-75
-262
-239
-107
-257
-312
-102
-13
-100
-119
-34
-179
-195
-79
-163
-62
49
29
48
-44
-6
251
112
-36
87
146
279
303
207
297
376
388
405
386
346
359
304
218
378
513
411
266
203
108
69
139
3
-162
-100
-77
-79
-103
-131
-59
-135
-225
-274
-244
-210
-405
-131
120
-129
-178
-105
-93
-166
-205
-71
-85
-150
-39
-122
-196
-57
-70
-236
-124
-135
-197
-51
-183
-243
-89
-75
-182
-108
12
-123
-152
9
-28
-191
-212
-167
-222
-193
-59
-247
-389
-72
-148
-473
-249
-97
-155
-245
-237
-104
-185
-146
-5
-122
-160
-92
-410
-416
-91
-176
-93
91
51
-61
-114
-34
13
25
88
166
127
103
109
20
-95
-24
140
130
68
-4
-127
-236
-342
-147
19
-184
-293
-244
-149
-226
-320
-205
-171
-224
66
848
1841
2692
2971
2309
1095
196
-195
-29
102
-7
-31
-27
30
-174
-330
-199
-104
-254
-238
-101
-159
-175
-157
-223
-244
-246
-199
0
-194
-269
100
12
-153
12
49
1
21
18
50
65
72
200
213
190
266
315
235
270
452
354
197
416
567
373
333
333
363
401
204
127
236
140
122
176
-81
-209
-142
-194
-204
-167
-250
-163
-83
-180
-304
-301
-38
-145
-260
-104
-350
-274
-42
-243
-179
-87
-112
-79
-130
-150
-46
-58
-176
-140
-135
-140
-116
-229
-246
-68
-116
-144
-176
-308
-82
17
-16
-174
-311
-88
-64
-189
-177
-172
-336
-157
87
-142
-296
-182
-111
-264
-292
-190
-235
-215
-128
-109
-100
-226
-278
-132
-95
-155
-198
-217
-174
-232
-288
-162
-119
-225
-195
-251
-246
151
348
9
-197
128
247
226
212
110
-48
-131
151
105
-122
-61
-114
-234
-288
-230
-138
-271
-311
-187
-198
-192
-216
-395
-335
-105
-64
379
1429
2449
3027
2912
1977
687
-10
-72
58
112
-82
-261
-226
-116
-132
-164
-328
-403
-292
-365
-288
-234
-112
56
-99
-150
-141
-178
-301
-346
-100
16
-142
-197
-159
-127
-81
-162
-249
4
252
1
34
306
137
116
338
361
348
437
317
197
308
420
406
302
341
298
262
373
330
130
-20
-50
-52
-92
-76
-62
-225
-192
-56
-167
-246
-173
-132
-248
-303
-149
-177
-380
-314
-131
-161
-257
-122
-78
-226
-146
-269
-286
106
-72
-340
-120
-35
-271
-362
-142
-163
-164
-145
-237
-142
-128
-108
-148
-211
-202
-159
-113
-174
-232
-173
-31
-114
-280
-210
-187
-296
-85
-45
-466
-465
-155
-32
-126
-243
-122
-105
-145
-139
-293
-234
-65
-201
-176
-138
-239
-151
-169
-227
-162
-170
-254
-31
-29
-141
-4
-102
113
342
154
138
146
-23
13
139
153
-17
-101
-34
-129
-223
-265
-246
-252
-255
-241
-264
-233
-237
-260
-262
-160
33
-8
190
1057
2281
3287
3356
2277
788
130
147
126
32
33
-66
-239
-128
-107
-113
-100
-238
-230
-191
-327
-271
-64
-199
-360
-94
95
-89
-285
-172
-69
-139
17
-21
-200
-149
-111
-46
18
101
192
173
234
263
147
146
275
354
202
275
561
427
325
470
493
461
370
287
382
375
143
99
158
127
-44
-190
-71
43
-98
-215
-124
-14
-40
-155
-172
-284
-326
-124
-75
-120
-198
-168
-185
-257
-109
-167
-130
-47
-129
-68
-196
-340
1
100
-67
-28
-210
-314
-171
-136
-65
-156
-132
-44
-167
-134
-51
-168
-326
-187
-98
-76
-118
-300
-299
-175
-177
-230
-113
-69
-279
-249
-113
-212
-147
-210
-256
-114
-160
-151
-181
-203
-116
-144
-247
-114
-18
-266
-224
-33
-106
55
95
-218
-77
156
76
53
62
141
99
98
218
148
67
-100
-64
-9
-245
-268
-88
-88
-195
-257
-327
-291
-234
-240
-192
-141
-86
-164
91
1245
2275
2965
3180
2150
764
123
-163
-124
274
101
-180
-132
-73
-187
-248
-111
-216
-239
-123
-208
-236
-186
-126
-113
-316
-167
-120
-257
130
66
-292
-75
24
-108
-19
-67
-94
6
102
108
-79
135
286
227
212
204
444
415
204
198
376
531
521
405
185
260
382
337
330
123
77
232
215
5
-101
-18
-106
-161
-108
-146
-134
-90
-148
-236
-81
-38
-268
-211
-146
-152
8
-7
-69
-90
-66
-32
-175
-110
-92
-157
-52
-90
-124
-177
-278
-98
41
-111
-26
56
-139
-187
-119
-170
-138
-165
-265
-188
-33
-46
-158
-94
-52
-131
-197
-199
-191
-167
-170
-25
31
-203
-301
-191
2
-7
-150
-161
-162
-31
-28
-368
-292
-78
-26
45
-155
-136
-150
-328
22
237
36
-30
94
172
156
65
61
242
182
-48
63
248
125
86
-3
-270
-253
-153
-212
-257
-146
-54
-178
-103
3
-180
-253
-101
-61
328
1262
2139
2934
3032
2067
736
9
-7
11
14
20
-120
-73
27
-156
-239
-81
-150
-294
-118
-139
-181
-28
-25
-111
-163
-105
-123
-119
-158
-293
-252
-125
48
88
61
72
-76
-137
-21
46
105
185
269
209
19
244
355
217
363
393
482
346
202
353
386
488
368
215
203
185
99
58
84
-57
-136
-67
-27
-191
-279
-162
-193
-200
-148
-147
-224
-290
-240
-259
-53
-161
-318
-150
-154
-78
-133
-243
-183
-230
-178
-89
-152
-102
-119
-136
-129
-225
-325
-139
-39
-218
-78
-40
-134
-73
-126
-219
-162
-186
-280
-73
-134
-233
-86
-215
-287
-212
-158
-210
-199
-136
-268
-253
-95
-118
-118
-97
-243
-232
-132
-179
-275
-239
-124
-153
-212
-258
-182
-204
-252
-101
-1
-66
-142
-25
-28
-202
-57
146
194
296
130
-16
143
119
-87
-11
129
-35
-152
-145
-215
-269
-141
-86
-266
-362
-338
-311
-111
-132
-350
-189
-58
149
778
1863
2924
3066
2534
1487
283
-28
189
114
-23
-52
-74
-116
-279
-280
-141
-186
-123
-109
-186
-324
-399
-88
16
-152
-174
-42
-139
-322
-149
53
-55
-98
106
54
-234
-157
116
124
8
-70
7
118
207
262
46
129
558
501
415
583
444
388
445
350
358
498
378
218
297
156
102
195
78
-2
-78
-154
-53
-215
-218
-60
-288
-239
-254
-319
41
-9
-224
-94
-198
-414
-227
-134
-162
-71
-125
-136
-156
-230
-157
-97
-187
-210
-120
-148
-120
-42
-135
-144
-88
-110
-114
-253
-180
-60
-257
-106
-98
-317
-131
-83
-263
-214
-86
-315
-390
-221
-208
-81
-84
-199
-96
-197
-381
-146
-42
-303
-183
-14
-400
-312
-33
-198
-103
-69
-194
-183
-164
-168
-186
-251
-239
-128
-26
17
-15
-118
5
155
7
144
198
18
322
180
-167
98
177
25
15
-84
-309
-330
-92
59
-101
-46
-114
-353
-263
-200
-195
-152
-85
-102
-127
356
1371
2563
3234
3020
2201
819
35
232
212
46
4
-115
-166
-103
-91
-157
-229
-135
-62
-236
-194
-76
-143
-158
-129
-161
-253
-135
-58
-60
20
-110
-138
-33
-31
-187
-55
99
16
147
124
17
56
78
62
269
404
316
281
350
414
352
337
344
196
262
561
580
433
217
185
216
9
8
24
24
7
-247
-294
-279
-259
-178
-196
-161
-181
-213
-126
-228
-250
-193
-191
-153
-240
-119
0
-201
-265
-123
-215
-240
-83
-47
-147
-240
-277
-136
-7
-36
-132
-218
-115
-173
-180
-93
-151
-248
-309
-238
-163
-165
-132
-108
-211
-212
-194
-264
-209
-102
-329
-256
0
-254
-344
-249
-123
-124
-126
-154
-323
-228
-102
-157
-263
-222
-217
-221
-99
-121
-104
-98
-250
-174
9
-79
-56
94
-27
-55
112
180
44
17
52
68
148
41
64
65
-204
-318
-222
-235
-274
-73
-131
-526
-349
-66
-262
-294
-211
-208
-162
102
849
1971
2926
3135
2453
1084
123
35
-23
-31
-33
-18
-44
-309
-145
-60
-276
-146
-83
-305
-220
-67
-202
-231
-181
-177
-198
-102
-74
-138
-85
-145
-111
-73
-296
-130
109
64
89
24
94
125
114
180
4
152
439
222
183
447
393
346
392
351
298
257
476
410
164
246
238
157
170
192
23
-253
-185
-57
-159
-184
-124
-153
-217
-96
-81
-319
-302
-178
-195
-81
-117
-191
-122
-238
-242
-94
-119
-239
-204
-175
-274
-98
50
-88
-191
-147
-88
-113
-278
-353
-123
-8
-98
-149
-157
-116
-52
-141
-219
-68
-99
-248
-248
-209
-214
-257
-127
-151
-242
-143
-192
-165
-136
-191
-103
-144
-429
-324
-55
-140
-218
-193
-134
-165
-170
-152
-167
-114
-202
-149
-38
-7
-129
-123
174
74
32
214
119
-23
81
33
-2
131
56
-151
-81
-182
-378
-1
-61
-419
-282
-146
-186
-248
-310
-248
-165
-109
-135
-98
505
1450
2520
3177
2661
1551
510
-73
-57
96
123
84
-16
-254
-262
-229
-383
-197
-59
-209
-203
-173
-243
-204
-129
-212
-164
58
-91
-358
-267
-152
-63
83
-49
-117
-46
-151
-48
90
-3
-97
20
60
-37
108
200
309
464
289
262
444
356
324
424
388
282
398
427
136
69
254
82
-139
116
108
-221
-76
-50
-544
-283
26
-232
-204
-132
-93
-232
-232
-111
-382
-305
-207
-314
-161
-168
-159
-203
-211
-140
-242
-96
-79
-322
-377
-175
-86
-299
-180
-48
-127
-172
-193
-138
-240
-246
-115
-245
-250
-162
-408
-332
-34
-235
-331
-172
-179
-202
-249
-330
-321
-147
-81
-339
-262
-73
-213
-276
-179
-124
-230
-401
-342
-115
-219
-309
-282
-240
-50
-155
-322
-142
-256
-474
-162
147
56
-121
-28
-21
-46
99
108
-42
66
182
-64
-69
43
-2
-187
-268
-67
-72
-280
-185
-133
-305
-261
-253
-344
-283
-267
-373
-229
-253
-250
463
1441
2587
3253
2844
1832
593
-52
131
176
-46
-132
-171
-213
-216
-184
-169
-198
-259
-243
-255
-244
-266
-323
-235
-229
-177
-152
-137
-86
-99
-172
-218
-276
-216
19
-109
-97
129
52
24
-21
70
191
158
205
225
211
135
327
462
314
426
463
359
420
370
278
426
418
104
45
140
156
105
-16
-36
-31
-153
-315
-289
-145
-177
-396
-265
46
-96
-255
-172
-166
-260
-209
-199
-259
-185
-77
-44
-207
-143
-87
-226
-83
-126
-306
-120
-78
-286
-170
2
-220
-325
-117
-75
-124
-155
-171
-76
-194
-307
-86
-186
-235
27
-156
-175
-36
-231
-327
-234
-121
-189
-199
-306
-206
99
-102
-293
-224
-209
-304
-63
109
-417
-253
129
-201
-110
-153
-253
-91
-168
-183
-127
-96
-42
-83
-106
139
30
-122
210
67
-6
346
310
78
-31
91
177
64
-56
-109
-13
54
-90
-214
-238
-309
-235
-209
-257
-166
-301
-361
-116
-42
-206
-44
860
2129
3118
3325
2592
1287
238
174
350
67
30
28
-123
-105
-167
-158
-243
-195
9
-114
-331
-312
-91
-142
-260
-191
-107
-39
-48
-115
-173
-216
-187
1
-41
-162
58
-42
-98
204
133
-37
-35
112
248
202
338
310
267
376
92
328
600
403
469
319
300
468
328
263
361
221
59
103
-11
-36
34
-82
-159
-134
-129
-300
-349
-147
-117
-153
-195
-280
-168
-164
-215
-164
-245
-141
-52
-201
-256
-271
-234
-57
-4
-139
-183
-261
-363
-256
-48
24
-222
-271
-50
-224
-290
-96
-63
-105
-265
-188
-86
-217
-149
-148
-357
-246
13
-200
-377
-170
-252
-262
4
-154
-299
-65
-92
-261
-269
-216
-117
-130
-217
-279
-226
-36
60
-217
-397
-76
-19
-62
-154
-300
11
16
-145
-21
107
211
71
-6
230
196
-7
83
54
-22
212
209
70
15
-101
-146
-287
-193
-167
-349
-112
-173
-330
-76
-313
-390
51
-52
-49
521
1463
2762
3216
2613
1631
503
-61
23
174
26
-214
-65
-44
-447
-437
-102
-201
-287
16
-90
-268
-105
-292
-330
-91
-124
-181
-55
-92
-233
-77
-109
-266
-266
-180
-25
49
-26
-112
24
115
-34
20
195
165
217
238
195
277
324
258
255
362
327
389
325
-10
195
387
105
51
195
98
-104
-33
-89
-270
-123
-118
-175
-64
-69
-132
-295
-232
-95
-232
-311
-326
-243
-133
-133
-209
-217
31
-42
-394
-161
-76
-264
-59
18
-199
-331
-126
29
-74
-119
-114
-68
-49
-133
-196
-218
-194
-217
-167
-147
-246
-160
-209
-201
-57
-184
-195
-55
-237
-210
11
-191
-238
-174
-201
-203
-190
-67
-117
-267
-229
-211
-127
-43
-344
-467
-150
25
-143
-197
7
-116
-142
-17
-100
-22
33
4
-62
-12
146
86
69
162
66
-28
108
68
-183
-255
-184
-101
-232
-380
-345
-166
-122
-226
-165
-177
-366
-366
-84
-6
58
935
2112
2921
3041
2312
956
-70
-36
81
39
-12
-91
-144
-386
-297
-70
-157
-276
-193
-350
-427
-130
-131
-134
-3
-9
-165
-147
-212
-234
-119
-190
-1
-93
-183
53
-285
-241
345
166
-104
50
61
81
203
227
254
221
204
326
315
296
409
484
323
167
314
376
250
126
79
151
50
-5
45
-118
-168
-82
-67
-169
-117
-167
-298
-128
-239
-349
-176
-202
-238
-250
-314
-215
-190
-197
-135
-178
-242
-278
-191
-74
-103
-217
-178
-156
-175
-41
-243
-317
-56
-73
-196
-288
-226
-289
-367
-29
-47
-253
-107
-179
-271
-143
-137
-177
-202
-267
-362
-359
-226
-239
-206
-123
-125
-172
-182
-166
-174
-199
-239
-265
-274
-217
-171
-151
-180
-181
-257
-384
-203
-97
-151
-79
-319
-240
104
108
128
-25
-14
178
119
32
60
57
34
-77
75
189
6
-33
-162
-189
-205
-432
-270
-178
-279
-313
-333
-151
-308
-270
-127
-210
-57
336
1351
2702
3242
2826
1775
620
149
105
95
76
-39
-278
-250
-229
-206
-41
-248
-328
-125
-175
-336
-266
-130
-230
-262
-222
-216
-104
-125
-145
-122
-53
-51
-180
-90
-150
-159
19
47
25
-35
-17
188
279
159
180
235
357
422
371
301
220
381
411
302
509
402
230
324
280
251
203
112
7
-25
-130
-112
-108
-277
-71
-137
-307
-147
-317
-243
29
16
-173
-241
-192
-253
-132
-140
-264
-244
-157
-160
-295
-262
-90
-63
-294
-278
74
-48
-318
-186
-160
-69
39
-118
-167
-106
-105
-224
-299
-162
-168
-243
-74
-183
-437
-144
-19
-123
-139
-224
-153
-219
-223
-137
-117
-132
-282
-171
-132
-407
-171
104
-133
-208
-178
-331
-185
22
-173
-240
-75
-112
-131
-133
-290
-105
151
-28
-235
1
226
121
80
118
104
205
26
-16
326
186
7
47
84
-28
-232
-221
-223
-295
-205
-82
-49
-171
-232
-100
-189
-286
-252
-143
-42
355
1289
2392
3283
3171
2122
854
102
83
205
20
-5
52
-282
-178
-3
-190
-201
-121
-128
-194
-61
-82
-206
-136
-265
-159
-80
-379
-159
110
-105
-98
-6
-60
-72
-76
-74
-29
34
75
97
167
263
205
158
277
274
190
390
513
288
233
481
445
319
400
334
289
291
294
218
153
167
65
13
-71
-49
-64
-67
65
-97
-245
-169
-162
-160
-124
-150
-222
-198
-160
-160
-67
-157
-148
-39
-134
-39
-30
-90
-26
-154
-195
-214
-111
86
-65
-148
-50
-150
-153
-102
-62
-32
-109
-41
-86
-117
-86
-95
-131
-235
-134
-77
-178
-31
52
-249
-365
-209
-108
-34
16
-129
-205
71
70
-338
-324
-120
-157
-29
21
-166
-247
-148
-51
-200
-290
-189
-57
46
-43
6
137
157
133
-88
-77
245
222
128
195
129
16
104
201
88
-19
-40
-173
-144
-57
-244
-218
-147
-92
-91
-152
-190
-233
-196
-116
137
414
945
1941
2955
3236
2248
666
-4
132
217
153
-50
-117
-192
-204
-162
-123
-108
-176
15
-147
-427
-30
13
-262
-91
15
-129
-169
-27
43
-86
-220
3
143
-10
-24
42
93
-31
-55
93
132
225
243
157
245
359
354
242
197
371
331
244
371
390
376
300
288
411
222
154
316
89
-107
0
12
-67
-23
-50
-210
-221
-180
-122
-162
-288
-261
-294
-136
1
-149
-201
-125
-46
-188
-132
47
-160
-307
-151
-119
-92
-114
-252
-58
-14
-228
-139
-95
-210
-113
-10
-100
-135
-230
-243
85
-9
-256
-159
-50
-153
-235
-180
-231
-156
-85
-154
-208
-137
-49
-222
-421
-231
-100
-194
-175
-132
-148
-247
-103
-98
-219
-96
-213
-167
-92
-262
-48
-32
-277
-132
-18
-102
-189
-26
78
-130
70
317
161
-10
25
173
119
160
-28
-167
184
120
-139
-175
-280
-373
-271
-75
-46
-171
-253
-328
-251
-79
-127
-228
-51
393
1025
2171
3093
2857
2008
739
-123
28
137
-84
-93
-43
-114
-71
-197
-227
-43
-259
-433
-204
-214
-247
-178
-217
-293
-214
-21
-221
-263
-129
-144
-29
23
-107
-133
50
42
-26
-58
-39
1
-69
49
133
95
209
361
339
368
426
282
347
397
219
419
527
364
305
334
167
40
181
136
14
-91
-94
56
-97
-257
-140
-146
-228
-149
-71
-138
-285
-269
-179
-199
-77
-163
-261
-107
-212
-218
-171
-236
-184
-134
-121
-202
-220
-67
-81
-211
-173
-216
-203
-107
-82
-173
-312
-206
-102
-168
-178
-211
-285
-154
-18
-117
-243
-196
-251
-390
-275
-203
-196
-305
-509
-289
-192
-33
-64
-313
-107
-239
-307
-103
-183
-283
-243
-243
-197
-91
-181
-375
-316
-199
-201
-182
-118
-84
-105
-207
-153
5
-8
51
133
140
122
7
-68
-58
-26
119
113
10
-47
-235
-144
-105
-284
-173
-173
-343
-358
-160
-44
-246
-318
-248
-316
-302
-75
572
1436
2424
3296
3058
1750
417
127
278
-11
-6
-1
-125
-51
-212
-495
-418
-107
-189
-229
-173
-207
-234
-297
-295
-220
6
-157
-265
-80
-217
-319
-204
-93
-12
-82
-120
-63
-159
16
165
70
18
38
298
192
164
361
199
106
137
383
492
387
375
317
461
546
278
223
301
179
119
113
-35
-107
-96
-152
-45
-68
-259
-209
-238
-250
-95
-134
-249
-158
-206
-338
-199
-133
-185
-128
-172
-340
-264
37
-21
-275
-123
-161
-341
-123
11
-183
-172
-90
-149
-233
-360
-148
-37
-172
-114
-154
-186
-190
-187
-70
-190
-273
-161
-233
-244
-203
-221
-150
-202
-335
-264
-108
-122
-44
-82
-373
-317
-143
-146
-122
-131
-341
-371
-120
-150
-286
-204
-174
-191
-200
-123
-135
-286
-117
107
-162
-396
10
84
-31
114
141
239
96
-122
-21
131
137
63
-9
-73
-87
-180
-301
-342
-359
-269
-134
-168
-256
-140
-137
-232
-124
-194
-345
204
1271
2311
3068
3001
2122
614
-167
133
187
38
48
-45
-246
-223
-221
-260
-228
-236
-181
-22
-156
-331
-217
-185
-123
-204
-223
12
-141
-275
-64
-94
-169
-68
-53
-59
33
104
19
-37
45
27
47
209
222
197
233
248
184
215
493
383
48
473
666
279
361
214
141
402
154
-46
104
25
-119
58
13
-200
-143
-62
-125
-128
-158
-204
-217
-327
-206
-25
-142
-222
-155
-75
-188
-266
-122
-105
41
-59
-269
-105
-107
-137
-64
-84
-157
-98
-10
-192
-189
-32
-135
-203
-83
-25
-167
-216
-32
-27
-311
-228
4
-227
-324
-23
-164
-220
22
-378
-427
-32
-111
-148
-118
-118
-57
-125
-129
-153
-278
-182
-186
-250
-82
20
-83
-285
-185
-41
-183
-315
-113
134
85
111
56
8
154
103
-74
111
239
-76
-3
183
23
-46
-51
-197
-226
-178
-323
-190
47
-250
-364
-84
-107
-236
-234
-124
-56
152
1010
2128
2865
2947
2150
935
127
-154
8
134
-149
-259
-117
16
79
-187
-362
-317
-282
-195
-211
-91
-22
-162
-147
-213
-214
-89
-122
-161
-297
-151
80
-138
-247
-132
-53
-85
-87
133
48
-93
195
217
211
352
187
45
254
265
187
422
376
420
526
328
258
238
265
220
145
182
65
-80
-65
5
-98
-242
-195
-54
-180
-235
-234
-389
-119
-68
-268
-172
-180
-164
-142
-299
-262
-100
-145
-166
-174
-284
-303
-178
-212
-225
-17
-106
-172
33
-105
-261
-93
-180
-173
-15
-233
-229
-71
-184
-143
-212
-328
-262
-262
-116
-46
-161
-179
-223
-231
-76
-36
-196
-331
-293
-350
-280
26
-154
-387
-189
-52
-154
-200
-119
-172
-193
-218
-228
-85
-55
-276
-301
-64
-99
-91
-53
-8
110
-59
-123
100
162
159
132
-2
54
140
93
117
96
-106
-294
-327
-310
-294
-192
-182
-221
-309
-246
-164
-241
-179
-132
-95
-122
181
1172
2299
3112
3158
2086
658
92
-62
-163
58
129
-70
-81
-81
-177
-166
-200
-96
-152
-293
-265
-327
-17
-29
-282
-110
-211
-231
-147
-172
9
-26
-331
-182
68
-23
12
4
-21
20
-83
78
134
68
220
161
309
450
302
378
411
360
423
518
414
341
531
411
324
336
135
79
116
89
-118
-78
32
-62
-99
-213
-194
-83
-144
-201
-108
-53
-160
-225
-211
-197
-272
-283
-130
-188
-156
58
-121
-273
-90
-253
-355
-120
-65
-118
-110
-62
-66
-241
-239
-119
-185
-21
-130
-299
-74
-78
-141
-141
-296
-259
-145
-246
-168
-78
-207
-226
-102
-175
-282
-94
-151
-410
-126
-35
-262
-153
-81
-165
-240
-248
-208
-165
-150
-133
-178
-242
-299
-86
-13
-265
-93
-67
-206
-41
-164
-415
-60
208
42
5
93
201
192
35
62
199
166
8
-34
35
-41
-126
-125
-220
-267
-262
-339
-195
-233
-234
-78
-306
-322
-154
-209
-161
230
1024
2280
3278
3155
2280
1187
234
-117
-7
118
149
107
-29
-113
-196
-352
-353
-229
-222
-324
-207
-137
-212
-180
-236
-227
-156
-221
-196
-34
-164
-247
-122
-89
-21
-147
-62
103
-120
-66
26
-49
43
234
239
130
268
372
298
306
468
349
312
404
229
438
552
461
425
315
184
66
132
19
-168
-86
-11
-87
-76
-19
-326
-336
58
-54
-275
-269
-182
-168
-239
-140
-112
-228
-89
-217
-447
-59
-55
-369
-165
-117
-210
-123
-116
-168
-131
-70
-200
-232
-210
-132
-113
-196
-91
-120
-168
-222
-310
-262
-145
-43
-80
-264
-273
-107
-214
-213
-70
-141
-203
-274
-217
-134
-80
-64
-126
-195
-224
-14
-68
-229
-126
-200
-259
-80
-91
-234
-177
-252
-187
67
-44
-110
4
31
-37
21
127
79
203
260
92
110
24
-94
63
90
2
83
40
-122
-171
-262
-226
-180
-218
-124
-143
-140
-152
-192
-94
-132
-148
32
610
1614
2750
3131
2606
1713
422
-141
50
153
123
-177
-237
59
-37
-345
-221
-138
-258
-36
21
-87
0
-215
-226
-3
-167
-241
-45
-55
-149
-220
-137
256
55
-232
-60
-136
-34
48
59
224
96
170
219
166
360
366
265
172
214
467
429
380
326
208
334
451
491
284
98
106
46
78
56
-118
-123
-44
-59
-60
-106
-189
-132
-173
-207
-167
-237
-87
-4
-142
-126
-107
-360
-167
36
-230
-129
-86
-132
-34
-29
-21
-24
-312
-440
-47
160
-2
-19
36
-137
-105
-149
-340
-23
21
-371
-280
-23
-127
-220
-150
-46
-154
-349
-270
-349
-265
10
-211
-251
-50
-107
-118
-93
-164
-202
-318
-346
-135
-172
-251
-132
-174
-313
-190
-110
-221
-73
-262
-442
-7
8
-185
-7
38
-68
9
185
191
90
-14
-13
10
75
95
-50
-58
-66
-119
-228
-322
-341
-259
-296
-282
-176
-260
-181
-238
-245
-173
-297
-84
593
1685
2753
2900
2422
1520
208
-77
110
-52
-72
-144
-146
-275
-193
-46
-366
-371
-260
-281
-215
-178
-157
-183
-316
-255
-194
-302
-83
-163
-318
-73
-120
-246
-158
-120
-173
-161
-133
-69
-62
-6
62
-27
116
71
26
356
397
154
86
343
460
231
224
307
312
300
198
218
69
42
102
-125
-140
-31
-75
-162
-280
-308
-320
-328
-264
-342
-291
-123
-268
-488
-311
-104
-245
-334
-279
-323
-275
-260
-290
-138
-197
-225
-207
-291
-260
-296
-233
-122
-90
-207
-517
-360
-84
-170
-143
-161
-220
-221
-419
-249
-44
-436
-377
-77
-394
-386
-160
-281
-228
-120
-194
-353
-349
-105
-166
-331
-305
-256
-227
-312
-196
-230
-319
-274
-349
-349
-305
-209
-230
-296
-159
-169
-329
-249
-220
-215
-176
-139
-99
-111
-85
-141
-140
-154
0
320
193
-172
24
143
-99
-76
-23
31
-93
-217
-152
-297
-381
-287
-318
-335
-351
-329
-211
-239
-245
-268
-274
-53
443
1455
2799
3450
2714
1365
549
166
-10
140
70
-191
-235
-65
-134
-345
-175
-107
-316
-279
-98
-263
-406
-201
-105
-100
-127
-204
-254
-269
-103
-4
-138
-276
-142
-64
-199
-28
157
100
24
25
72
94
75
-70
136
453
149
150
531
424
407
503
467
351
308
351
155
304
373
147
178
189
79
-75
-99
-188
-212
-181
-201
-80
-214
-282
-105
-146
-363
-308
-96
-162
-257
-337
-373
-175
-41
-275
-276
-121
-346
-277
-209
-260
-92
-68
-108
-149
-257
-209
-95
-138
-207
-232
-133
-242
-365
-110
-3
-221
-388
-239
-168
-171
-205
-307
-176
-134
-263
-267
-227
-248
-198
-204
-202
-45
-74
-275
-306
-260
-219
-206
-112
-188
-445
-317
-161
-27
40
-212
-255
-202
-227
-61
-77
-203
-119
-154
-190
-26
65
-89
-92
163
37
-1
167
203
114
-63
-9
-21
67
122
-70
-23
-58
-211
-163
-220
-163
-225
-326
-228
-208
-148
-254
-279
-158
-1
-44
341
1634
2728
3201
2891
1843
659
124
184
190
-4
-137
-72
-184
-159
-231
-310
-70
-188
-246
-168
-122
-142
-164
-113
-191
-190
-156
-102
-212
-170
37
-77
-61
-86
-127
28
54
113
-33
-190
182
289
53
209
203
279
373
132
309
547
513
329
330
598
433
297
509
392
242
245
247
175
-49
77
183
-115
-155
0
-192
-218
105
-126
-363
-91
15
-187
-234
-54
-76
-185
-128
-208
-197
49
-85
-249
-82
-155
-153
41
-135
-221
-57
-113
-70
-8
-88
-123
-118
-104
-232
-164
-25
-168
-227
-51
-25
-115
-173
-226
-30
-61
-190
-107
-50
-181
-350
-125
-96
-74
-1
-205
-194
-139
-172
-42
-79
-204
-196
-7
24
-268
-253
-5
0
-258
-199
-82
-119
-57
-135
-123
34
135
40
-75
43
194
190
172
256
-40
-109
204
150
64
77
17
-124
-194
-229
-196
-162
-203
-159
-212
-207
-104
-200
-206
-143
-257
-137
421
1302
2343
3132
2776
1606
628
42
-67
56
104
4
-23
5
-128
-284
-305
-211
-196
-267
-158
-44
-169
-111
-35
-145
-129
-140
-220
-72
-8
-155
-34
65
-130
-85
-9
-84
-18
-184
-108
140
155
287
108
-59
296
423
280
270
343
406
292
277
390
235
101
357
435
227
233
228
56
26
2
9
170
-57
-197
-200
-322
-84
-29
-128
-43
-97
-225
-241
-257
-342
-165
-73
-250
-126
-99
-284
-223
-127
-111
-54
-136
-204
-52
81
12
-161
-169
-113
-59
-109
-146
-27
-117
-212
-120
-128
-147
-195
-359
-276
58
109
-227
-242
-111
-187
-158
-136
-199
-180
-75
-135
-201
-129
-316
-318
-232
-246
-49
-102
-160
-184
-275
-149
0
-174
-334
-149
42
25
-291
-135
172
-153
-147
59
3
-25
-5
41
202
204
146
176
40
-125
23
218
8
50
154
-192
-376
-191
-205
-404
-164
0
-196
-222
-160
-195
-303
-252
-74
284
1222
2356
3025
3043
2097
753
-38
-195
187
233
35
-27
-255
-183
9
-166
-312
-154
-132
-328
-230
-67
-113
-40
-163
-285
-81
-89
-88
-69
-216
3
-14
-140
54
-22
-77
-50
-85
113
194
185
165
45
135
137
283
383
286
409
422
295
379
510
460
345
240
370
424
308
267
187
135
71
27
-67
-199
-112
-60
-109
-52
-142
-353
-175
-68
-352
-244
-89
-117
-91
-241
-149
-84
-282
-101
-35
-202
-149
-174
-161
-159
-175
-103
-190
-66
31
-80
48
-157
-339
-70
25
-73
-192
-96
-116
-167
11
-165
-396
-208
-103
-133
-102
-153
-281
-139
21
-217
-260
-134
-144
-147
-197
-251
-233
-211
-158
-54
-117
-284
-87
-97
-374
-182
-100
-203
-172
-231
-194
-196
-116
3
-108
-41
24
2
-55
-194
76
286
142
145
181
127
14
17
83
124
152
88
-30
-86
-220
-174
-118
-299
-171
-83
-225
-175
-184
-190
-87
-260
-290
-246
246
1591
2788
3356
3076
2062
810
268
215
-73
84
163
-174
-143
-149
-304
-156
-160
-187
-29
-15
-94
-386
-321
-43
-106
-101
-108
-93
-223
-184
63
-200
-229
5
-169
-187
-24
-40
72
77
108
267
103
114
250
138
239
456
307
196
476
395
272
556
450
281
412
378
342
239
119
205
178
169
46
-105
-36
-117
-181
-177
-261
-251
-88
13
-163
-226
-112
-175
-299
-176
-120
-393
-172
71
-208
-162
-110
-168
-205
-214
-66
-10
-3
-158
-167
30
-32
-158
-113
-114
-205
-94
-56
-152
-239
-223
45
-19
-268
-81
-44
-264
-142
-128
-147
-114
-216
-121
-127
-194
-266
-148
56
-147
-359
-214
-93
-117
-41
19
-67
-333
-362
60
6
-239
-41
-67
-191
-173
-90
1
-134
-172
-77
-135
61
117
-29
-50
-114
32
190
212
241
206
84
170
109
-26
112
139
118
-31
-143
-33
-53
-113
-108
-142
-100
-257
-399
-171
-94
-79
-7
-72
-184
-225
462
1435
2320
3135
2973
2018
802
121
179
196
70
79
-79
-304
-82
-183
-184
196
-82
-298
-96
-4
-33
-190
-339
-109
26
-78
-50
-123
-76
-66
-197
-18
-109
-158
107
124
75
164
194
39
56
158
149
240
343
248
311
393
331
435
297
205
321
316
548
519
195
346
374
81
192
214
-61
-83
72
101
-2
-56
-8
-123
-359
-302
20
41
-68
-118
-216
-119
-85
-138
-82
-177
-318
-156
15
-37
-81
-3
14
-85
-212
-189
-6
-61
-272
-281
-108
-56
-85
-39
-124
-89
-111
-157
-13
-100
-262
-152
-11
-72
-139
-145
-241
-262
-115
-100
-73
-154
-209
-52
-173
-218
-142
-207
-43
-31
-85
-161
-340
-86
-123
-216
-263
-336
63
-54
-375
-44
-75
-377
-234
-207
-79
122
108
-93
-192
86
45
73
105
14
220
62
31
178
54
61
-52
-136
-25
-64
-198
-237
-120
-134
-210
-137
-160
-347
-301
-143
-160
-129
-56
211
998
2175
3060
2965
2001
755
76
19
85
121
-115
-190
-5
-123
-257
-218
-162
-165
-159
-152
-240
-141
-184
-228
-107
-236
-301
-140
-41
-82
-131
-111
-109
-176
-38
60
-144
-246
-132
43
114
166
143
-81
40
308
210
268
382
274
158
230
368
288
280
424
355
208
282
107
-46
176
164
12
-11
-206
-401
-86
-3
-343
-301
-286
-349
-254
-300
-195
-70
-214
-192
-279
-381
-104
-114
-189
-196
-290
-163
-272
-385
-233
-151
-191
-158
-306
-275
22
-89
-155
-109
-167
-243
-145
-200
-272
-115
-259
-370
-211
-118
-122
-236
-328
-260
-288
-258
-134
-192
-262
-233
-171
-209
-339
-335
-220
-83
-121
-338
-428
-290
-56
-91
-184
-159
-202
-200
-213
-252
-239
-197
-211
-289
-213
-147
-252
-190
-71
-271
-173
80
25
-20
-54
-142
-59
110
165
73
51
219
131
-70
-118
41
-44
-194
34
19
-107
-154
-330
-342
-172
-149
-316
-381
-300
-167
-155
-307
-274
-159
265
1288
2495
3137
2969
2044
663
-34
13
67
160
66
-256
-249
-176
-269
-404
-247
-70
-327
-401
-226
-315
-395
-221
-48
-59
-195
-198
-186
-169
-172
-275
-217
-66
-31
-149
-71
-13
-125
4
5
-63
11
77
142
67
158
286
270
358
361
282
355
390
306
514
488
48
71
169
148
217
42
-29
9
-92
-177
-254
-154
-160
-218
-137
-243
-235
-214
-351
-388
-359
-183
-48
-165
-219
-167
-253
-269
-339
-240
-16
-222
-240
-119
-115
-81
-185
-350
-272
-232
-223
-75
-165
-109
-184
-311
-58
-159
-301
-164
-167
-237
-196
-218
-263
-195
-200
-232
-239
-286
-185
-364
-368
-108
-378
-207
-14
-262
-299
-298
-214
-203
-156
-157
-380
-334
-225
-214
-119
-159
-254
-204
-250
-127
-27
-318
-294
-136
-307
-280
-150
-116
-256
-509
-141
66
-30
24
-29
156
134
-92
104
188
104
177
107
96
79
35
91
-127
-63
2
-204
-145
-133
-183
-282
-192
-72
-214
-135
26
-238
-338
-123
-160
73
866
1868
3110
3515
2566
1318
462
175
119
110
57
-4
-148
-154
-117
-187
-72
-75
-115
-147
-260
-172
-157
-258
-79
-75
-242
-62
-85
-172
-28
-139
-103
85
68
-92
-168
188
219
-128
54
214
19
66
269
234
205
308
294
316
460
466
391
540
495
351
323
332
448
422
342
261
180
114
108
-61
-192
-81
-133
-115
92
-45
-244
-177
-200
-16
-42
-227
-88
-174
-145
-165
-453
-169
71
-189
-246
-217
-149
-94
-123
-20
-123
-216
8
65
-119
-110
-26
-94
-187
-206
-133
-189
-151
-19
-191
-257
-91
-122
-209
-181
-236
-194
-119
-154
-20
-86
-264
-317
-207
-30
-194
-221
-3
-73
-326
-270
-194
-184
4
-54
-293
-422
-172
-94
-292
-68
-81
-139
-53
-183
-225
-224
-115
-79
-190
-141
-59
-79
-144
-17
62
-35
-21
-49
114
177
-31
174
164
-41
260
309
132
125
76
51
-125
-109
16
-186
-214
-138
-147
-283
-349
-183
-105
-129
-207
-208
-140
218
1164
2277
3096
3059
2074
838
119
37
160
155
-60
-125
-72
-126
-117
-173
-195
-96
-258
-171
-221
-503
-150
-107
-256
-5
17
-100
-202
-95
17
-15
71
-2
-134
-30
27
-124
-117
115
69
-201
25
411
283
171
342
274
106
300
384
254
387
500
433
335
344
248
80
189
191
102
208
22
-129
92
-27
-201
-58
48
-106
-140
-91
-227
-262
-268
-70
-123
-456
-170
-87
-322
-190
-89
-291
-247
-40
-141
-102
-41
-73
-88
-106
-86
-107
-75
-18
-149
-200
-47
11
-168
-160
-51
-325
-199
-48
-338
-213
-30
-118
-196
-69
138
-89
-307
-241
-160
-47
-128
-267
-96
-30
-263
-345
-189
-41
-70
-140
-204
-147
-101
-311
-383
-162
1
-73
-117
-53
-97
-229
-224
-64
-108
-287
-244
3
92
-98
-196
-84
15
118
212
165
148
81
-18
150
261
117
-14
-101
-128
-173
-62
30
-212
-176
-156
-266
-240
-266
-228
-219
-151
-73
-212
-232
106
816
1899
2854
3092
2464
1197
121
-201
-1
238
14
-197
-175
-145
-61
-210
-255
-177
-240
-144
32
-77
-273
-182
-177
-276
-208
-153
-245
-220
-63
-81
-124
-65
-107
-24
-68
-350
-255
72
262
171
41
33
143
177
222
347
178
134
385
355
212
306
311
193
345
423
121
57
317
267
-47
43
161
-87
-14
-23
-262
-300
-247
-54
-122
-350
-384
-211
-76
-265
-339
-244
-233
-268
-225
-97
-138
-161
-186
-249
-131
-147
-207
-205
-152
-143
-228
-9
8
-256
-315
-188
-99
-161
-157
-344
-367
-81
-143
-92
-120
-229
-165
-282
-166
-158
-344
-236
-11
-91
-332
-288
-198
-146
-284
-357
-134
-194
-173
-107
-271
-247
-68
-77
-301
-250
-125
-126
-62
-101
-165
-183
-117
-66
-372
-389
-90
-192
-157
-87
-149
-38
-39
-77
123
141
32
67
185
198
109
91
99
162
131
19
34
20
-112
-93
-65
-110
-132
-214
-206
-133
-223
-321
-312
-206
-217
-83
90
-189
169
1409
2582
3312
3077
1962
622
19
222
217
-56
-138
-31
-113
-170
-115
-193
-178
-138
-145
-240
-300
-186
-91
34
13
-153
-131
-123
-229
1
113
12
102
8
-12
93
-49
103
199
126
283
99
19
288
341
311
293
356
407
386
496
536
490
461
442
577
663
521
459
333
271
345
165
98
53
-104
68
31
-171
-42
-20
-79
-85
-13
-151
-243
-13
-14
-101
-100
-13
-247
-330
45
-48
-216
-172
-22
-70
-447
-178
146
-91
-76
0
-97
-28
-58
-83
19
-4
-173
-302
-142
21
-28
-147
-125
-60
-141
-174
-75
-213
-300
-140
-252
-192
22
-255
-189
34
-296
-214
57
-106
-174
51
-55
-322
-121
-67
-286
-264
-54
-35
-301
-279
-100
-201
-48
-85
-300
-93
-110
-170
-129
7
160
14
-46
24
-36
-46
110
201
235
221
104
29
16
26
150
113
-80
-147
-160
-175
-282
-238
-147
-261
-266
-282
-179
12
-142
-211
-146
-153
37
805
1883
2815
3407
2758
1277
381
97
83
89
137
51
-256
-254
-79
-82
-145
-292
-260
-39
-163
-333
-302
-89
-21
-117
-98
-209
-221
15
-46
-226
-152
38
76
-147
-150
134
131
-51
33
33
63
227
70
23
330
463
260
252
371
348
341
330
453
346
215
510
318
78
380
271
144
231
-68
-211
-150
-100
3
-83
-213
-155
-125
-303
-230
-166
-185
-122
-233
-194
-104
-202
-273
-168
-100
-205
-261
-118
33
-104
-148
-118
-275
-100
-82
-257
-88
-72
-112
-90
-133
-209
-213
-81
-55
-172
-181
-48
-155
-293
-127
-88
-89
-144
-421
-357
-102
-47
-98
-133
-175
-181
-171
-152
-71
-173
-165
27
-126
-285
-38
-55
-312
-136
-33
-253
-147
-67
-290
-156
-81
-137
-59
-133
-118
-62
54
35
-61
57
105
54
201
189
47
156
140
121
53
-32
89
-41
-237
-145
-99
-80
-70
-184
-179
-223
-272
-147
-103
-46
-58
-11
181
740
1911
2950
3123
2339
1139
251
-17
28
156
219
124
-32
-144
-212
-95
-28
-160
-124
-106
-221
-239
-205
-37
12
-102
-36
-63
-112
-104
-100
-113
-58
8
-89
13
25
-53
89
121
102
31
59
287
259
200
396
323
236
418
391
297
260
347
431
432
347
257
251
251
313
22
10
261
48
-4
63
-82
-245
-279
-166
-149
-147
-42
-133
-254
-205
-110
-212
-279
-205
-256
-45
-60
-415
-282
-50
-121
-230
-124
-42
-157
-109
-92
-218
-129
-80
-173
-224
-79
57
-211
-283
-128
-188
-163
-113
-214
-187
-155
-197
-252
-168
-100
-258
-168
-161
-350
-195
-97
-147
-65
-138
-145
-277
-413
-157
-165
-248
-180
-233
-222
-113
-122
-283
-260
-144
-117
-110
-305
-276
-218
-254
-29
-86
-213
-159
-1
46
-50
58
16
-29
92
117
75
-7
28
60
-59
44
188
-100
-205
-137
-399
-341
-23
-107
-302
-249
-199
-216
-216
-252
-344
-287
-54
215
980
2182
3034
2955
2067
834
40
-18
-100
-139
83
64
-235
-327
-193
-218
-269
-178
-127
-177
-324
-344
-276
-185
-48
-157
-237
-189
-219
-90
-53
-179
-116
-142
-89
-92
-264
-35
51
-57
73
113
2
151
286
187
181
182
279
463
391
264
376
375
378
312
237
354
405
305
139
91
86
-69
-64
127
-40
-220
-234
-234
-98
-134
-251
-168
-223
-265
-132
-169
-322
-327
-94
-136
-392
-288
-119
-242
-424
-240
-53
-206
-164
-107
-194
-173
-133
-98
-186
-214
-121
-237
-310
-120
-108
-214
-250
-231
-228
-207
-187
-231
-281
-298
-149
-221
-245
-66
-217
-294
-174
-102
-221
-346
-230
-199
-214
-231
-300
-348
-321
-189
-171
-271
-227
-130
-71
-124
-304
-76
-51
-498
-285
-45
-261
-164
-102
-275
-149
-61
-262
-65
250
129
110
154
83
70
-37
47
169
-184
-190
47
-90
