0
0
0
0
0
0
0
0
0
0
0
0
0
0
0
0
0
0
0
0
0
0
0
0
0
0
0
0
0
0
0
0
0
0
0
0
0
0
0
0
0
0
0
0
0
0
0
0
0
0
0
0
0
0
0
0
0
0
0
0
0
0
0
0
0
0
0
0
0
0
0
0
0
0
0
0
0
0
0
0
0
0
0
0
0
0
0
0
0
0
0
0
0
0
0
0
0
0
0
0
0
0
0
0
0
0
0
0
0
0
0
0
0
0
0
0
0
0
0
0
0
0
0
0
0
0
0
0
0
0
0
0
0
0
0
0
0
0
0
0
0
0
0
0
0
0
0
0
0
0
0
0
0
0
0
0
0
0
0
0
0
0
0
0
0
0
0
0
0
0
0
0
0
0
0
0
0
0
0
0
0
0
0
0
0
0
0
0
0
0
0
0
0
0
0
0
0
0
0
0
-306
-221
-132
-249
-79
-171
-401
-208
-51
-202
-230
-128
-236
-289
-105
8
-287
-372
9
-139
-325
16
53
-158
48
152
-199
-117
275
227
109
82
-2
19
134
145
-186
-96
210
-163
-287
4
-106
-504
-281
-13
-406
-373
-89
-228
-334
-117
-179
-466
-39
872
1727
2726
3426
2831
1318
301
69
-34
93
173
-113
-142
34
-123
-279
-117
-171
-431
-394
0
-95
-321
-39
-41
-200
-125
-143
-225
-67
2
-214
-196
131
-1
-292
-13
-11
-168
98
244
32
4
289
138
84
405
287
165
345
487
291
304
658
528
381
401
488
417
417
538
185
186
396
103
-18
155
69
-130
-93
-12
-231
-163
162
-162
-326
-7
-76
-279
-226
-139
-131
-279
-214
-79
-279
-141
-29
-297
-148
-49
-277
-261
-190
-188
-162
-117
-118
-269
-250
0
-80
-165
-79
-191
-196
-59
-95
-213
-103
-91
-272
-216
-15
-112
-274
-94
-192
-354
-126
-54
-190
-202
-38
-179
-353
-32
-72
-345
-194
-104
-211
-130
22
-215
-258
-128
-203
-190
-48
-26
-357
-317
-56
-121
-166
-74
-102
-230
-80
-74
-289
-163
-115
-285
-264
-77
151
-8
-66
220
27
-14
343
154
-97
223
262
-30
13
35
-27
-33
53
-73
-288
-350
-384
-261
-109
-27
-216
-245
-109
-275
-230
-133
-129
-39
397
1628
2638
2975
2623
1188
-47
-75
-26
-56
47
-55
-108
-113
-28
-209
-349
0
-17
-232
-140
-159
-291
-85
65
-114
-157
14
-26
-261
-100
7
-245
-130
103
24
-48
80
-2
-186
108
221
-20
145
290
133
89
219
358
207
286
517
256
196
474
404
263
440
384
120
352
424
-17
-118
168
161
-96
-1
-113
-352
-46
-34
-267
-213
-131
-193
-218
-121
-222
-373
-188
-87
-268
-139
-77
-249
-202
-97
-182
-276
-134
-96
-313
-258
-46
-116
-189
-126
-143
-184
-9
-8
-389
-256
63
-229
-323
-12
-54
-219
-78
-90
-342
-352
-120
-202
-213
68
-50
-326
-232
-12
-218
-381
-92
-168
-330
-146
-270
-377
-86
-57
-376
-340
-128
-217
-175
-11
-152
-312
-264
-253
-286
-305
-92
-104
-330
-217
-207
-261
-163
-155
-238
-341
-163
-46
-193
74
174
-89
-31
170
-11
-132
116
37
-7
229
-5
-256
-3
-18
-314
-290
-289
-377
-345
-209
-195
-494
-379
-49
-267
-310
-92
-207
-165
472
1394
2296
2912
2562
1153
-11
-183
-90
28
159
-109
-420
-239
-66
-288
-207
-57
-341
-364
-91
-217
-380
-133
-199
-344
-143
-143
-264
-209
-141
-169
-250
-130
-33
-166
-47
42
-45
-174
65
104
-139
165
188
-28
76
287
206
177
487
332
207
396
301
276
284
465
522
291
425
347
-51
89
187
-136
-73
34
-160
-216
-55
-73
-334
-256
-99
-336
-305
-77
-269
-352
-148
-269
-444
-163
-115
-315
-191
-146
-310
-327
-119
-98
-330
-202
-74
-333
-220
-25
-262
-329
-138
-91
-323
-235
43
-280
-299
-41
-310
-354
-153
-161
-238
-95
-58
-263
-262
-187
-241
-312
-159
-164
-385
-237
-144
-332
-216
-72
-247
-329
-328
-223
-157
-111
-105
-484
-399
-43
-205
-245
-103
-292
-307
-56
-119
-366
-294
35
-230
-468
-43
-21
-393
-253
-209
-369
-98
-69
-261
-295
-259
-256
-297
-69
229
-68
-64
314
3
-5
276
97
-96
31
248
15
-186
73
-21
-324
-279
-260
-343
-148
-191
-527
-223
51
-217
-320
-155
-148
-311
-238
-75
396
1499
2670
3145
2684
1630
443
-171
126
262
-123
-6
108
-268
-322
-63
-98
-235
-212
-194
-195
-153
-127
-362
-283
150
-131
-355
35
-68
-329
-145
20
-52
-192
-88
-24
-148
30
209
69
73
194
10
-64
151
206
122
251
587
336
164
561
507
326
539
400
206
567
615
277
249
411
217
70
218
86
-180
-137
-143
-228
-46
-23
-205
-310
-91
-34
-385
-212
-127
-303
-152
-150
-247
-290
-89
-150
-438
-134
4
-304
-273
-46
-214
-299
48
-82
-372
-70
-57
-226
-42
0
-158
-153
-90
-174
-286
-121
-20
-234
-132
8
-225
-309
-72
-91
-361
-200
-17
-207
-162
-30
-206
-303
-226
-168
-150
-98
-104
-204
-121
-45
-228
-315
-24
-40
-414
-189
-15
-258
-128
-115
-339
-167
63
-94
-287
-116
32
-208
-187
-14
-191
-158
-41
-138
-216
-300
-165
-96
-355
-156
36
-61
187
158
-49
103
217
129
190
235
78
37
72
60
6
77
86
-116
-181
-64
-189
-310
-66
-106
-355
-292
-184
-277
-236
-54
-147
-154
8
457
1438
2624
3316
2853
1931
577
-322
138
443
83
-176
1
95
-278
-281
119
-116
-287
40
-13
-437
-324
62
-121
-149
49
-160
-148
78
-105
-291
-86
81
-200
-190
160
-4
-63
211
80
-29
237
264
51
178
271
93
197
503
374
227
500
519
442
555
622
409
315
555
533
277
311
361
42
32
165
-117
-226
23
47
-233
-118
13
-341
-231
24
-240
-240
-66
-350
-394
-7
81
-223
-324
-30
-108
-261
-81
-263
-332
-119
-220
-188
-54
-89
-130
-221
-118
-63
-225
4
25
-330
-220
12
-200
-297
-67
-180
-307
-208
-72
-151
-234
-85
-229
-222
8
-103
-238
-149
-252
-330
-151
-168
-192
-90
-11
-130
-452
-186
78
-304
-245
-133
-400
-224
39
-78
-309
-150
104
-372
-369
125
-170
-296
-41
-108
-310
-124
120
-324
-421
24
-53
-212
63
11
-299
72
265
-42
52
257
152
70
253
187
-113
55
122
-111
-50
-14
-106
-189
-168
-221
-335
-139
-107
-315
-199
-54
-395
-501
77
122
-146
800
2141
2806
2961
2381
976
-57
-4
26
-45
138
-21
-198
-21
-40
-203
-151
-87
-223
-232
-42
-28
-109
-127
-84
-238
-253
119
50
-170
65
64
-179
-17
77
-127
-121
65
139
-8
18
206
134
207
202
28
206
254
174
347
503
497
363
322
513
362
266
565
281
125
456
281
50
226
200
-171
-151
99
-28
-193
-215
-183
-189
-43
-43
-341
-202
99
-149
-349
-117
-165
-228
-97
-136
-312
-283
-22
-117
-317
-90
-43
-349
-204
55
-167
-239
-75
-210
-215
17
-11
-162
-177
-237
-380
-97
86
-185
-218
-39
-86
-324
-226
-159
-279
-163
-157
-187
-124
-93
-119
-222
-257
-115
-195
-369
-81
-82
-310
-79
-37
-257
-194
-19
-239
-337
-120
-196
-252
-215
-192
-254
-169
32
-186
-255
-28
-141
-266
-96
-133
-251
-14
-33
-332
-98
219
74
-30
179
150
-61
123
150
-52
98
227
77
-85
-20
-49
-273
-238
-149
-349
-390
-162
-184
-333
-217
-155
-365
-259
44
-164
127
1381
2347
2854
2901
1789
187
-202
140
44
-19
58
-64
-168
-110
-133
-255
-132
-53
-168
-119
-88
-208
-310
18
209
-261
-223
25
-119
-65
68
56
-140
-113
62
-81
50
219
-87
-41
281
31
-16
382
322
50
167
486
404
301
421
400
333
496
582
399
471
492
353
328
363
347
173
153
178
-64
34
176
-203
-266
-1
-191
-300
10
-12
-264
-215
-79
-225
-301
-156
-153
-258
-187
-246
-317
-13
40
-171
-145
-61
-102
-231
-135
-23
-317
-151
48
-273
-155
-60
-204
-161
-110
-59
-180
-127
2
-280
-172
34
-223
-167
-138
-270
-133
-91
-169
-260
-185
-31
-228
-313
-66
-118
-205
-199
-252
-237
-228
-46
-23
-239
-149
-99
-378
-263
14
-166
-245
-129
-246
-352
-165
-148
-282
-135
-61
-337
-222
55
-186
-337
-174
-111
-212
-39
53
-223
-215
-14
71
-7
21
214
131
264
238
-200
-194
199
235
-87
29
106
-222
-274
-146
-270
-308
-149
-320
-348
-154
-277
-390
-289
-102
-214
-203
466
1168
2058
3169
3238
2045
647
12
58
143
95
-120
-244
-38
26
-219
-246
-150
-189
-172
-70
-215
-373
-75
46
-328
-288
1
-142
-110
-10
-151
-252
-191
-6
-2
-6
109
-3
-34
179
18
-174
206
349
96
223
391
167
198
520
345
99
480
509
327
656
624
373
477
554
331
158
344
330
-113
-45
155
-144
-74
39
-217
-254
-93
-119
-274
-198
-215
-389
-156
109
-181
-303
-42
-186
-295
-24
-89
-375
-271
-71
-191
-305
-124
-128
-267
-99
-13
-176
-240
-106
-99
-303
-285
-137
-176
-64
41
-294
-298
-11
-205
-239
1
-84
-262
-154
-52
-245
-274
-88
-205
-375
-46
20
-342
-287
-149
-229
-272
-102
-107
-312
-148
-26
-204
-223
-48
-154
-374
-161
-44
-301
-192
-104
-268
-65
-63
-385
-256
-40
-229
-221
15
-8
-248
-212
-48
-183
-190
105
11
-164
173
181
-213
-65
332
99
23
335
115
-73
202
149
-140
-54
-32
-201
-170
-108
-221
-348
-213
-268
-389
-153
-179
-340
-264
-58
-132
-63
1118
2333
3005
3286
2446
877
70
248
158
-107
120
36
-244
-92
-9
-223
-303
-24
-143
-453
-166
-62
-288
8
72
-322
-182
44
-266
-308
147
78
-265
-56
181
-70
-186
-20
-4
27
152
129
109
321
303
97
251
474
367
207
367
466
381
581
722
420
391
684
537
369
472
423
130
119
318
-18
-41
253
-68
-222
37
-29
-306
-89
6
-433
-171
103
-321
-296
48
-102
-335
-90
18
-325
-303
-11
-185
-227
-42
-156
-198
-104
-34
-120
-245
-64
-71
-270
33
-40
-503
-35
83
-351
-136
-30
-213
-241
-25
-42
-222
-155
-256
-251
-74
-74
-155
-198
-201
-139
-195
-281
-99
-149
-189
-8
-239
-290
-19
-136
-262
-65
-144
-342
-176
-175
-222
-170
-17
-79
-357
-120
-24
-234
-169
-8
-258
-377
-50
-70
-201
-55
25
-187
-229
42
-220
-369
241
272
-26
133
235
104
109
235
153
-18
-124
105
171
49
96
-140
-123
12
-354
-435
-81
-80
-338
-227
-60
-269
-299
-119
-195
-121
663
1600
2397
3176
2926
1528
158
-228
-69
97
290
43
-183
28
-18
-269
-144
-71
-305
-282
57
17
-237
-59
-8
-248
-122
53
-217
-241
77
20
-117
-95
-40
-162
-60
270
-59
-124
272
182
70
204
369
175
52
322
209
326
491
204
316
522
403
356
449
429
407
411
485
236
-31
184
214
99
48
-29
-208
-260
-90
-133
-226
-50
-45
-312
-262
-71
-327
-406
-11
-152
-359
-84
-106
-351
-247
-17
-121
-290
-137
-59
-427
-301
2
-263
-213
11
-93
-303
-272
-181
-172
-87
-93
-301
-305
-7
-113
-291
-172
-234
-226
-205
-242
-251
-190
-144
-288
-231
-286
-266
-112
-179
-137
-314
-450
-160
-203
-285
-5
-121
-374
-218
-131
-296
-238
16
-194
-426
-177
-153
-396
-140
39
-342
-322
-109
-312
-410
-18
69
-268
-232
-169
-288
-186
50
-77
-209
87
50
-117
120
66
-188
195
393
-22
-115
98
65
-109
-82
-153
-369
-263
-159
-412
-369
-77
-342
-499
-94
-193
-475
-191
48
-118
190
1352
2280
2825
2783
1588
259
-109
72
-86
-202
112
-38
-410
-99
-32
-415
-351
-123
-267
-283
-26
-165
-334
-172
-162
-277
-209
-10
-161
-352
-63
-1
-286
-204
20
-121
-115
38
-81
9
198
55
-26
117
155
20
86
330
342
279
459
442
237
377
417
245
329
462
312
332
470
188
40
95
26
-98
-68
67
-237
-353
-90
-245
-414
-148
19
-307
-276
-43
-385
-367
-58
-320
-429
-27
-68
-420
-310
-96
-236
-305
-39
-139
-358
-190
-154
-266
-177
-120
-339
-319
47
-98
-404
-107
-65
-272
-187
-95
-181
-350
-205
-185
-319
-217
-289
-362
-213
-106
-175
-298
-185
-186
-241
-152
-269
-348
-228
-136
-257
-326
-73
-71
-435
-242
-62
-344
-273
-131
-314
-434
-164
-93
-249
-144
-156
-370
-259
-26
-281
-430
-10
-173
-524
-20
16
-398
-280
-88
-194
-209
-48
-129
-179
8
-6
-110
98
320
144
11
212
107
-148
74
189
-36
-4
-32
-336
-341
-208
-226
-357
-293
-126
-334
-333
-56
-202
-318
-162
-243
-173
534
1396
2277
3218
3172
1768
165
-1
330
-6
89
85
-344
-155
59
-289
-287
-27
-195
-395
-199
-30
-185
-189
-48
-169
-239
-180
-110
-84
-82
-83
-241
-103
131
-132
-151
180
104
-72
32
100
13
133
299
145
92
254
243
239
370
437
473
459
526
464
375
532
442
319
527
498
172
185
386
30
-200
110
-87
-275
65
61
-210
-149
-42
-260
-398
-98
-60
-341
-195
-24
-312
-247
-51
-327
-236
-50
-228
-329
-115
-140
-414
-125
5
-363
-246
125
-51
-262
-89
-101
-286
-189
-80
-170
-200
-28
-106
-455
-289
27
-181
-139
88
-296
-440
-156
-171
-167
-150
-231
-247
-153
-14
-134
-166
-70
-198
-283
-101
-61
-324
-312
-58
-255
-372
33
-15
-370
-117
13
-328
-151
95
-192
-228
-68
-192
-335
-181
-50
-243
-222
62
-109
-347
-118
-105
-79
54
-104
-77
51
66
-7
-5
289
268
60
225
339
-57
-62
362
47
-108
134
47
-106
-74
-55
-270
-350
-160
-178
-243
-55
-252
-360
-153
-130
-311
-187
678
1432
2346
3428
3173
1762
642
198
-35
126
285
-28
-116
-29
-182
-260
-74
-17
-194
-200
-63
-111
-203
-102
-84
-169
-29
134
-20
-104
-114
-234
-98
80
73
-95
65
170
-203
57
435
140
-18
314
311
86
326
293
151
422
443
242
409
733
564
370
647
585
331
408
509
346
190
298
154
-33
199
209
-144
-175
-80
-293
-247
-25
-318
-446
-118
-111
-248
-213
-141
-237
-302
-184
-230
-307
-211
-198
-341
-246
-159
-393
-282
-63
-338
-409
-81
-137
-391
-321
-175
-248
-322
-151
-148
-290
-216
-291
-406
-214
-162
-357
-379
-154
-210
-492
-315
-136
-403
-381
-175
-539
-534
-15
-165
-422
-238
-218
-361
-269
-197
-373
-420
-188
-159
-398
-313
-261
-405
-204
-129
-276
-297
-261
-224
-351
-298
-156
-371
-371
-137
-209
-368
-278
-286
-298
-101
-198
-359
-157
-96
-281
-121
131
-106
-231
89
81
-154
89
294
49
-43
108
-26
-158
133
46
-368
-231
5
-340
-550
-181
-241
-563
-289
-109
-241
-152
-119
-407
-309
93
647
1647
2752
3325
2565
1325
391
-208
-19
307
28
-311
-102
-27
-377
-141
26
-435
-269
75
-167
-277
-90
18
-151
-120
-5
-209
-170
79
-140
-390
-20
43
-191
33
142
-84
-97
183
145
-29
105
98
56
275
427
260
149
503
383
45
485
702
410
417
568
334
298
566
440
174
217
178
-104
20
222
-43
-131
54
-55
-279
-163
18
-172
-164
34
-340
-428
-28
-112
-198
8
-74
-258
-76
-62
-327
-268
-42
-179
-240
-1
-124
-303
-120
-36
-143
-178
-150
-179
-163
66
3
-273
-128
55
-149
-202
-110
-373
-345
-51
9
-94
-99
-51
-211
-236
-38
-66
-512
-462
-104
-79
40
36
-209
-309
-122
-59
-213
-114
-77
-322
-236
-33
-193
-259
-73
-141
-234
-116
-255
-280
-135
-243
-193
19
-30
-225
-275
-224
-169
-86
-17
0
-91
-112
116
-36
-175
275
297
-40
80
160
-48
44
236
47
-25
109
-31
-244
-264
-162
-245
-410
-183
-138
-295
-252
-424
-306
-134
-156
-63
257
1203
2175
2832
3011
2132
473
-242
13
7
60
62
-128
-198
-71
-100
-369
-224
20
-137
-286
-197
-209
-294
-100
-21
-208
-138
48
-103
-224
17
-115
-523
-81
322
22
71
168
-59
-1
194
74
-54
214
259
36
320
399
190
267
448
484
204
272
558
412
470
540
237
353
567
256
107
250
119
-110
-100
-22
-159
-262
-90
-79
-275
-127
-64
-332
-228
-106
-257
-180
-166
-340
-226
-38
-255
-315
-33
-32
-213
-194
7
-181
-499
-257
-114
-241
-8
90
-179
-178
-75
-226
-235
-72
-78
-228
-142
28
-252
-347
-34
-177
-271
-86
-225
-252
-272
-196
-208
-346
-38
-76
-293
-113
-116
-277
-103
3
-246
-246
-21
-243
-414
-160
-225
-427
-194
-14
-258
-272
-6
-247
-433
15
-26
-344
-115
-71
-344
-262
-123
-190
-137
-63
-100
-298
-306
-53
-281
-218
104
-107
-39
235
126
-37
157
316
99
-18
108
-18
-4
273
160
-225
-147
88
-193
-251
-99
-324
-454
-210
-162
-284
-134
-72
-279
-271
-17
-83
338
1441
2360
3057
3064
1988
409
-182
177
157
-111
30
41
-180
-128
-132
-233
-213
-106
-68
-223
-203
-119
-297
-124
30
-222
-263
-153
-143
-72
25
-89
-133
28
65
-102
-69
171
2
-173
165
311
73
141
304
108
201
394
171
306
347
334
582
534
557
427
421
661
447
253
450
333
0
120
279
17
-61
143
-11
-238
-71
-28
-277
-244
-206
-286
-235
-100
-116
-341
-215
-69
-254
-131
-64
-277
-330
-179
-115
-281
-92
-59
-441
-251
26
-280
-268
-34
-183
-194
21
-39
-221
-141
-145
-295
-235
-83
-256
-343
12
11
-227
-156
-177
-337
-280
-71
-193
-334
-23
-24
-322
-226
-60
-293
-418
-10
-231
-431
25
-97
-325
-76
-16
-315
-247
22
-78
-249
-129
-167
-412
-106
36
-326
-227
-15
-101
-197
-130
-88
-433
-360
94
-74
-207
-125
-213
-229
-63
-75
-288
4
184
-197
-96
287
129
-24
252
296
68
105
193
-40
-73
202
19
-199
-163
-273
-408
-264
6
-224
-374
-201
-345
-343
-64
-103
-249
-168
3
709
1911
2952
3284
2497
1254
306
9
246
224
-64
-105
-8
-118
-263
-104
-133
-315
-202
-68
-291
-405
-26
-81
-226
31
-154
-308
-91
-68
-236
-219
-86
-222
-285
167
179
-197
177
306
-70
16
220
175
90
161
258
226
335
298
191
470
575
463
451
564
444
255
424
396
230
348
503
265
49
187
71
-89
52
-76
-264
-212
-177
-197
-223
-47
-36
-306
-144
-81
-369
-233
-157
-271
-176
-112
-288
-275
-91
-150
-245
-224
-86
-230
-289
19
-119
-293
26
-3
-310
-172
-24
-268
-377
-104
-107
-230
-51
-80
-268
-273
-109
-148
-328
-237
-206
-276
-164
-46
-235
-243
14
-182
-295
-30
-86
-360
-203
-166
-405
-166
11
-193
-209
-79
-222
-251
-91
-131
-291
-266
37
-219
-419
-35
-105
-239
-35
-145
-347
-133
-3
-174
-254
-239
-268
-157
83
131
-108
-128
125
44
-18
245
159
-77
130
216
-32
100
313
-15
-348
-36
98
-274
-174
-77
-332
-200
-98
-390
-270
-117
-352
-343
-140
-97
-133
216
1121
2105
3024
3280
2187
607
-11
138
-161
-133
380
5
-291
-7
-133
-319
-253
-63
-161
-178
-31
-359
-335
56
-49
-256
-73
-34
-253
-103
82
-94
-119
78
-15
-177
13
80
-169
-77
245
167
47
106
162
166
268
415
257
301
402
335
487
502
306
382
542
436
291
392
536
244
42
163
-25
-187
2
59
-95
-158
-44
-111
-160
-121
-326
-373
-105
14
-292
-236
-10
-357
-368
9
-146
-360
-66
-70
-319
-182
-53
-192
-290
-118
-120
-240
-41
-100
-332
-193
-52
-173
-218
-13
-80
-251
-69
-30
-262
-195
38
-129
-348
-168
-172
-284
-17
-125
-289
-131
-300
-372
-110
-41
-214
-247
-78
-181
-351
-163
6
-189
-312
-86
-95
-274
-146
-169
-460
-253
-16
-344
-415
-80
-24
-218
-221
-106
-197
-201
-108
-273
-248
11
-24
-194
-125
-34
-132
-29
154
38
74
310
183
-42
165
52
-251
122
279
-118
-233
-102
-184
-327
-169
-91
-369
-307
-137
-285
-329
-238
-225
-331
-177
254
995
2161
3094
2935
1983
909
-28
-209
116
117
-104
-71
4
-169
-231
-162
-384
-403
38
65
-271
-230
-55
-205
-329
-112
-51
-206
-122
-17
-140
-90
66
-39
-151
-19
70
-13
149
237
-82
-36
232
73
159
373
233
152
236
391
404
412
522
431
389
535
534
423
533
531
285
351
300
33
98
179
38
-160
-105
1
-179
-193
-85
-285
-256
64
-185
-334
23
-78
-431
-104
84
-295
-191
12
-183
-335
-72
41
-311
-196
60
-210
-217
29
-137
-241
12
-30
-247
-79
-53
-206
-170
-132
-137
-209
-24
8
-279
-163
12
-194
-248
-47
-141
-263
-109
-102
-316
-234
-57
-137
-175
-142
-242
-234
-27
-209
-390
-52
-108
-446
-102
164
-166
-238
-42
-55
-272
-311
-143
-159
-235
-177
-161
-213
-98
-69
-191
-249
-236
-171
-185
-125
-152
-160
-29
-56
-199
-92
280
115
-153
82
216
133
107
206
113
50
206
46
-199
-6
-51
-278
-83
-175
-416
-242
-202
-486
-227
55
-275
-303
-109
-141
-228
-32
963
2207
3023
3287
2388
821
115
158
105
80
119
-80
-176
-44
-265
-386
-89
-138
-282
-60
-142
-283
-207
-138
-115
-238
-60
-6
-250
-116
-18
-227
-94
169
-62
-222
115
52
-215
56
200
15
39
181
102
93
443
424
126
345
451
364
411
473
484
433
507
514
291
330
562
256
57
262
95
-167
33
99
-142
-86
-40
-226
-266
-6
-172
-476
-105
8
-257
-139
-93
-345
-287
-99
-216
-293
-114
-180
-384
-201
-40
-360
-363
-23
-190
-296
-19
2
-190
-125
-60
-218
-220
17
-126
-362
-173
-132
-314
-219
-83
-265
-221
-112
-397
-270
109
-146
-471
-193
-80
-377
-176
43
-250
-346
-112
-135
-319
-262
-99
-151
-208
-52
-219
-327
-68
-340
-519
-133
26
-230
-357
-107
-160
-319
-147
-195
-244
-62
-76
-254
-327
-188
-215
-249
-60
-92
-253
-169
-69
-259
-158
147
74
-48
3
182
106
37
226
65
-27
178
128
-40
32
-32
-321
-249
-102
-291
-318
-106
-279
-427
-279
-505
-445
12
-98
-328
-46
530
1466
2552
3302
3064
1782
608
21
18
210
155
-65
-194
-131
-194
-242
-169
-153
-278
-285
-191
-253
-221
-188
-201
-112
-20
-49
-199
-222
-5
-153
-228
117
-2
-233
58
147
-147
-109
122
98
30
222
227
78
124
179
201
416
469
132
338
670
462
410
589
603
409
380
507
338
138
261
244
-12
38
144
-140
-158
21
-245
-273
-6
-61
-256
-223
-240
-330
-28
114
-329
-415
-16
-96
-364
-250
-90
-112
-191
-107
-138
-262
-74
-134
-322
-131
-58
-241
-214
-7
-180
-327
-93
-320
-296
155
-14
-320
-192
14
-146
-333
-141
-85
-260
-212
-143
-267
-261
-276
-361
-126
64
-100
-338
-109
96
-277
-289
-20
-235
-371
-133
-59
-238
-177
-22
-279
-277
-7
-243
-317
-97
-211
-305
-148
-56
-228
-279
24
-177
-455
-91
-38
-230
-30
-2
-224
-56
137
-68
-58
123
65
20
212
350
86
89
138
-149
20
262
113
-227
-228
-1
-302
-333
-196
-304
-223
-114
-197
-406
-239
-58
-204
-144
135
622
1681
2879
3219
2480
1270
353
-142
-80
313
65
-213
62
-78
-324
-60
52
-185
-233
-42
-222
-256
-2
-176
-309
-97
95
-106
-203
-58
-201
-188
94
26
-103
63
75
-38
-4
95
61
-50
253
302
-9
274
363
58
174
461
381
325
562
500
339
541
585
262
310
563
342
164
309
143
-72
147
149
-236
-179
169
-109
-297
51
-138
-329
-63
-159
-307
-170
-109
-269
-312
-23
-52
-295
-135
-159
-421
-112
84
-235
-233
-218
-284
-110
-15
-110
-187
-121
30
-97
-277
-33
-25
-404
-189
95
-256
-247
14
-164
-225
-56
-232
-386
-163
-43
-267
-245
-5
-194
-275
-100
-256
-352
-78
-109
-401
-192
19
-202
-234
-91
-135
-249
-112
-50
-395
-373
-15
-212
-288
1
-215
-249
-147
-371
-242
-81
-28
-129
-187
-61
-160
-202
-5
101
-162
-22
267
-46
-54
238
100
24
285
178
-79
77
174
-11
-19
148
-32
-398
-259
-53
-331
-255
-43
-329
-243
-90
-234
-262
-150
-1
-119
325
1495
2261
2999
3090
1645
298
-30
-20
14
108
32
-119
-125
-167
-211
-137
0
-16
-231
-133
-9
-290
-228
97
-48
-254
-94
-10
-148
-61
46
-101
-150
18
19
-116
73
133
-105
-54
249
199
74
260
73
-65
386
584
265
311
588
399
378
647
556
228
376
646
405
317
451
250
184
305
10
-94
118
17
-200
-235
-16
-160
-433
-136
-17
-247
-81
-21
-373
-184
59
-224
-272
-39
-94
-271
-116
-68
-275
-145
9
-190
-509
-194
126
-246
-42
108
-286
-220
54
-85
-215
-99
-213
-284
-81
-74
-311
-213
19
-215
-301
-73
-250
-385
-145
-124
-308
-216
-56
-212
-204
-13
-101
-315
-246
-65
-311
-351
-58
-247
-306
16
-184
-377
10
-82
-427
-177
-21
-246
-239
-73
-283
-360
-46
-93
-318
-125
3
-284
-331
-103
-149
-204
-96
-114
-88
-38
-8
88
87
153
148
69
195
153
-2
163
209
-1
5
159
-82
-295
-103
-171
-345
-200
-116
-328
-275
-36
-295
-489
-78
-11
-286
-71
393
1139
2291
3208
3079
1901
683
114
-11
182
218
-113
-159
-26
-73
-319
-298
-101
-209
-215
-120
-184
-185
-152
-332
-209
53
-81
-189
-43
59
-164
-199
49
-105
-227
99
107
-161
77
252
-20
56
287
147
51
223
301
179
345
509
271
243
525
605
489
599
609
356
440
487
137
240
457
97
36
155
-14
-66
-48
-43
-139
-224
-95
-158
-307
-47
-58
-338
-185
-43
-273
-294
-117
-180
-257
-106
-23
-236
-145
20
-260
-220
41
-107
-248
-93
-22
-308
-176
0
-405
-172
99
-256
-376
-232
-111
-125
15
-36
-335
-147
-29
-207
-157
-30
-109
-228
-138
-42
-223
-331
-150
-191
-293
-100
-111
-316
-185
-93
-208
-198
-124
-97
-155
-119
-141
-206
-94
-80
-247
-278
-20
-103
-284
-1
-68
-313
-130
-63
-283
-237
62
-93
-257
46
-49
-274
-1
83
-146
-74
146
29
-2
245
148
9
221
304
108
-4
162
75
-125
143
-2
-290
-21
-44
-300
-195
-65
-198
-229
-205
-257
-248
-52
-33
-323
-121
626
1487
2674
3553
2880
1413
491
260
87
34
319
68
-118
142
-77
-278
-91
17
-196
-245
-20
-140
-221
-76
-182
-156
93
22
-204
-28
63
-114
-93
84
130
-67
-8
167
38
29
255
99
88
438
185
-7
387
522
337
247
534
537
268
613
578
361
716
735
326
256
565
473
361
417
205
49
80
155
-118
-240
129
23
-252
-113
-93
-228
-60
-35
-282
-151
5
-164
-231
-117
-175
-285
-135
-18
-313
-308
93
-142
-359
23
-60
-300
-203
-167
-207
-141
7
-131
-198
11
-81
-323
-90
20
-273
-241
-140
-272
-97
-116
-403
-211
86
-8
-258
-129
-30
-293
-310
-32
-132
-367
-98
-50
-360
-170
34
-333
-447
-52
-3
-269
-149
-78
-362
-248
5
-271
-428
-60
16
-265
-249
-104
-257
-236
13
-252
-306
-2
-257
-285
118
-8
-350
-95
166
-139
-82
232
88
65
268
202
31
28
99
74
94
182
-8
-225
-170
-228
-352
-178
-87
-373
-470
-163
-113
-301
-206
-179
-356
-207
256
940
2069
3156
3250
2170
870
180
-212
11
320
-65
-108
132
-65
-351
-117
-36
-335
-251
-185
-284
-205
-89
-139
-261
-29
17
-333
-194
82
-135
-186
51
-85
-193
80
142
-224
-149
147
36
87
284
147
17
315
344
168
344
415
299
378
401
289
383
573
521
343
495
554
250
230
404
200
-85
-105
-135
-132
54
108
-141
-278
-102
-109
-280
-50
-66
-368
-177
-16
-172
-198
-63
-138
-314
-103
2
-312
-195
-56
-306
-249
21
-30
-309
-190
-138
-395
-98
149
-170
-270
-69
-120
-228
-105
-53
-168
-182
-74
-271
-285
-34
-179
-344
-191
-50
-279
-344
-112
-160
-205
-124
-212
-309
-181
-142
-347
-314
-31
-207
-377
-82
-194
-378
-179
-48
-264
-255
7
-292
-286
11
-207
-316
-115
-119
-307
-236
-101
-244
-262
-100
-104
-113
-48
-55
-85
31
158
54
42
161
-23
-130
144
198
-44
-5
50
-264
-355
-131
-324
-432
-137
-257
-371
-327
-293
-211
-277
-233
-183
-240
140
984
1929
2915
3013
1904
680
41
-186
-161
107
55
-281
-258
-109
-351
-413
-73
-96
-248
-69
-103
-393
-207
47
-218
-222
16
-137
-270
-71
-84
-252
-82
-24
-159
-285
-50
123
-105
116
235
16
108
236
44
90
424
284
220
473
337
242
445
361
262
473
551
364
257
428
394
50
103
294
22
-70
70
-119
-235
-87
-140
-256
-160
-96
-262
-391
-215
-289
-280
40
-86
-260
-105
-182
-540
-303
84
-172
-313
-103
-115
-253
-104
-10
-235
-215
-1
-225
-388
0
63
-269
-203
-47
-249
-272
-52
-309
-340
19
-90
-330
-192
-122
-260
-176
-137
-271
-256
-94
-106
-286
-191
-142
-334
-178
-33
-268
-335
-150
-217
-343
-165
-180
-303
-151
-55
-230
-343
-104
-2
-310
-365
-158
-174
-125
-56
-137
-251
-275
-304
-308
-72
7
-207
-213
13
-33
-193
24
204
-78
-71
149
70
175
211
-46
-11
224
60
-95
30
-47
-308
-325
-241
-395
-300
-28
-139
-322
-249
-134
-282
-363
-148
-167
3
1105
2227
2860
3297
2499
551
-250
139
90
-77
81
8
-400
-315
58
-347
-354
169
-262
-558
53
82
-334
-105
30
-309
-197
-41
-394
-242
116
-55
-220
-180
-82
-5
-81
-13
-14
-45
171
-18
-4
365
293
87
193
361
232
218
453
418
231
387
548
371
379
628
418
202
455
368
125
181
121
-42
-62
27
-136
-232
-132
-303
-278
-115
-154
-229
-246
-166
-264
-320
-80
-182
-487
-178
-77
-470
-195
55
-253
-323
-164
-140
-218
-178
-260
-344
-214
-185
-268
-198
-2
-117
-275
-147
-196
-299
-197
-40
-211
-313
-87
-183
-311
-171
-126
-295
-305
-345
-420
-192
-22
-143
-276
-132
-182
-430
-244
-62
-301
-341
-88
-270
-493
-135
-58
-370
-233
53
-177
-345
-125
-239
-335
-90
-184
-372
-216
-162
-278
-441
-122
73
-308
-122
-32
-292
-128
43
-18
-158
-218
24
97
126
277
82
43
179
20
-83
182
120
-501
-368
15
-120
-61
-56
-293
-335
-108
-218
-371
-210
-390
-441
-129
-30
-119
336
1580
2677
3151
2946
1566
165
208
350
80
36
101
-43
-235
-116
-96
-356
-309
-117
-260
-222
-1
-117
-285
-69
-63
-302
107
-173
-796
-145
274
-8
-108
67
91
-114
-28
140
9
-180
16
255
109
247
290
73
237
318
283
301
405
514
306
455
603
299
421
690
448
271
586
326
-168
127
168
-83
49
110
-177
-213
-22
-205
-295
-15
-84
-343
-358
-186
-89
-167
8
-137
-356
-138
-110
-326
-373
-112
-155
-255
-15
-141
-295
-165
-167
-250
-175
-143
-324
-349
-128
-45
-152
-6
-5
-307
-260
-101
-277
-287
-67
-237
-458
-130
-35
-350
-110
124
-315
-473
-29
-194
-502
-87
-25
-372
-309
-87
-306
-347
-132
-298
-296
-70
-60
-263
-271
-27
-207
-343
-88
-243
-368
-152
-166
-348
-271
-244
-374
-162
32
-104
-224
-138
-132
-166
-12
45
-100
13
244
63
-53
267
276
22
-154
-90
154
89
209
155
-172
-56
-110
-471
-351
-86
-246
-252
-63
-218
-264
-90
-216
-375
-284
18
465
1352
2760
3375
2791
1784
474
-295
-55
236
5
-145
7
-123
-146
61
-94
-380
-224
-9
-345
-398
35
-28
-241
-243
-202
-136
-41
-6
-191
-131
120
-48
-207
37
146
-88
-147
99
5
-22
258
218
108
239
326
224
271
474
228
69
555
580
267
511
566
258
406
460
182
284
385
116
-44
156
166
-117
81
90
-343
-222
29
-178
-319
-47
-73
-234
-233
-384
-341
-181
-53
-33
-170
-99
-106
-426
-167
40
-255
-170
-82
-246
-242
-77
-165
-221
-12
-48
-187
-142
-17
-161
-379
-6
-84
-344
-8
-44
-310
-237
-47
-184
-234
-7
-78
-283
-180
-207
-433
-292
3
-72
-243
-28
-38
-289
-122
-27
-238
-240
-271
-242
-252
-268
21
-85
-155
-80
-255
-151
1
-174
-229
-170
-351
-318
36
-29
-232
-88
37
-137
-154
116
66
12
185
139
15
105
115
17
145
226
43
-4
34
-152
-321
-112
-5
-258
-310
-120
-165
-355
-293
-197
-297
-370
-65
-15
-139
515
1509
2420
3083
2778
1403
118
-346
-351
-81
254
138
-128
19
-29
-328
-234
-61
-176
-262
-96
-166
-315
-185
-174
-273
-160
-69
-292
-181
52
-75
-181
-63
-61
-222
28
189
-133
-231
191
294
30
180
232
13
143
353
226
198
389
402
374
272
260
260
355
465
159
378
708
309
47
225
183
-143
-98
108
-279
-464
-96
-180
-301
-51
-24
-258
-207
-102
-373
-427
-105
-114
-339
-209
-127
-331
-315
-155
-319
-335
-59
-111
-309
-127
-33
-296
-185
-17
-237
-279
-203
-254
-350
-213
61
-323
-420
91
-188
-357
-29
-236
-419
-144
-129
-366
-310
-78
-170
-319
-96
-181
-489
-261
-230
-422
-137
-68
-310
-281
-95
-151
-318
-184
-91
-440
-441
-162
-271
-172
-2
-139
-332
-207
-153
-376
-133
39
-293
-296
-2
-171
-288
-19
26
-61
43
196
78
28
184
97
-67
-136
-136
-55
-20
138
45
-258
-164
-218
-513
-305
-101
-291
-301
-122
-275
-352
-119
-299
-303
223
944
1775
2795
3274
2460
1080
88
-343
-259
243
76
-194
26
-28
-176
-218
-89
-198
-340
-187
-234
-191
-17
-53
-231
-236
-102
-133
-227
-161
50
-62
-154
69
-69
-156
72
56
-238
-247
50
161
274
371
197
154
426
347
136
370
460
338
418
439
289
384
685
566
331
530
372
107
374
374
33
-49
106
-170
-354
-35
-16
-160
-123
-198
-350
-236
-123
-159
-157
-93
-176
-288
-163
-110
-243
-267
-36
-121
-350
-145
-38
-242
-206
-25
-218
-356
-149
-138
-224
-16
-86
-429
-185
135
-145
-239
-5
-142
-282
-225
-343
-215
39
26
-164
-271
-75
-107
-256
-142
-182
-312
-230
-103
-233
-272
-51
-178
-287
-49
-170
-456
-191
19
-270
-279
4
-71
-253
-72
-40
-313
-240
-68
-186
-233
-239
-276
-268
-153
-16
-137
-204
-115
-120
-6
169
55
-56
143
185
-25
154
288
-56
-13
283
115
-35
121
-103
-559
-342
-41
-197
-142
-94
-302
-300
-159
-214
-316
-208
-229
-322
16
629
1419
2504
3418
3106
1702
565
141
74
86
97
-8
-117
30
-102
-332
-230
-49
-120
-322
-154
-80
-319
-171
103
-85
-166
-116
-222
-255
-41
59
-103
72
69
-166
77
196
-96
-72
148
103
90
186
236
87
234
414
128
282
564
411
393
596
540
333
621
765
354
314
540
365
168
315
248
7
120
169
-87
-285
-294
15
8
-221
-100
-152
-140
-27
-167
-260
-96
-146
-410
-177
-4
-271
-197
-87
-274
-185
-103
-244
-236
-227
-278
-267
-41
74
-162
-206
-35
-175
-339
-51
-6
-466
-304
56
-263
-225
34
-185
-322
-87
-38
-286
-200
-56
-273
-283
-106
-147
-300
-233
-79
-223
-182
-72
-250
-360
-317
-167
-121
-38
-85
-286
-137
-87
-284
-256
-57
-239
-395
-15
-79
-440
-162
36
-254
-294
-107
-171
-200
83
110
-147
-9
136
-48
25
366
230
-47
155
121
-43
139
117
-135
-208
-101
-159
-426
-283
-83
-361
-300
-94
-295
-357
-87
-227
-519
-112
304
800
2079
3216
3071
2244
1067
-92
-164
231
172
-188
-131
72
-163
-227
-28
-258
-446
-108
-59
-237
-128
-81
-247
-154
-47
-279
-241
11
-91
-252
-86
-5
-114
-52
131
-11
-69
175
45
-97
99
246
123
52
211
250
198
420
495
275
430
515
314
374
502
513
457
514
518
301
415
373
-5
2
86
-51
-124
1
-57
-264
-107
4
-299
-306
-73
-191
-302
-139
-92
-186
-127
-87
-276
-319
-151
-153
-211
-39
-56
-398
-175
49
-231
-271
-172
-185
-160
29
-77
-247
-50
-115
-307
-155
-15
-139
-212
-91
-160
-310
-75
16
-251
-308
-112
-120
-234
-43
-123
-341
-104
-100
-282
-174
-135
-259
-223
-112
-181
-240
-52
12
-216
-212
-180
-281
-212
-106
-212
-308
-94
-105
-369
-242
20
-224
-352
123
131
-249
-97
200
80
101
308
135
30
135
28
-26
152
154
-211
-236
55
-189
-353
-123
-224
-418
-238
-151
-225
-294
-153
-118
-278
-44
-122
225
1715
2788
3003
2587
1429
139
-292
20
138
-117
-42
4
-325
-174
19
-232
-257
-215
-264
-216
-108
6
-177
-233
-53
-130
-177
-43
-87
-312
-108
141
-94
-32
129
-154
-222
110
126
-61
142
235
-55
62
353
204
131
357
403
226
389
553
358
382
554
467
303
449
416
215
331
272
-4
19
222
-24
-296
-25
-20
-291
-160
-81
-217
-283
-171
-199
-341
-150
-249
-486
-92
-74
-400
-210
-169
-401
-356
-205
-249
-282
-122
-21
-254
-304
-129
-262
-300
-113
-170
-340
-252
-52
-197
-308
-176
-297
-248
13
-173
-376
-181
-134
-301
-196
-59
-266
-329
-53
-125
-407
-234
-93
-344
-357
-113
-207
-355
-211
-212
-359
-228
-61
-323
-311
-46
-301
-376
-66
-221
-473
-235
-99
-262
-168
-18
-263
-300
-135
-223
-174
-24
-37
-112
-2
83
-48
19
213
125
-23
154
103
-169
40
126
-221
-228
-39
-262
-475
-192
-27
-400
-431
-151
-310
-395
-173
-209
-325
-141
36
550
1804
2940
3106
2480
1308
62
-244
161
178
-175
-97
36
-265
-329
-91
-188
-380
-142
-117
-413
-259
-27
-160
-279
-124
-135
-321
-126
-34
-280
-188
39
-186
-268
55
16
-196
-214
-42
122
122
199
101
46
241
221
162
385
326
132
473
700
462
374
542
586
406
385
527
310
269
418
110
-11
220
65
-130
33
-47
-218
-134
-94
-232
-243
-28
-172
-374
-92
-160
-424
-160
-33
-292
-233
-108
-283
-313
-112
-97
-297
-184
-133
-401
-265
-1
-124
-238
-138
-101
-229
-210
-97
-230
-206
-91
-254
-257
-53
-71
-303
-174
-2
-293
-407
-100
-157
-377
-149
-157
-297
-104
45
-187
-310
-84
-136
-255
-138
-157
-323
-214
-48
-167
-337
-175
-84
-314
-196
-22
-205
-219
-106
-299
-240
-71
-282
-257
54
-68
-360
-129
115
-75
-53
161
-15
-98
209
241
59
120
162
44
19
217
116
-153
-33
40
-276
-298
-24
-239
-324
-147
-309
-432
-171
-57
-298
-266
-157
-272
-129
536
1451
2483
3309
3091
1756
499
186
12
-71
251
53
-274
-56
-52
-253
-217
-116
-315
-385
82
-83
-410
-77
-82
-290
-120
-4
-267
-322
40
-5
-225
-75
-42
-195
-71
245
-29
-203
238
189
-13
221
254
113
246
360
223
322
578
353
240
503
632
508
452
721
542
188
572
575
200
441
359
-102
18
132
-135
-100
100
-84
-260
-103
-168
-259
-145
-39
-160
-356
-90
-1
-283
-181
-37
-307
-390
-133
-122
-122
19
-160
-286
-4
-53
-304
-115
38
-268
-290
64
-122
-355
-99
-20
-245
-158
30
-336
-441
-68
-200
-258
87
-28
-259
-99
-31
-217
-260
-45
-90
-439
-252
-19
-282
-205
-8
-216
-174
-17
-383
-401
-39
-133
-315
-116
43
-145
-221
-76
-129
-351
-177
26
-162
-91
13
-214
-179
-25
-120
-101
113
-42
-139
-21
57
255
208
280
244
24
116
136
-21
46
34
-214
-161
-38
-293
-377
-129
-235
-394
-97
-85
-341
-248
-112
-222
-210
153
752
1778
2922
3296
2517
1094
56
-121
17
207
84
-305
-75
135
-136
-178
-26
-188
-315
-65
-84
-295
-119
33
-224
-128
72
-136
-191
-72
-126
-201
34
84
-73
-21
-23
-118
56
295
136
-3
183
287
134
178
398
290
203
361
415
348
491
619
352
311
511
418
386
560
456
217
231
169
17
50
91
-62
-117
56
-69
-292
-153
-96
-306
-212
17
-193
-264
-41
-90
-152
-90
-106
-280
-316
-92
-112
-303
-176
-27
-336
-361
18
-110
-214
-23
-120
-312
-273
-54
-151
-226
5
-135
-159
38
-250
-355
-69
-53
-258
-177
-16
-238
-227
-48
-226
-348
-158
-164
-296
-249
-270
-258
-218
-97
-114
-295
-190
-182
-293
-109
-69
-229
-231
-29
-183
-463
-95
-208
-475
-144
-75
-219
-190
-1
-126
-298
55
127
-186
54
237
-31
26
249
134
-92
17
67
-92
-2
53
-188
-283
-84
-217
-488
-248
-157
-431
-354
-172
-307
-291
-156
-221
-181
96
810
1775
2815
3150
2096
847
73
-225
-125
-10
39
-110
-130
-36
-279
-281
-125
-334
-455
-98
4
-254
-119
-24
-234
-195
-31
-169
-256
-15
-44
-285
-69
66
-227
-142
132
-7
-140
86
137
-84
79
222
172
190
218
247
210
485
572
196
344
463
243
390
466
479
479
480
438
198
216
213
3
25
-5
-242
-234
10
-6
-234
-192
-90
-277
-286
7
-320
-556
-46
-61
-376
-192
-49
-314
-331
-87
-228
-321
-105
-91
-316
-222
-32
-214
-178
-51
-257
-254
-6
-96
-320
-137
-3
-350
-417
-90
-39
-254
-212
-99
-315
-277
-70
-243
-267
-127
-227
-240
-144
-173
-273
-146
-49
-318
-360
-159
-181
-210
-81
-149
-338
-228
-90
-280
-310
-52
-189
-370
-81
-94
-307
-76
-85
-456
-323
23
-187
-325
-58
-32
-219
-130
16
-76
-18
220
116
-24
192
235
68
51
153
23
-13
84
-46
-82
-103
-145
-314
-215
-59
-347
-356
-183
-250
-348
-217
-171
-353
-220
11
20
839
2283
3059
3064
2398
989
-121
14
304
-55
-129
38
-199
-267
-58
-111
-287
-225
-190
-296
-259
-142
-244
-262
-8
-115
-429
-148
16
-313
-188
-1
-169
-157
-106
-71
-35
-74
37
46
28
160
109
10
244
254
59
262
402
177
163
606
500
200
622
632
263
567
713
312
341
479
201
131
167
28
-7
-82
-17
-89
-274
-17
-144
-531
-167
72
-273
-237
-115
-291
-290
-101
-203
-336
-114
-152
-311
-255
-197
-234
-248
-60
-240
-372
-71
-197
-402
-318
-327
-462
-493
-398
-406
-519
-435
-290
-446
-405
-219
-347
-288
-244
-490
-401
-112
-262
-464
-75
-19
-383
-255
-106
-297
-377
-157
-220
-366
-239
-256
-299
-249
-51
-140
-318
-130
-301
-463
-145
-89
-351
-222
-119
-340
-214
-17
-158
-294
-194
-126
-243
-235
19
-72
-210
129
53
-152
118
279
113
-20
141
121
-19
201
106
-206
-7
27
-295
-277
-56
-258
-444
-164
-116
-309
-146
-188
-410
-263
-167
-142
37
793
1886
2713
3359
2959
1337
176
130
155
-4
127
71
-203
-162
-35
-178
-300
-33
-178
-425
-22
-34
-275
-9
39
-316
-256
23
-104
-154
14
-34
-169
-60
114
-37
-10
198
-35
-72
226
76
-13
292
240
34
201
464
350
154
491
606
333
480
650
483
426
479
296
240
613
594
234
310
318
86
68
102
-56
-184
-20
-38
-277
-31
112
-243
-252
40
-154
-310
-60
-97
-240
-68
64
-323
-274
121
-136
-248
20
-4
-244
-165
-45
-370
-241
148
-106
-190
28
-82
-261
-73
56
-193
-236
6
-161
-320
56
41
-290
-145
-53
-292
-265
-61
-240
-297
-52
-165
-279
-81
-29
-249
-243
-46
-192
-287
-104
-163
-405
-309
-14
-167
-189
60
-167
-235
-41
-195
-341
-136
-40
-299
-251
6
-114
-253
-45
88
-106
15
159
-111
-23
258
185
14
111
231
-28
83
310
-37
-80
80
-200
-377
-144
-138
-392
-221
-135
-393
-211
-7
-268
-363
-145
-57
-94
712
2004
2686
3054
2559
1024
-45
-9
115
-52
15
69
-155
-228
-16
-112
-320
-122
-71
-296
-141
12
-225
-146
-3
-208
-265
-14
44
-168
-87
19
-194
-116
115
1
-40
140
78
-171
43
242
74
54
160
237
232
367
374
230
473
474
181
351
556
317
241
589
377
91
441
454
115
127
243
-51
-242
68
43
-182
-61
-116
-273
-153
24
-102
-174
-96
-220
-339
-167
4
-193
-239
-47
-189
-282
-66
-141
-295
-171
21
-259
-349
105
-123
-304
50
-50
-249
-117
-119
-243
-243
-56
-89
-271
-54
-86
-303
-89
-13
-302
-313
-39
-151
-345
-79
-43
-328
-183
-39
-259
-359
-175
-117
-272
-188
-73
-240
-246
-133
-304
-204
50
-293
-413
-23
-143
-377
-107
-57
-239
-151
-50
-106
-85
-30
-143
-185
124
254
60
183
238
-15
-65
104
63
-99
-1
20
-181
-220
-181
-358
-355
-133
-268
-434
-209
-106
-280
-247
-142
-377
-332
307
1102
1854
2757
2991
1819
562
73
-138
-57
259
-100
-356
21
-15
-277
-193
-123
-325
-426
-82
-8
-393
-96
83
-393
-216
81
-300
-357
55
-44
-229
-40
78
-44
-106
104
-27
-126
160
81
-49
126
144
74
148
207
156
191
466
502
288
388
440
380
487
530
423
345
416
286
54
183
238
-17
-24
73
-117
-261
-132
-111
-286
-57
12
-411
-303
5
-229
-296
-146
-198
-263
-190
-80
-212
-208
-71
-315
-349
7
-62
-253
-85
-101
-321
-201
-26
-212
-254
-39
-169
-330
-137
-22
-251
-211
-39
-324
-336
-119
-167
-241
-157
-100
-224
-212
-96
-195
-245
-231
-268
-162
-120
-155
-330
-248
-95
-246
-300
-250
-171
-257
-197
-51
-264
-393
-88
-151
-340
-40
-117
-422
-266
-40
-274
-303
21
-155
-256
-62
-70
-184
-85
155
4
-87
134
139
33
166
140
-45
68
52
-166
-76
65
-229
-359
-121
-220
-379
-198
-135
-344
-341
-130
-214
-415
-291
-195
-241
452
1628
2469
3178
3103
1633
156
-33
143
27
49
-34
-208
-82
-53
-357
-304
-77
-177
-354
-221
-83
-358
-293
-104
-260
-171
-16
-126
-295
-228
-85
-122
-99
-30
-178
-167
60
-34
-115
84
144
-55
5
235
89
54
379
275
108
393
458
307
349
556
503
273
549
556
130
311
467
219
170
269
15
-135
121
-38
-357
-100
111
-142
-198
-63
-177
-289
-64
-71
-317
-181
-119
-276
-182
-46
-261
-345
-105
-141
-288
-71
-76
-342
-172
-15
-260
-228
62
-104
-266
-48
-74
-307
-165
-55
-342
-290
101
-6
-342
-139
-65
-344
-401
-168
-65
-186
-28
-151
-386
-105
-32
-274
-216
-103
-298
-284
-23
-36
-219
-264
-157
-162
-295
-154
-169
-300
-75
-127
-358
-156
-7
-324
-348
-59
-218
-332
3
-96
-327
23
168
-150
-112
178
47
-25
226
168
-54
180
263
-46
-38
171
10
-169
11
-44
-325
-228
-122
-395
-396
-198
-274
-334
-160
-89
-330
-131
102
68
990
2334
3142
3111
2243
986
6
81
283
25
-57
-3
-171
-267
-35
-126
-450
-273
-7
-207
-212
-87
-194
-177
-96
-151
-250
-146
-99
-208
-80
-15
-277
-265
76
-19
-159
80
161
28
9
170
38
-2
378
329
68
309
460
233
336
547
360
290
520
548
414
463
446
289
340
460
271
65
152
90
-172
-67
66
-209
-182
49
-131
-226
-68
-84
-230
-262
-123
-168
-237
-38
-209
-315
-23
-141
-269
-103
-57
-247
-265
-29
-145
-244
-61
-123
-305
-81
0
-376
-194
87
-177
-226
14
-5
-368
-263
75
-122
-168
-21
-227
-322
-72
-83
-254
-117
2
-230
-266
-9
-181
-348
-68
-141
-420
-181
-57
-220
-143
-53
-303
-350
1
-42
-265
-161
-80
-235
-241
-108
-180
-206
-76
-114
-345
-143
163
-125
-50
158
-86
-10
189
148
116
179
157
-3
16
177
181
-11
-41
-162
-306
-123
-209
-422
-245
-62
-253
-312
-34
-113
-419
-250
32
48
587
1752
2707
3070
2705
1432
112
-77
146
42
7
76
-72
-178
-69
-154
-321
-101
-15
-289
-248
-18
-171
-273
-65
-86
-212
-75
-2
-234
-92
222
-20
-220
-93
4
-21
126
234
-64
11
350
121
-65
288
311
77
330
451
206
352
542
278
277
586
469
328
456
392
227
252
451
205
0
221
106
-226
-130
154
-126
-168
111
-228
-312
45
-86
-264
-185
-103
-103
-254
-125
-155
-367
-43
-11
-226
-6
-76
-378
-242
-162
-234
-93
-20
-119
-136
-59
-97
-196
-131
0
-142
-208
40
-38
-369
-191
33
-194
-226
-44
-164
-372
-112
-17
-401
-206
110
-200
-247
-14
-259
-335
-24
-316
-401
-11
-163
-283
-162
-104
-249
-261
-28
-188
-297
-87
-75
-207
-163
-119
-155
-297
-257
-13
-110
-56
121
-48
-20
192
-32
-116
241
217
-12
122
163
-53
-33
86
-58
-132
-52
-224
-357
-185
-112
-376
-243
-54
-540
-478
-52
-152
-185
58
489
1320
2291
2958
2775
1616
412
-145
-197
69
146
-99
-89
-10
-202
-294
-111
-143
-293
-123
-39
-347
-291
12
-233
-242
94
-110
-287
-112
-25
-193
-189
115
1
-145
90
45
-87
118
158
-14
44
241
172
69
289
265
167
440
491
278
375
574
430
341
548
405
121
427
609
252
175
385
119
-102
93
-50
-215
-60
-72
-233
-178
-55
-266
-303
-77
-73
-268
-218
-104
-347
-258
19
-141
-298
-142
-155
-326
-167
-86
-263
-168
-44
-209
-202
20
-171
-288
-82
-133
-165
-78
-44
-231
-332
-114
-83
-266
-127
-7
-297
-288
-67
-143
-225
-42
-172
-414
-120
-66
-267
-172
-54
-268
-349
-96
-168
-340
-116
46
-303
-405
-139
-242
-246
47
-52
-302
-159
-35
-313
-357
-114
-153
-192
-15
-47
-279
-124
96
-75
0
279
57
-132
250
227
-140
85
118
-93
98
219
19
-87
-204
-317
-235
-174
-120
-349
-307
-50
-352
-435
-104
-218
-438
-136
-3
130
1235
2613
3205
2922
2020
673
-161
126
273
-166
-115
104
-119
-148
-72
-202
-270
-18
-41
-588
-422
82
-128
-208
7
-103
-258
-107
93
-129
-303
-11
-68
-211
63
38
-110
94
100
-237
-85
340
165
68
358
298
159
412
456
279
372
458
404
387
559
483
307
631
654
270
340
501
168
16
252
60
-184
31
34
-259
-252
-58
-174
-194
-77
-204
-203
-124
-107
-217
-246
-147
-242
-236
-127
-131
-224
-115
-59
-273
-171
-46
-302
-382
-82
-15
-205
-104
-145
-327
-87
33
-220
-279
-10
-83
-345
-59
40
-277
-261
-71
-180
-261
-69
-98
-342
-253
-144
-339
-218
-30
-243
-290
-22
-138
-361
-205
-128
-318
-269
-14
-264
-374
-161
-230
-167
15
-54
-246
-175
-47
-265
-322
-51
-179
-357
-98
12
-190
-108
134
-91
-109
217
178
26
219
260
-33
20
180
51
25
140
37
-205
-105
-144
-456
-160
7
-300
-345
-164
-156
-417
-182
0
-301
-107
160
620
1656
2891
3507
2680
1379
397
-75
135
326
-6
-152
121
-75
-363
-110
-23
-227
-230
-146
-253
-311
-109
-177
-230
7
-38
-246
-149
44
-129
-194
27
-10
-203
-5
144
-197
-119
308
147
33
229
128
36
220
284
165
272
441
406
249
379
616
483
505
525
378
443
518
355
284
382
231
68
110
50
-183
-104
-3
-218
-173
-13
-182
-354
-143
-23
-323
-290
-57
-401
-404
-25
-87
-302
-228
-89
-228
-180
-19
-166
-295
-120
-164
-353
-159
-67
-227
-151
-57
-296
-260
48
-59
-380
-246
-8
-274
-225
-11
-235
-309
-204
-212
-273
-170
-77
-243
-216
-60
-240
-342
-136
-181
-376
-222
-132
-268
-156
-132
-303
-202
-172
-230
-266
-158
-13
-265
-235
-67
-258
-300
-41
-134
-502
-163
17
-325
-143
57
-124
-153
77
49
-120
96
299
160
87
230
117
-117
64
139
-111
-67
-42
-267
-233
-120
-259
-404
-331
-290
-320
-99
-147
-373
-182
-131
-272
120
1259
2415
3035
3047
2087
474
-194
103
42
-61
77
-19
-242
-235
-107
-205
-156
-36
-234
-294
-62
-57
-269
-189
-78
-209
-147
8
-133
-241
-165
-97
-141
27
187
-57
-31
157
8
-18
184
146
56
281
225
-14
232
417
287
307
483
393
268
565
651
143
197
596
345
292
495
261
-78
131
283
-89
-92
77
-156
-286
-65
-49
-337
-220
-40
-216
-194
-133
-218
-233
-97
-149
-284
-63
-129
-374
-168
-23
-190
-349
-179
4
-202
-97
-6
-261
-188
4
-110
-270
-117
-59
-262
-142
2
-189
-152
-13
-138
-228
-126
-228
-354
-117
38
-260
-361
17
-218
-360
22
-161
-284
-115
-43
-199
-307
-101
-202
-235
-79
-129
-245
-179
-52
-241
-200
-9
-235
-326
-27
-94
-362
-93
-11
-258
-138
-50
-115
-18
153
72
-67
213
287
-35
145
231
-64
22
136
75
-6
-69
-82
-198
-286
-279
-386
-286
-32
-171
-384
-217
-164
-372
-256
-2
-91
87
1192
2294
2886
2876
1743
306
-184
-48
-100
-173
23
10
-194
-181
-189
-293
-204
-143
-292
-260
-94
-82
-275
-272
-120
-182
-138
-62
-160
-187
-95
-168
-272
8
60
-208
-16
89
-221
-51
243
57
-46
158
224
31
187
418
182
147
417
355
236
480
453
245
404
467
256
236
329
181
-34
51
87
-190
-121
34
-297
-415
-147
-110
-286
-168
-141
-438
-289
-135
-354
-260
-118
-281
-386
-222
-216
-351
-248
-134
-154
-238
-172
-238
-404
-166
-120
-372
-225
-89
-172
-198
-153
-144
-312
-208
-21
-302
-267
-154
-429
-207
38
-139
-300
-177
-111
-323
-287
-135
-227
-287
-88
-108
-316
-209
-142
-320
-267
-50
-233
-381
-103
-176
-356
-142
-110
-283
-252
-91
-219
-357
-64
-61
-391
-125
-27
-389
-231
-23
-305
-383
-84
-135
-256
-82
-87
-212
33
163
-27
42
314
135
-146
179
235
-64
-38
95
-92
-155
122
-181
-401
-109
-187
-403
-218
-7
-259
-467
-217
-145
-324
-254
-199
-88
734
1883
2716
3034
2603
1318
43
-59
156
-72
-124
0
-148
-252
-21
-125
-479
-262
-69
-264
-289
-152
-233
-319
-6
-87
-434
-176
21
-179
-202
-119
-245
-244
77
33
-255
-21
132
-54
63
184
13
11
199
228
141
274
367
301
436
514
291
314
575
482
484
622
537
394
390
419
140
43
281
97
-154
-26
19
-128
-167
-111
-191
-223
-71
-111
-392
-223
51
-257
-306
-58
-170
-275
-186
-139
-212
-100
-110
-332
-182
-144
-335
-254
-142
-120
-218
-125
-58
-312
-81
120
-192
-218
-27
-150
-248
36
-152
-491
-63
80
-256
-254
-86
-187
-298
-75
-80
-384
-318
-3
-74
-149
-34
-270
-345
-88
-52
-226
-160
-130
-259
-180
-77
-133
-311
-186
-80
-299
-216
-53
-302
-328
94
-49
-329
-124
-191
-253
-41
-36
-236
-252
-90
-81
-185
-139
-17
-43
71
208
40
60
251
148
12
52
66
-37
-53
65
-29
-120
-30
-144
-286
-194
-187
-373
-266
-128
-326
-328
-182
-270
-386
-254
-99
365
1495
2624
3230
2946
1790
573
18
164
204
-135
-51
125
-259
-346
-22
-161
-342
-118
-129
-367
-252
-168
-293
-169
12
-113
-360
-91
78
-277
-120
77
-194
-172
-38
-93
-58
103
76
-121
-44
228
148
-80
219
418
213
342
452
318
388
483
423
380
556
645
471
478
568
310
234
475
315
84
76
74
-30
10
-31
-305
-110
54
-236
-345
-85
-155
-279
4
-48
-312
-227
-22
-185
-368
-53
-57
-374
-114
-26
-302
-200
-99
-287
-220
-85
-193
-221
-129
-103
-236
-182
-36
-217
-182
6
-239
-274
-48
-203
-368
-188
-34
-141
-162
-57
-168
-286
-107
-43
-310
-196
-46
-395
-271
67
-250
-362
-50
-106
-253
-105
21
-181
-316
-202
-284
-386
-233
-50
-143
-114
10
-269
-362
-58
-144
-334
-94
-95
-400
-165
124
-180
-316
62
168
-105
14
202
7
29
322
125
8
250
78
-69
89
64
-101
18
47
-334
-316
4
-126
-331
-192
-167
-363
-229
-74
-362
-338
5
-46
144
1195
2256
2888
3060
2076
470
-88
100
109
84
88
-3
-179
-91
4
-262
-270
-65
-242
-260
-124
-153
-179
-189
0
-117
-270
-64
-201
-298
-4
99
-110
-26
114
-152
-41
228
-101
-125
247
200
41
144
339
180
101
336
360
173
356
616
342
357
601
477
393
613
496
250
406
362
110
148
50
-219
-46
110
-133
-214
-40
-102
-293
-158
-24
-274
-323
-130
-157
-244
-140
-89
-239
-279
-123
-203
-310
-89
-116
-318
-105
-43
-465
-182
120
-375
-372
61
13
-206
-49
-60
-250
-108
-103
-306
-169
75
-81
-250
-25
-54
-335
-187
-23
-186
-239
-98
-181
-310
-116
-90
-368
-205
47
-188
-213
-32
-159
-241
-99
-61
-217
-190
-25
-236
-220
-2
-219
-296
-136
-177
-267
-130
-47
-335
-333
-61
-142
-213
-36
-13
-218
-37
172
-34
-121
87
157
131
239
113
-143
68
222
-106
-77
100
-95
-373
-289
-134
-335
-213
-82
-465
-431
-62
-218
-362
-113
-168
-230
356
1200
2156
2984
2887
1647
252
-108
-16
-17
-1
-101
-113
-182
-164
-160
-308
-140
-158
-366
-136
-76
-351
-279
-79
-151
-205
-105
-146
-297
-122
53
-240
-286
-8
-79
-128
139
37
-195
15
172
0
-48
218
177
26
227
312
212
367
491
241
314
551
369
287
456
502
368
393
425
149
65
213
-29
-134
117
31
-318
-277
-53
-287
-244
52
-154
-399
-231
-109
-312
-181
-83
-385
-282
-89
-272
-403
-191
-73
-305
-243
-78
-308
-324
-38
-284
-392
-83
-180
-262
-83
-102
-274
-158
-28
-250
-352
-230
-127
-225
-259
-115
-274
-301
-78
-195
-323
-121
-138
-333
-285
-175
-283
-382
-106
-81
-372
-208
-108
-310
-176
-79
-292
-299
-144
-217
-277
-124
-195
-359
-206
-81
-278
-334
-112
-189
-313
-196
-219
-292
-135
-64
-249
-223
-99
-310
-443
0
176
-78
73
175
-41
84
349
76
-82
107
97
14
17
66
-88
-225
-147
-164
-346
-392
-256
-274
-282
-198
-291
-338
-163
-230
-311
-73
71
510
1605
2818
3236
2581
1477
310
-145
162
189
-69
-109
-103
-204
-156
-94
-275
-314
-91
-133
-312
-220
-63
-146
-191
-89
-151
-207
-23
-45
-242
-77
-46
-225
-105
-15
-163
-125
179
174
-29
136
233
30
122
314
213
209
401
413
205
383
634
439
469
742
577
409
610
419
129
445
566
181
162
251
-36
-128
-18
-106
-175
-109
-39
-276
-340
44
-90
-314
-36
-51
-318
-238
-89
-289
-288
-1
-167
-347
-157
-97
-247
-199
-22
-233
-410
-109
-77
-304
-90
-68
-272
-125
-107
-300
-223
-8
-156
-280
-160
-105
-306
-293
-59
-311
-264
43
-218
-421
-125
11
-298
-217
-37
-264
-236
-84
-208
-278
-127
-108
-312
-280
-122
-208
-237
-72
-178
-361
-144
-73
-239
-170
-93
-275
-252
-44
-154
-305
-125
-65
-219
-98
-42
-215
-212
-129
-283
-268
60
19
-159
14
61
-22
80
227
129
38
261
161
-74
49
113
27
20
4
-142
-250
-84
-159
-427
-228
-149
-438
-324
-34
-276
-360
-206
-353
-204
277
969
1979
2949
3360
2599
1209
370
107
97
170
11
-192
-148
12
-130
-268
-88
-141
-345
-258
-108
-191
-223
-50
-161
-428
-70
40
-301
-108
-9
-314
-204
173
-35
-153
128
-20
-89
97
77
18
70
198
95
98
340
318
190
357
562
360
339
655
548
377
691
687
368
513
521
221
190
330
135
-82
79
-10
-137
41
-46
-267
-155
-63
-248
-286
-54
-156
-418
-91
14
-323
-142
68
-281
-387
-88
-84
-290
-253
-96
-274
-433
-100
0
-243
-126
-125
-294
-181
-69
-162
-245
-91
-161
-271
-27
-92
-293
-161
-95
-186
-174
-134
-173
-215
-124
-124
-347
-240
-43
-211
-275
-51
-171
-352
-115
-98
-271
-236
-135
-243
-272
-101
-242
-291
-44
-130
-332
-179
-45
-199
-156
-44
-387
-444
-8
-184
-369
-56
-80
-295
-239
-67
-83
-210
5
93
-207
-23
127
-85
94
353
163
-13
187
139
-57
78
73
-235
-248
-78
-346
-428
-93
-253
-325
-102
-197
-380
-260
-70
-260
-275
12
734
1811
2880
3249
2354
1091
144
-126
16
93
31
-98
-129
-141
-229
-196
-38
-176
-355
-81
-59
-325
-18
53
-332
-160
88
-137
-203
19
-33
-199
-104
6
-108
-56
193
10
-105
172
94
-37
200
272
107
153
294
180
142
355
472
359
418
602
380
301
576
518
303
416
464
183
171
339
99
-33
95
-60
-102
32
-101
-227
-134
-106
-346
-305
55
-110
-312
-159
-201
-242
-62
11
-232
-225
-34
-228
-247
-35
-165
-296
-20
13
-288
-206
-16
-162
-268
-131
-62
-163
-68
-8
-300
-176
112
-74
-331
-189
-12
-223
-130
-24
-233
-195
-71
-167
-257
-81
-142
-403
-189
-29
-241
-171
6
-178
-255
-57
-167
-294
-64
-92
-269
-167
-10
-255
-356
24
-32
-273
-142
-88
-258
-224
-8
-179
-325
-37
-125
-299
-54
-84
-231
-36
139
17
-66
92
47
-44
270
350
11
84
170
-39
-45
103
143
-97
-134
-78
-268
-251
-143
-218
-252
-142
-173
-234
-112
-168
-274
-111
53
345
1253
2444
3069
2667
1625
529
-176
-62
297
61
-210
5
0
-253
-120
-6
-204
-260
-85
-110
-200
6
27
-188
-169
-16
-155
-210
71
5
-214
16
141
-97
-40
96
-23
47
177
18
-23
196
229
138
195
320
214
156
429
403
301
561
546
326
477
606
387
445
612
282
141
468
406
2
36
216
-122
-248
67
-5
-227
-165
-82
-257
-202
-30
-310
-309
-102
-282
-269
23
-82
-328
-190
-134
-230
-162
-69
-251
-249
58
-205
-472
-112
41
-240
-218
-16
-186
-347
-166
-37
-266
-251
5
-107
-214
-53
-134
-320
-97
-120
-365
-142
-16
-308
-248
11
-299
-431
-135
-140
-279
-124
51
-209
-376
-146
-193
-278
-69
-157
-309
-161
-117
-253
-264
-176
-257
-320
-109
-77
-293
-147
-52
-362
-286
-84
-274
-280
-50
-130
-343
-121
3
-207
-79
111
-94
-57
203
14
-102
186
286
26
-26
173
77
27
184
-38
-281
-89
-8
-274
-378
-205
-253
-309
-105
-156
-339
-211
-203
-323
-139
15
95
878
2208
3098
3136
2306
960
-28
-53
276
105
-204
-27
-21
-343
-194
-87
-300
-166
-42
-233
-239
-71
-79
-325
-301
35
-117
-221
35
-145
-313
1
-28
-301
34
176
-193
-47
212
-75
-97
254
182
-32
227
237
-58
283
552
372
361
500
475
380
494
518
328
404
554
461
297
291
325
148
105
200
65
-103
-105
-191
-170
-14
-155
-375
-101
48
-248
-229
-80
-245
-327
-123
-184
-295
-126
-64
-251
-280
-121
-153
-280
-187
-70
-178
-174
-79
-201
-215
-84
-264
-247
-3
-167
-287
-52
-46
-289
-233
-20
-158
-365
-115
-97
-387
-124
-9
-331
-323
-105
-135
-234
-74
-182
-414
-191
-92
-258
-186
-43
-215
-285
-102
-175
-415
-190
-12
-321
-213
-24
-226
-252
-21
-173
-383
-207
-175
-141
-181
-172
-199
-313
-54
-86
-300
-196
-94
-246
-293
-36
-70
-150
24
-16
-139
62
135
-57
55
277
128
1
245
209
-70
56
155
-65
-96
-4
-219
-341
-123
-253
-469
-195
-111
-319
-263
-147
-206
-265
-178
-114
182
1323
2553
3136
3044
2096
669
23
239
177
-13
18
-64
-252
-231
-32
-156
-338
-179
-209
-328
-106
20
-235
-238
-159
-367
-224
20
-122
-247
-99
-37
-221
-179
71
-39
-141
59
-20
-127
96
98
-45
164
285
136
181
381
368
154
284
509
345
427
604
364
361
564
416
304
382
270
102
105
173
11
-160
30
-1
-308
-184
-35
-237
-270
-135
-215
-312
-158
-233
-365
-139
-200
-437
-235
-46
-281
-339
-54
-157
-410
-217
-103
-391
-374
-65
-188
-285
4
-176
-401
-90
-162
-328
-133
-86
-224
-221
-69
-182
-451
-172
28
-300
-290
-152
-288
-283
-91
-168
-356
-150
-169
-426
-242
-143
-259
-262
-214
-199
-277
-149
-91
-328
-266
-108
-284
-344
-123
-134
-325
-202
-107
-307
-260
-145
-235
-202
-112
-200
-323
-226
-182
-242
-149
-66
-186
-213
-32
-159
-296
9
163
-94
-19
235
63
42
267
150
-19
100
136
-56
-16
123
-55
-226
-136
-174
-413
-262
-112
-335
-265
-129
-330
-298
-154
-247
-211
54
441
1126
2468
3398
2878
1760
599
-147
-118
187
189
-87
-94
-2
-191
-281
-114
-150
-349
-202
-87
-276
-218
-92
-255
-269
-17
-80
-273
-53
6
-233
-191
11
-8
-69
76
-60
-125
130
49
-6
53
152
269
142
199
299
247
443
367
189
397
541
504
359
446
497
309
449
451
165
260
278
56
-22
9
6
-150
-11
44
-315
-237
-77
-160
-203
-111
-60
-264
-152
10
-313
-225
147
-221
-377
-23
-177
-356
-3
5
-365
-234
6
-79
-209
-68
-20
-228
-122
-86
-267
-98
43
-222
-283
-12
-59
-367
-211
53
-140
-178
-45
-280
-326
-67
-79
-270
-258
-86
-227
-267
-35
-188
-332
-199
-215
-248
-50
-5
-234
-220
-144
-315
-352
-133
-66
-237
-129
-71
-305
-166
-114
-446
-327
-47
-159
-261
-121
-45
-194
-130
-80
-269
-228
36
8
-237
-28
216
-4
71
220
-11
-29
138
118
-14
83
122
-97
-200
-178
-282
-249
-50
-170
-365
-224
-126
-334
-323
-140
-378
-482
-9
210
700
2017
3008
2918
2099
885
-148
-253
67
97
-112
-6
30
-267
-176
26
-164
-273
-17
-54
-488
-380
41
-90
-322
-189
-35
-83
2
27
-214
-196
-15
-85
-111
81
-101
-128
200
4
-92
204
298
136
184
391
239
190
284
216
215
424
514
330
330
474
374
274
501
404
88
250
189
-112
96
217
-49
-93
47
-22
-183
-150
-95
-219
-329
-276
-207
-194
-84
-116
-305
-187
-59
-273
-209
11
-305
-416
-77
-101
-280
-137
-48
-235
-218
-63
-192
-341
-82
-11
-288
-110
53
-202
-191
-30
-211
-309
-106
-153
-318
-126
-47
-354
-294
-24
-196
-183
-32
-307
-307
-128
-191
-267
-178
-32
-203
-249
-52
-98
-420
-301
-88
-303
-125
62
-160
-237
-61
-118
-334
-212
-67
-187
-162
-21
-170
-253
-84
-164
-293
-49
-16
-230
-153
27
-97
-233
-2
-21
-107
227
236
-13
84
249
125
85
284
150
-56
135
224
-14
-86
-32
-176
-280
-225
-169
-251
-201
-96
-321
-318
-9
-129
-231
93
68
479
1973
3040
3080
2596
1512
224
-130
271
271
-45
66
70
-243
-107
81
-154
-223
-56
-83
-229
-46
47
-175
-91
-100
-193
-64
39
18
-111
0
84
-59
-17
27
-141
-94
199
166
-31
99
192
111
172
376
290
172
412
438
324
485
540
379
476
638
488
325
461
504
317
391
347
70
115
95
-191
-40
213
-19
-192
-29
19
-162
-116
-36
-174
-178
-20
-141
-296
-66
3
-197
-198
-57
-142
-197
-27
-98
-192
-97
-82
-206
-164
-41
-184
-161
18
-147
-253
16
39
-187
-191
-42
-99
-265
-63
-57
-377
-153
14
-320
-206
37
-147
-218
-95
-96
-319
-291
-94
-300
-260
-60
-243
-259
-14
-55
-261
-161
-67
-271
-189
28
-224
-324
-84
-160
-335
-87
57
-309
-326
-1
-293
-419
-69
-74
-244
-97
-69
-324
-234
-78
-226
-223
-45
-140
-222
80
206
7
69
167
24
97
247
148
-9
80
220
-17
35
205
-84
-160
-36
-201
-402
-262
-127
-243
-192
-25
-177
-285
-173
-183
-286
-14
365
775
1967
3281
3340
2365
1180
106
-122
336
335
-28
-49
40
-105
-251
-102
-18
-212
-160
-97
-280
-148
-26
-189
-143
-16
-69
-181
-97
-18
-121
-41
34
-163
-129
144
38
-135
154
205
-114
102
370
71
38
388
345
153
413
508
232
286
500
493
501
579
448
368
541
449
311
395
402
265
14
70
128
-115
-31
84
-134
-161
-31
-144
-239
-21
-98
-286
-71
-70
-329
-216
108
-98
-325
-39
-111
-357
-86
79
-163
-206
-21
-95
-186
-69
-117
-230
-103
-74
-200
-142
-61
-185
-228
-50
-54
-227
-140
-115
-354
-255
1
-156
-281
-52
-137
-317
-114
-112
-246
-162
-50
-152
-271
-118
-85
-256
-254
-121
-175
-247
-47
-139
-280
-54
-86
-279
-206
-102
-217
-202
-13
-110
-218
-3
-15
-284
-172
-70
-261
-240
-57
-73
-161
-52
-66
-201
15
117
-101
22
228
115
89
258
319
75
66
217
-20
71
284
-55
-217
2
-142
-451
-249
-53
-305
-284
-114
-243
-287
-178
-196
-204
42
385
1092
2303
3284
3147
1970
753
75
-93
152
215
-64
-72
96
-128
-335
-124
-69
-210
-163
-80
-254
-289
-53
-145
-262
10
3
-202
-130
-104
-171
-194
0
72
-54
143
76
-201
83
273
45
55
174
190
221
277
264
269
408
439
273
274
454
360
353
613
438
253
492
340
107
222
221
77
32
147
55
-163
-98
-35
-228
-186
30
-128
-223
-71
-116
-251
-148
-42
-217
-260
-39
-112
-251
-85
-84
-245
-156
-81
-349
-234
82
-183
-336
-15
59
-233
-97
51
-186
-152
-42
-161
-309
-36
34
-352
-160
28
-190
-132
-43
-212
-342
-164
-19
-201
-174
-85
-247
-166
-6
-159
-203
-121
-282
-315
-86
8
-204
-307
-118
-159
-279
-127
-129
-224
-149
-188
-278
-134
-17
-110
-225
-147
-124
-310
-182
-37
-289
-227
57
-132
-215
52
24
-141
76
148
-69
94
365
153
-91
74
96
-93
42
177
-118
-191
-43
-260
-352
-124
-197
-472
-310
-164
-307
-200
-87
-268
-266
0
205
866
2160
3031
2849
1918
673
-221
-283
149
210
-92
-101
-24
-154
-221
-61
-117
-274
-119
-214
-346
-87
-70
-299
-206
-20
-147
-250
-65
0
-196
-66
55
-218
-94
209
-13
-104
95
25
-21
190
255
40
100
327
168
133
412
349
177
363
469
299
327
461
352
249
404
354
37
164
327
17
-83
91
-78
-218
-34
-65
-242
-137
-84
-316
-220
-23
-192
-234
-58
-174
-425
-300
-188
-423
-242
50
-236
-303
-36
-34
-293
-255
10
-194
-237
118
-78
-363
-92
11
-342
-278
12
-173
-223
-13
-104
-304
-101
-16
-332
-276
-155
-332
-196
36
-114
-346
-214
-61
-268
-320
-106
-90
-178
-48
-219
-363
-121
-226
-298
-188
-191
-184
-265
-171
-182
-372
-201
-146
-334
-123
-52
-392
-267
-72
-221
-228
-82
-139
-329
-187
-93
-359
-281
90
16
-157
77
7
-134
175
220
146
237
238
0
-101
204
74
-295
-77
34
-325
-293
-51
-286
-380
-156
-262
-355
-107
-90
-353
-281
-13
-48
183
1371
2588
3013
3000
1977
337
-120
174
113
42
117
-140
-296
-65
-59
-291
-231
-48
-270
-361
-55
-68
-307
-141
2
-222
-224
-41
-95
-213
-26
-40
-299
96
207
-267
-125
197
113
50
88
44
-9
150
259
108
156
399
349
320
436
335
303
442
581
360
335
572
317
168
326
267
113
223
150
-208
-129
41
-178
-178
9
-104
-318
-267
-70
-221
-265
-9
-225
-450
-107
-76
-410
-267
-83
-264
-194
-1
-204
-409
-203
-92
-243
-89
-50
-275
-105
6
-345
-295
16
-147
-347
-156
9
-272
-286
-73
-213
-282
-145
-197
-372
-186
-95
-396
-287
-22
-182
-262
-121
-178
-341
-173
-92
-280
-288
-95
-141
-278
-117
-153
-342
-137
-110
-326
-175
-128
-306
-251
-53
-95
-306
-158
-60
-318
-288
-130
-213
-295
-149
-116
-281
-165
-79
-224
-223
-88
-208
-274
93
47
-160
45
61
31
195
291
173
-41
-39
141
127
93
130
-105
-203
-16
-143
-407
-255
-197
-431
-235
52
-321
-440
-70
-146
-317
-196
-21
522
1670
2879
3281
2776
1777
335
-189
296
268
-51
-75
49
-257
-298
1
-261
-281
35
-21
-257
-166
-72
-179
-183
-174
-203
-166
55
-1
-226
-11
61
-65
-127
-244
3
127
130
152
-21
156
271
73
203
157
-27
326
465
341
341
471
546
416
341
473
534
336
450
491
227
404
463
90
30
89
-8
-76
-9
-38
-268
-145
-7
-206
-263
-148
-282
-371
8
3
-377
-176
3
-246
-231
-113
-274
-331
-176
-235
-357
-85
-9
-293
-162
19
-190
-229
-166
-216
-175
-172
-153
-264
-241
6
-190
-309
-88
-186
-277
-113
-150
-267
-341
-159
-123
-341
-147
-150
-343
-99
-57
-416
-366
-81
-273
-355
-31
-102
-271
-209
-151
-232
-217
-105
-340
-339
-5
-128
-352
-147
-60
-265
-246
-42
-123
-401
-223
-49
-373
-173
54
-273
-245
-64
-160
-267
-137
-115
-234
-119
-132
-274
-105
68
-105
-99
111
93
-5
75
192
183
209
247
125
-161
63
315
13
68
75
-269
-261
-131
-283
-244
-7
-243
-395
-123
-53
-250
-164
-79
-247
-118
566
1708
2643
3231
3082
1662
330
-2
-85
20
273
126
-129
-156
-134
-81
-265
-256
25
-121
-102
-17
-163
-61
-52
-306
-207
32
-119
-184
-18
21
-77
37
173
-76
-206
79
128
-46
119
181
47
246
393
183
160
276
188
255
502
472
357
479
550
309
283
493
399
327
361
296
204
178
153
57
-30
72
-126
-329
42
76
-252
-173
-31
-173
-206
-148
-201
-188
-82
-239
-355
-180
-46
-116
-174
-40
-85
-210
-82
-101
-372
-214
-7
-209
-84
113
-69
-147
15
-163
-463
-147
11
-191
-95
4
-142
-193
-132
-161
-135
-66
-42
-184
-190
-84
-183
-212
-220
-188
-191
-112
-35
-271
-155
-76
-487
-279
62
-120
-177
-90
-38
-183
-220
-97
-225
-333
-166
-112
-174
-124
-97
-212
-314
-128
-161
-245
-28
-248
-371
-10
-14
-351
-232
72
-128
-185
84
79
-107
-15
127
3
136
321
91
-13
146
-8
-115
66
39
-116
-169
-70
-282
-425
-75
-206
-442
-177
-209
-408
-156
22
-260
-284
89
640
1613
2757
3195
2333
926
136
-221
-260
131
20
-340
-98
-36
-234
-14
60
-168
-274
-45
-139
-514
-72
114
-242
-114
81
-173
-242
30
-35
-94
7
-57
-167
-17
245
121
-53
146
12
-154
273
344
121
244
354
224
197
495
477
178
388
492
328
460
553
400
326
453
382
111
118
253
4
-90
42
-109
-162
-74
-66
-212
-263
-83
-252
-227
-58
-330
-284
-43
-170
-363
-175
-40
-256
-291
-124
-279
-340
-108
-144
-258
-229
-98
-179
-263
-64
-92
-168
-98
-118
-270
-169
-7
-171
-203
-69
-197
-320
-65
-44
-342
-309
-126
-221
-231
-98
-147
-246
-270
-184
-129
-90
-85
-286
-243
-54
-235
-293
-75
-168
-347
-245
-168
-284
-227
-108
-281
-343
-75
-73
-347
-88
26
-334
-249
-9
-170
-300
-50
1
-299
-312
-65
-238
-288
75
-166
-397
-61
-118
-356
-67
135
-68
-53
178
89
-176
94
388
110
192
340
-49
-31
226
149
42
82
42
-328
-315
-39
-307
-303
-6
-223
-349
-126
-93
-232
-157
-66
-236
39
898
1802
2873
3445
2544
1086
302
91
13
153
222
-121
-295
-133
-229
-246
-64
-48
-132
-165
5
-134
-332
-48
-61
-265
-7
81
-321
-263
159
-125
-261
47
-4
-92
-3
188
69
-46
267
107
-39
280
248
85
297
447
301
438
514
180
250
533
601
637
691
625
379
465
567
344
243
335
135
-159
20
139
-54
-113
-24
-64
-194
-117
-194
-357
-70
-20
-329
-296
-28
-102
-270
-109
-93
-359
-210
-6
-343
-172
90
-234
-229
-66
-156
-202
-30
-94
-277
-107
-43
-191
-179
-84
-184
-255
-19
32
-254
-284
-56
-104
-284
-85
-97
-306
-113
-23
-307
-232
67
-210
-332
-41
-123
-296
-124
-129
-380
-194
24
-283
-273
-118
-237
-175
-92
-80
-216
-235
-43
-245
-367
-166
-189
-229
-21
15
-246
-280
-77
-165
-240
-53
-214
-325
-8
-10
-302
-115
31
-211
-271
-14
-13
-287
-2
187
58
192
297
69
-31
349
301
21
201
230
3
22
232
-83
-380
2
-55
-327
-167
-144
-342
-270
-36
-223
-438
-146
-60
-276
-53
321
966
2145
3174
3285
2414
1177
237
48
176
109
-35
10
39
-214
-279
-149
-52
-136
-166
-90
-244
-216
-28
-158
-406
-96
100
-189
-158
24
-70
-97
130
-29
-208
66
19
-162
113
231
22
85
333
195
90
362
369
186
290
482
333
412
708
490
408
622
518
440
593
516
330
388
336
118
122
212
22
-168
-27
46
-164
-129
43
-185
-301
-127
-113
-159
-185
-145
-207
-188
52
-184
-338
-90
-167
-319
-91
-141
-332
-172
-35
-86
-272
-97
-38
-261
-190
-121
-133
-137
-69
-179
-364
-131
-8
-181
-155
-143
-253
-168
-109
-218
-197
-44
-75
-306
-246
-90
-306
-315
-109
-246
-254
-69
-68
-215
-286
-166
-272
-356
-85
-104
-331
-188
-54
-159
-127
-123
-367
-240
-12
-200
-225
-115
-153
-309
-223
-44
-317
-389
-19
-144
-328
59
-22
-348
-101
68
-259
-332
12
50
-65
90
158
0
97
274
117
64
207
52
-56
172
147
-164
-86
15
-277
-316
-118
-289
-333
-128
-290
-320
-101
-129
-314
-221
-39
-56
520
1825
2833
2989
2566
1435
24
-194
162
62
-41
80
-43
-258
-61
-85
-324
-264
-62
-128
-201
-36
-116
-156
-29
-87
-299
-205
87
-49
-262
-114
48
-86
-20
131
-121
-77
123
-12
24
226
200
44
184
366
250
101
321
447
215
418
503
317
560
442
184
337
569
531
149
325
367
83
239
200
-122
-161
84
9
-247
-136
-68
-228
-174
-74
-255
-261
-59
-236
-275
-9
-232
-343
-74
-104
-201
-162
-183
-272
-215
-12
-87
-270
-74
-8
-259
-181
21
-106
-209
-92
-205
-314
38
81
-230
-146
-40
-349
-310
42
-104
-299
-119
-93
-275
-182
-82
-292
-270
-43
-138
-325
-188
-34
-317
-359
-32
-215
-426
-153
-129
-354
-229
-37
-186
-260
-77
-220
-328
-20
-43
-281
-215
-132
-296
-244
1
-236
-396
-104
-51
-237
-143
-57
-235
-171
-56
-75
-14
63
-24
-93
179
274
100
106
159
32
-22
120
74
-96
-92
1
-214
-410
-226
-238
-327
-148
-152
-345
-238
-177
-281
-250
-176
-189
161
1239
2223
2722
2881
2034
478
-185
80
159
-118
-124
-26
-281
-286
-51
-215
-202
-56
-254
-300
-96
-113
-355
-130
0
-274
-177
-71
-231
-229
-31
-20
-133
-43
82
-150
-161
198
-74
-156
295
151
-74
175
273
160
228
378
344
245
385
462
337
505
690
338
255
546
525
480
423
286
143
128
167
-62
-51
151
-159
-354
9
-63
-396
-132
-50
-310
-222
-132
-178
-341
-276
-122
-252
-140
-129
-360
-225
-51
-247
-391
-113
-142
-466
-103
90
-303
-293
-77
-143
-143
-9
-181
-346
-101
-95
-289
-204
-17
-180
-359
-56
-81
-366
-144
-105
-388
-226
-95
-262
-252
-48
-102
-344
-122
-51
-430
-307
10
-230
-363
-74
-169
-360
-122
-55
-327
-281
-105
-385
-426
-77
-122
-370
-140
32
-194
-158
-126
-269
-251
-104
-194
-440
-149
20
-335
-262
-22
-211
-314
-75
-44
-179
38
122
-102
34
178
19
-82
191
246
-128
61
229
-73
-37
92
-120
-241
-246
-367
-494
-209
-13
-337
-280
-109
-298
-329
-216
-199
-330
-30
945
1748
2671
3408
2700
1202
350
97
-52
104
105
-165
-143
9
-152
-293
-51
-106
-426
-281
-89
-255
-276
-2
-118
-344
-86
-66
-311
-183
38
-108
-246
-61
-61
-143
10
15
-89
10
131
-73
-79
265
166
38
282
379
198
262
468
291
339
636
453
328
631
579
423
547
514
220
127
334
105
-73
64
9
-147
-101
-30
-255
-285
-113
-181
-325
-172
-106
-331
-282
-139
-358
-294
-27
-233
-327
-208
-295
-308
-147
-114
-256
-370
-202
-190
-336
-157
-120
-265
-183
-102
-248
-281
-116
-241
-352
-109
-120
-370
-288
-9
-197
-300
-38
-182
-345
-114
-143
-507
-306
-62
-325
-249
-11
-192
-466
-242
-100
-402
-311
-90
-233
-295
-204
-282
-304
-79
-153
-354
-164
-106
-296
-326
-163
-206
-433
-247
-90
-261
-154
-50
-379
-324
44
-207
-354
-6
-76
-390
-200
6
-263
-300
-67
-176
-166
-3
-51
-94
62
171
-11
78
293
144
59
174
162
-2
79
152
-80
-24
25
-181
-280
-181
-153
-362
-293
-125
-237
-323
-251
-268
-286
-60
-17
-18
950
2289
3006
3279
2755
1235
154
270
226
-100
47
95
-161
-193
-104
-234
-301
-34
-11
-310
-219
-27
-172
-196
-33
-99
-216
-86
-72
-211
-37
48
-176
-116
3
-82
-73
94
77
-125
111
352
70
10
348
334
170
316
363
312
475
559
469
532
635
358
246
717
769
455
503
514
246
155
244
116
34
158
29
-192
-58
-38
-364
-231
63
-162
-230
-48
-156
-248
-78
-67
-211
-185
-81
-162
-295
-141
-104
-261
-86
24
-242
-260
52
-84
-301
-98
-152
-227
-51
4
-179
-223
-21
-117
-171
3
-96
-334
-188
4
-265
-199
43
-268
-288
-113
-220
-207
-56
-52
-277
-366
-39
-63
-243
2
-123
-319
-61
-11
-208
-145
-11
-146
-317
-124
-112
-309
-122
10
-183
-272
-47
-146
-316
-78
-127
-283
-128
-100
-179
-95
-11
-98
-243
-106
-46
-178
6
60
-126
21
175
-27
6
332
204
92
276
260
58
88
299
49
-60
169
-45
-310
-172
-100
-284
-246
-46
-250
-333
-102
-148
-239
-124
-39
-126
128
1037
2035
2886
3285
2449
813
27
103
18
0
76
-51
-133
-23
-37
-178
-75
-51
-366
-196
18
-315
-178
117
-21
-143
-15
78
-151
-160
36
-106
-143
-14
-14
-184
31
319
-17
44
232
8
83
322
226
87
303
384
143
254
513
376
372
587
515
365
505
524
313
385
462
264
137
234
149
-75
11
37
-251
-239
33
-99
-274
-34
-111
-436
-153
-5
-398
-329
37
-164
-343
-127
-139
-284
-145
-94
-333
-219
-4
-221
-333
-91
-101
-253
-84
-133
-276
-130
19
-206
-289
-46
-181
-271
-68
-32
-194
-220
-169
-242
-225
-194
-320
-261
-117
-110
-267
-256
7
-170
-408
-151
-108
-326
-125
-86
-394
-258
-50
-261
-355
-74
-55
-362
-230
8
-252
-309
-133
-277
-303
-77
-129
-211
-45
-119
-328
-193
-30
-238
-298
-97
-96
-267
-307
-66
-117
-183
120
9
-130
125
113
-27
232
302
-42
-8
227
-4
-67
132
-102
-241
-29
-19
-267
-279
-108
-276
-407
-194
-117
-247
-196
-170
-417
-363
59
376
1109
2377
3067
2755
1788
541
-127
20
244
66
-187
-37
-24
-261
-122
-133
-378
-126
9
-257
-262
-91
-96
-249
-136
53
-179
-190
-19
-146
-159
-35
-57
-182
-23
167
-76
-119
135
-25
-8
235
78
68
253
305
206
203
447
378
95
419
624
349
395
640
506
365
560
371
136
227
156
16
131
174
-148
-141
10
-220
-275
-43
-83
-319
-227
-185
-377
-258
-93
-268
-382
-219
-205
-373
-177
-97
-466
-291
64
-223
-372
-109
-101
-416
-277
-83
-356
-242
9
-160
-397
-176
-24
-374
-199
31
-324
-244
29
-291
-422
-25
6
-408
-324
-41
-324
-247
-52
-322
-299
-117
-202
-347
-247
-154
-281
-257
-101
-235
-308
-122
-127
-299
-219
-137
-303
-202
-122
-269
-218
-133
-227
-301
-235
-156
-345
-368
-65
-176
-315
-105
-138
-324
-192
-241
-458
-213
-3
-186
-214
-18
9
-74
-41
51
-42
-35
153
98
37
132
88
-87
71
204
-183
-202
-13
-294
-354
-105
-194
-344
-240
-194
-313
-318
-167
-322
-382
-107
-163
-72
1016
2249
2925
3151
2533
1037
-49
74
252
14
32
-21
-203
-131
-248
-274
-224
-179
-42
-261
-234
-107
-339
-244
53
-141
-332
-124
-135
-331
-95
-3
-236
-108
10
-181
-207
48
52
-128
38
205
-28
15
312
139
-12
297
266
89
423
578
391
452
643
483
293
516
543
267
400
500
210
217
312
-64
-118
131
-35
-211
-91
-86
-339
-307
-62
-197
-263
-150
-345
-322
-57
-99
-331
-254
-108
-308
-323
-59
-200
-411
-136
-97
-363
-267
-162
-303
-258
-113
-167
-285
-149
-70
-263
-175
-130
-387
-289
-8
-166
-447
-169
-45
-362
-236
-14
-283
-411
-57
2
-430
-336
9
-287
-301
-67
-277
-297
-61
-161
-453
-191
-40
-323
-175
-132
-371
-254
-102
-187
-258
-169
-105
-308
-240
3
-257
-402
-108
-123
-345
-156
-102
-441
-221
77
-228
-226
-15
-248
-329
-6
-17
-203
-143
-36
91
152
196
90
-42
261
350
-20
-83
47
-10
14
165
17
-238
-141
-83
-344
-302
-65
-293
-437
-215
-237
-374
-133
-37
-372
-220
117
497
1772
3151
3433
2684
1437
386
31
166
277
31
-107
-63
-247
-230
-15
-105
-288
-191
-27
-199
-310
-53
-53
-324
-152
-22
-292
-152
-5
-188
-124
29
-83
-94
99
-17
-131
76
198
40
-10
165
197
105
265
329
63
201
511
405
381
576
474
330
562
690
320
298
524
435
460
509
274
-46
98
235
-33
-64
68
-172
-267
54
-32
-335
-138
2
-269
-193
16
-249
-325
-15
-120
-319
-138
-122
-257
-169
-59
-299
-290
-5
-141
-273
-111
-96
-278
-163
13
-165
-323
-93
-111
-300
-23
31
-275
-272
-7
-203
-389
-10
-69
-330
-92
-26
-201
-208
-114
-168
-256
-159
-125
-196
-124
-93
-252
-212
-49
-229
-271
-67
-212
-278
-150
-203
-223
-138
-57
-138
-218
-54
-102
-259
-72
-10
-339
-249
21
-196
-259
-62
-78
-254
-164
-20
-184
-172
125
72
-166
13
165
98
150
64
34
170
228
106
35
257
107
-183
-2
-123
-421
-190
-2
-277
-430
-221
-215
-348
-152
-3
-346
-297
42
67
919
2272
2917
2833
2200
882
-198
-126
170
14
-45
140
-22
-336
-185
-42
-244
-180
0
-177
-344
-92
-31
-257
-108
0
-228
-137
127
-110
-289
13
23
-173
-69
49
9
38
111
12
-46
146
191
23
219
342
167
210
351
343
233
415
495
311
465
558
369
362
504
303
127
337
177
-17
224
122
-227
-92
28
-176
-229
-131
-142
-307
-207
-89
-185
-187
-255
-253
-184
-167
-188
-321
-153
-109
-407
-215
4
-243
-281
-36
-185
-332
-75
-103
-304
-239
-91
-154
-241
-91
-152
-351
-160
-50
-270
-217
-2
-189
-329
-121
-120
-349
-250
-54
-248
-217
-59
-235
-277
-154
-196
-302
-162
50
-247
-455
-142
-208
-328
-126
-179
-322
-180
-81
-285
-256
-48
-210
-308
-155
-274
-351
-103
-74
-307
-281
-73
-215
-258
-31
-167
-302
-103
-67
-232
-122
55
-191
-126
198
26
-30
155
128
10
56
177
13
-96
135
14
-232
-32
-100
-401
-286
-152
-252
-298
-152
-230
-509
-234
-10
-310
-203
74
407
1455
2639
3099
2549
1366
367
-60
-14
216
57
-204
-26
20
-231
-127
-13
-323
-249
-29
-282
-338
-13
-83
-361
-131
-2
-258
-127
53
-111
-175
2
35
-231
-76
137
-88
7
142
-33
64
273
119
-21
284
357
106
155
379
400
328
507
562
329
354
585
496
382
490
413
316
382
240
61
150
154
-96
-70
-16
-314
-243
15
-135
-283
-80
-66
-347
-272
-43
-192
-351
-109
-171
-396
-115
-90
-310
-169
-42
-170
-221
-100
-182
-198
-40
-148
-239
-111
7
-231
-343
-77
-158
-230
3
-23
-259
-186
-35
-217
-244
-144
-201
-204
-82
-65
-251
-230
-103
-270
-258
-11
-176
-283
-148
-239
-346
-187
-76
-265
-299
-71
-232
-376
-19
-15
-274
-243
-56
-130
-250
-69
-167
-340
-92
-40
-290
-188
-22
-258
-282
-51
-193
-321
-107
-111
-325
-180
-21
-198
-164
93
6
-171
82
142
-90
113
394
145
-74
260
279
-27
118
236
-5
-4
97
-173
-292
-184
-259
-260
-227
-185
-215
-225
-87
-281
-360
11
-14
-185
424
1406
2375
3313
3278
2055
728
70
71
87
21
95
-53
-87
36
-192
-247
-6
-160
-397
-124
-45
-284
-137
15
-191
-133
63
-112
-259
-17
-13
-270
-73
105
-130
-208
103
111
-126
84
240
21
99
307
146
118
398
377
108
359
547
323
393
533
414
422
690
560
349
492
453
121
156
400
149
35
114
-90
-230
-55
-74
-300
-107
56
-230
-278
-88
-232
-315
-125
-141
-351
-227
-77
-274
-325
-128
-155
-312
-201
-92
-287
-351
-80
-125
-260
-93
-197
-293
-127
-88
-182
-231
-157
-229
-239
-109
-216
-232
-16
-63
-365
-299
-77
-283
-303
-59
-173
-286
-138
-161
-317
-194
-86
-260
-320
-170
-226
-290
-164
-164
-289
-342
-156
-137
-233
-69
-166
-320
-117
-146
-401
-227
-1
-170
-214
-109
-210
-298
-135
-95
-233
-212
-193
-226
-248
-79
-54
-350
-238
-63
-148
36
165
-69
-84
210
155
-46
202
323
29
103
215
42
58
49
-105
-184
-43
-62
-242
-211
-153
-298
-315
-148
-212
-310
-269
-177
-164
-139
-46
212
1215
2602
3365
3225
2258
845
-32
73
322
26
-90
87
-56
-240
-91
-49
-293
-231
-75
-201
-222
-79
-159
-316
-139
-1
-252
-146
109
-167
-195
28
-101
-169
24
105
-70
-63
116
-1
-60
226
193
-33
278
302
0
299
562
376
357
580
516
311
418
585
464
448
638
448
262
415
255
53
200
104
-138
-8
83
-144
-179
-81
-232
-238
-59
-164
-358
-205
4
-189
-306
-55
-118
-329
-90
-71
-363
-169
4
-204
-207
-32
-252
-357
-13
-22
-254
-166
-16
-194
-254
-40
-51
-233
-104
5
-309
-228
57
-264
-286
93
-97
-319
-40
-19
-319
-249
-87
-147
-227
-157
-193
-274
-46
-62
-275
-175
-41
-118
-274
-172
-125
-299
-101
6
-282
-261
-35
-201
-301
17
-5
-221
-155
-157
-305
-192
-23
-151
-178
16
-91
-278
-80
-61
-264
-128
50
-101
-103
103
28
-45
161
236
98
107
254
95
24
348
151
-153
113
99
-198
-84
-15
-268
-305
-129
-152
-332
-182
-111
-362
-195
-68
-276
-127
184
808
1975
3079
3348
2353
962
85
-176
50
218
18
-155
-9
-32
-251
-168
-34
-190
-248
-5
-90
-266
-82
-24
-341
-267
88
-90
-145
52
-81
-191
-47
23
-89
-55
109
22
-48
123
79
12
290
221
-23
169
256
239
340
381
307
278
463
544
379
434
602
398
360
522
297
189
330
183
-2
72
117
-130
-183
62
-125
-265
17
-20
-260
-169
-37
-191
-249
-71
-106
-244
-70
-67
-361
-212
-51
-189
-111
12
-114
-183
-21
-2
-255
-262
18
-108
-252
-40
-65
-199
-96
-32
-187
-160
-56
-236
-181
-46
-301
-286
15
-70
-228
-112
18
-142
-240
-19
-88
-333
-209
-168
-293
-173
-16
-243
-345
-102
-233
-302
-78
-80
-221
-177
-54
-273
-343
-3
-93
-291
-80
-81
-336
-183
-20
-259
-272
-55
-88
-228
-140
-189
-399
-133
73
-185
-168
31
22
-1
86
173
104
108
258
107
3
204
94
-66
108
43
-246
-203
-46
-307
-360
-44
-203
-445
-149
-111
-530
-316
-27
-307
-252
245
739
1629
2897
3264
2333
1043
131
-270
-32
269
-26
-227
-13
-26
-249
-134
-150
-448
-317
5
-77
-262
-111
-57
-265
-144
26
-244
-265
37
-84
-259
-90
-1
-112
8
136
-35
-65
111
-10
-73
287
237
1
160
336
228
166
421
416
308
542
455
139
416
619
247
306
619
312
89
329
239
-38
51
120
-92
-138
-21
-135
-303
-136
-111
-408
-265
-89
-304
-253
-92
-244
-336
-177
-117
-247
-232
-136
-199
-312
-220
-163
-306
-153
-67
-291
-190
-36
-245
-288
-122
-208
-342
-186
-93
-259
-186
-65
-276
-298
13
-143
-463
-156
-92
-389
-191
-35
-322
-294
-42
-260
-383
-105
-110
-360
-323
-56
-177
-287
-90
-258
-374
-164
-163
-271
-152
-153
-350
-263
-71
-166
-357
-231
-82
-246
-231
-63
-154
-178
-57
-201
-271
-102
-152
-248
-193
-178
-238
-168
1
-115
-174
97
102
-59
82
181
3
-4
212
161
5
123
204
75
-21
-23
-98
-231
-164
-214
-367
-198
-185
-326
-209
-149
-303
-287
-134
-226
-274
234
1122
2137
3121
3270
2248
831
210
168
22
52
-66
-175
3
37
-223
-287
-72
-214
-365
-134
-80
-267
-184
-21
-170
-246
-80
-140
-259
-83
-97
-253
-84
0
-187
-118
166
74
-63
157
176
-35
93
243
72
82
308
301
287
467
424
254
431
631
403
339
618
477
278
484
386
164
287
302
72
-30
95
0
-178
-57
-46
-322
-265
-56
-251
-203
-57
-306
-277
-21
-105
-362
-285
-19
-236
-404
-45
-110
-272
11
-93
-360
-250
-85
-189
-242
-32
-172
-359
-85
-69
-273
-140
-88
-253
-213
-49
-259
-360
-33
-89
-378
-213
-69
-255
-135
-34
-261
-315
-160
-171
-311
-222
-190
-287
-193
-80
-246
-317
-136
-147
-332
-227
-33
-323
-376
-55
-192
-359
-82
-118
-383
-170
-88
-284
-225
-153
-246
-230
-98
-96
-246
-212
-107
-333
-295
-19
-154
-228
-65
43
-122
-94
119
-75
-73
154
130
96
248
207
-158
-79
261
49
3
105
-170
-295
-157
-138
-325
-223
-187
-492
-305
-59
-295
-325
-139
-195
-256
1
674
1606
2779
3497
2814
1562
559
44
7
210
233
-69
-191
-107
-164
-271
-114
-136
-358
-191
-29
-281
-374
-88
-109
-346
-99
-1
-269
-96
64
-270
-277
76
47
-88
38
59
-161
-57
150
14
63
185
86
101
310
288
66
245
583
412
373
615
381
276
514
376
242
482
514
280
191
274
150
-54
66
35
-174
-48
21
-237
-233
-58
-218
-283
-58
-148
-340
-171
-98
-247
-185
-53
-224
-259
-64
-218
-334
-82
-60
-236
-215
-70
-150
-244
-60
-73
-178
-147
-170
-163
-145
-69
-79
-208
-59
-42
-270
-86
8
-254
-171
-2
-205
-313
-38
-61
-303
-143
-38
-267
-297
-99
-151
-257
-101
-115
-273
-73
-21
-327
-259
-31
-221
-296
-34
-37
-255
-240
-112
-133
-141
-132
-245
-262
-67
-112
-292
-73
-37
-300
-223
-58
-226
-276
-25
-101
-274
32
168
-60
45
193
47
66
266
206
1
46
124
12
111
173
-140
-239
-96
-159
-311
-177
-129
-326
-267
-112
-146
-322
-243
-78
-217
-129
298
1017
2208
3259
3178
1939
653
0
-180
94
231
-100
-108
89
-81
-240
-122
-162
-217
-68
-74
-258
-188
-15
-154
-188
-13
-50
-167
-73
-31
-207
-116
99
1
-66
142
66
-175
68
184
4
26
249
269
129
358
347
101
318
470
366
434
479
355
342
515
513
339
501
521
213
247
367
119
-5
191
82
-156
17
40
-209
-119
6
-163
-254
-68
-83
-333
-191
-34
-266
-210
-35
-303
-364
-11
-165
-448
49
169
-324
-266
26
-130
-343
-60
-6
-269
-71
72
-189
-217
-2
-206
-376
-81
-90
-280
-57
-9
-267
-214
-128
-295
-243
-81
-175
-253
-143
-52
-269
-363
-95
-147
-305
-180
-156
-374
-333
-16
-191
-280
-90
-188
-336
-192
-117
-342
-213
-113
-242
-199
-128
-251
-383
-154
-105
-309
-210
-83
-270
-251
1
-153
-173
94
57
-179
-84
188
74
141
349
96
-52
178
84
-165
75
73
-336
-266
-19
-280
-438
-121
-179
-468
-228
-63
-295
-216
-72
-257
-214
297
1120
2038
2977
3188
2066
735
137
-81
-24
194
-36
-287
-5
100
-276
-338
-75
-194
-280
-47
-176
-300
-71
-17
-199
-146
10
-182
-236
-10
-96
-306
-27
82
-165
-39
147
-64
-147
124
71
-84
110
221
110
233
429
261
218
471
382
334
511
492
320
369
621
426
273
511
366
125
309
322
50
23
98
-176
-282
89
5
-326
-123
-37
-192
-171
-79
-208
-329
-88
-87
-329
-85
-10
-329
-200
9
-152
-284
-113
-141
-377
-151
82
-213
-188
65
-271
-337
52
-40
-278
-107
15
-174
-146
26
-174
-281
-53
-122
-430
-207
23
-228
-145
4
-167
-174
-167
-331
-250
14
-29
-264
-216
-46
-204
-255
-12
-170
-439
-246
-19
-148
-236
-41
-79
-257
-112
-135
-357
-109
1
-254
-158
-1
-268
-228
-28
-242
-236
-100
-93
-242
-278
-29
-21
-104
49
32
-121
68
215
36
148
386
130
-69
163
120
-47
185
168
-206
-164
4
-255
-279
-128
-263
-232
-30
-117
-451
-302
2
-283
-284
78
211
926
2365
3265
3153
2352
1008
8
-8
271
156
-77
-20
65
-167
-167
19
-214
-335
-65
-145
-373
-89
-25
-285
-129
68
-247
-253
-7
-89
-105
6
24
-120
-75
35
-62
15
108
-13
-7
115
174
108
165
386
210
115
482
422
230
566
550
259
451
607
475
408
500
413
302
454
350
74
133
190
-127
-110
148
-146
-326
-73
-32
-279
-215
11
-128
-214
-83
-168
-293
-90
-63
-394
-263
-21
-204
-172
-70
-116
-220
-249
-177
-234
-176
-74
-164
-249
-30
24
-330
-116
90
-301
-236
-91
-222
-176
-44
-117
-293
-44
-10
-434
-217
51
-270
-260
-50
-168
-268
-117
-101
-232
-216
-174
-274
-197
7
-174
-305
-98
-100
-309
-292
-54
-91
-268
-76
-129
-291
-84
-119
-260
-162
-103
-265
-205
-25
-235
-269
-42
-79
-265
-186
-25
-243
-270
16
-25
-52
142
102
-117
92
320
20
65
309
136
33
65
55
-16
122
148
-254
-226
-3
-338
-341
71
-105
-351
-208
-164
-270
-258
-146
-156
-192
17
668
1725
2974
3572
2804
1486
437
-51
77
282
225
-87
-125
41
-188
-220
18
-160
-284
-139
-219
-193
-35
-123
-262
-188
-53
-152
-260
-71
5
-194
-126
2
-117
-75
24
-35
-53
114
99
-80
148
335
94
84
391
296
160
400
420
204
348
577
344
394
680
420
339
542
374
129
230
346
64
28
175
-43
-154
-53
-78
-316
-197
70
-253
-286
18
-146
-288
-139
-129
-264
-190
-139
-383
-203
148
-186
-404
-64
-91
-362
-125
0
-327
-225
64
-164
-270
-103
-128
-347
-186
152
-162
-244
-10
-162
-216
-109
-151
-227
-126
-105
-159
-119
-70
-118
-325
-168
28
-322
-312
1
-140
-248
-73
-193
-323
-59
-58
-290
-208
-109
-213
-261
-120
-56
-179
-58
-97
-322
-139
15
-221
-314
-59
-32
-245
-177
-102
-267
-118
91
-93
-164
42
-1
-106
43
-6
4
294
290
59
96
220
50
-37
223
140
-122
3
41
-168
-168
-86
-299
-295
-130
-241
-230
-210
-170
-281
-310
113
46
391
1783
2734
2997
2728
1460
60
-135
156
46
-18
99
-12
-156
-31
-163
-361
-82
18
-302
-262
107
-10
-225
-158
-200
-113
13
-14
-127
-245
17
126
-131
-49
23
-159
-93
228
42
-163
336
263
-102
251
308
46
281
370
209
370
544
420
354
498
452
270
255
520
515
188
355
409
-28
26
216
-145
-126
77
-152
-177
-53
-159
-247
-103
-58
-323
-302
-39
-240
-391
-88
-58
-356
-217
-86
-276
-167
-84
-165
-127
-109
-192
-277
-83
-9
-272
-270
-3
-133
-396
-101
-45
-238
-92
-137
-324
-195
-91
-223
-272
-102
-108
-297
-150
-94
-319
-237
-33
-286
-439
-62
-62
-342
-189
-71
-263
-366
-174
-150
-370
-198
-233
-396
-114
-67
-212
-151
-204
-410
-259
-48
-241
-331
-100
-115
-328
-317
-210
-282
-223
-65
-186
-307
-238
-164
-199
-107
24
-35
-74
123
71
-269
105
352
-4
45
172
-10
-14
176
-30
-289
-157
-178
-353
-257
-173
-278
-331
-264
-306
-323
-115
-179
-338
-105
178
523
1541
2782
3125
2527
1287
132
-190
74
258
-56
-195
99
-90
-402
-154
-58
-254
-120
-51
-377
-261
87
-186
-416
-101
47
-262
-210
72
-150
-167
112
-39
-146
71
-35
-195
122
268
-40
-31
222
92
43
318
303
101
368
542
262
340
511
430
401
462
456
391
547
506
287
319
445
314
-14
36
140
-141
-196
-36
-167
-213
-12
-107
-301
-136
-112
-382
-286
-46
-169
-270
-124
-277
-372
17
6
-390
-268
-4
-242
-252
-40
-104
-209
-125
-164
-412
-163
6
-269
-148
36
-185
-256
-81
-148
-362
-134
56
-249
-240
-84
-233
-310
-113
-17
-282
-275
-59
-289
-345
-34
-158
-484
-238
-22
-226
-177
-90
-206
-252
-161
-184
-268
-173
-151
-306
-197
-30
-227
-239
-23
-177
-348
-163
-235
-334
-67
30
-114
-262
-259
-166
-178
-88
-111
-299
-129
5
-163
-68
136
-30
-135
185
190
-22
232
309
12
-16
179
66
-222
-39
80
-231
-165
-53
-383
-373
-18
-257
-425
-78
-153
-367
-247
-160
-252
-196
382
1233
2303
3298
3191
2056
755
-22
-113
133
253
23
-152
-35
-57
-279
-217
-43
-269
-333
-39
-148
-295
-104
-105
-190
-153
-110
-198
-201
39
-133
-260
-101
-160
-145
2
129
-11
-100
119
49
-88
155
292
139
205
341
181
284
520
327
343
672
507
331
525
513
441
492
636
391
140
412
321
-34
44
147
-132
-186
-34
-240
-258
27
-23
-289
-208
-15
-266
-303
-41
-255
-389
-65
-128
-381
-209
-68
-286
-344
-85
-205
-320
-47
-77
-266
-171
-125
-230
-245
-131
-111
-185
-70
-106
-270
-122
-57
-288
-321
-112
-118
-187
-55
-181
-298
-48
-78
-334
-181
18
-211
-299
-128
-199
-332
-199
4
-179
-260
-27
-239
-374
-104
-178
-288
-177
-163
-174
-190
-92
-213
-409
-194
-61
-184
-87
-61
-355
-227
-72
-305
-149
35
-121
-223
-83
-117
-433
-232
-106
-322
-181
15
-119
-272
-6
156
-117
-44
133
-40
-49
194
271
131
213
235
10
88
157
-18
-5
-195
-283
-51
-122
-231
-248
-195
-155
-315
-379
-123
-185
-570
-227
90
-206
323
1545
2505
3242
3200
2011
539
73
299
122
79
161
-144
-285
-133
-95
-217
-108
-53
-385
-235
85
-280
-345
19
-135
-388
-178
58
-111
-176
112
-46
-210
62
-35
-267
21
179
-112
-34
205
-16
-53
306
180
30
376
342
141
408
564
394
429
567
380
285
621
630
369
480
532
288
182
237
112
-49
21
26
-123
-110
-50
-197
-209
-75
-174
-266
-66
-86
-432
-251
65
-175
-268
-176
-212
-202
-113
-127
-291
-106
33
-203
-245
-68
-148
-308
-76
18
-244
-222
-74
-207
-234
-4
-100
-369
-26
80
-347
-136
136
-160
-218
-23
-60
-189
-117
-100
-249
-147
-165
-291
-106
13
-160
-261
-100
-110
-275
-156
-44
-151
-204
-164
-220
-219
-85
-102
-204
-134
-9
-159
-198
-37
-168
-317
-76
-53
-333
-168
8
-116
-201
-250
-250
-213
-41
-65
-262
-85
87
-108
-131
62
-92
-44
173
64
119
259
254
52
-59
105
168
64
93
41
-304
-243
11
-264
-325
5
-163
-350
-114
-143
-322
-185
-83
-229
-252
142
730
1752
3097
3297
2135
896
177
-190
-30
320
97
-177
-104
-109
-214
-209
-82
-156
-200
-6
-90
-297
-203
-211
-267
61
58
-217
-123
36
-73
-246
-63
40
-95
30
85
-100
-63
209
34
-111
334
296
-13
216
341
109
226
510
255
92
483
574
366
421
528
391
400
522
302
174
294
210
-66
-40
94
-225
-212
138
-115
-396
-227
-121
-216
-200
-127
-252
-249
-114
-283
-379
-178
-241
-416
-238
-44
-173
-236
-107
-293
-320
-54
-175
-441
-285
-1
-122
-190
-46
-180
-268
-63
-150
-334
-91
-117
-416
-146
52
-151
-172
-67
-217
-364
-96
-79
-404
-257
19
-219
-320
-120
-175
-281
-80
-54
-399
-281
-45
-276
-237
8
-134
-320
-192
-123
-274
-223
-40
-191
-327
-114
-177
-256
-22
-234
-532
-165
43
-186
-193
-115
-138
-205
-63
-145
-407
-212
-26
-144
-227
-28
48
-132
-30
179
-27
-96
269
199
37
207
65
-68
72
29
-156
-2
140
-194
-301
-121
-113
-252
-243
-133
-302
-261
-47
-172
-270
-171
-144
-194
451
1619
2463
3154
2974
1450
193
93
83
-35
125
141
-203
-332
-28
-85
-244
-22
-52
-317
-172
-61
-271
-64
50
-334
-328
13
-28
-198
-91
-11
-178
-174
120
-44
-127
100
-39
-45
133
108
59
205
295
108
133
385
225
197
542
493
273
454
706
461
346
689
574
271
478
494
176
132
273
172
-61
56
65
-120
12
-32
-244
-117
-87
-311
-231
1
-171
-309
-73
-87
-285
-147
-116
-402
-260
34
-251
-370
-113
-92
-177
-160
-90
-153
-176
15
-136
-353
-120
-23
-242
-145
15
-255
-224
-11
-209
-267
-71
-88
-320
-307
-61
-110
-148
-4
-189
-304
-81
-96
-265
-162
-50
-253
-277
-67
-134
-238
-113
-111
-273
-211
-126
-196
-175
-157
-183
-185
-79
-33
-222
-186
-52
-223
-369
-152
-96
-266
-121
-75
-296
-156
31
-147
-215
-208
-150
-115
-53
-64
-269
-155
-25
-151
-238
-155
-85
-179
-30
118
-39
38
123
-46
34
327
172
-52
236
275
-23
66
260
13
-128
61
-121
-347
-113
-130
-353
-294
-231
-263
-185
-28
-168
-234
-81
-49
7
706
2036
2887
3215
2882
1214
13
238
310
16
5
122
-91
-210
-76
-174
-281
-112
-49
-210
-108
-29
-234
-202
-58
-140
-200
-99
-58
-198
-108
48
-136
-146
-1
-17
-49
77
104
-133
-25
300
135
47
261
172
194
411
347
298
501
509
267
361
640
526
409
626
563
320
434
523
232
140
272
90
-78
-6
-62
-172
-11
-33
-317
-164
-32
-260
-246
-87
-116
-275
-131
-31
-303
-257
-69
-250
-301
-84
-150
-301
-149
-91
-295
-215
5
-184
-321
-156
-133
-228
-62
-43
-401
-233
111
-207
-327
-29
-136
-298
-57
6
-265
-197
-34
-300
-326
-81
-174
-358
-189
-33
-289
-216
-10
-340
-353
-1
-183
-398
-115
-59
-339
-294
-57
-249
-314
-42
-171
-306
-99
-219
-361
-159
-48
-166
-313
-137
-119
-423
-228
35
-232
-242
7
-267
-323
-19
-231
-326
-137
-95
-212
-205
-6
-252
-340
73
-64
-311
55
196
-35
43
269
107
-4
209
116
-115
109
253
-78
-32
119
-267
-344
-43
-180
-403
-183
-126
-368
-290
-117
-212
-235
-132
-176
-221
313
1314
2251
3232
3328
2152
852
263
176
85
163
75
-196
-213
-42
-94
-179
13
-170
-343
-70
-66
-299
-140
53
-185
-241
33
-44
-234
-47
18
-231
-187
80
-83
-122
163
45
-103
89
133
-18
81
167
122
303
409
222
226
402
356
300
485
618
474
430
491
476
467
503
481
270
307
391
-47
-127
191
83
-80
-24
-92
-249
-153
-11
-177
-239
-40
-157
-287
-121
-110
-238
-140
22
-222
-283
10
-182
-444
-23
42
-329
-52
-2
-267
-235
-130
-196
-260
-32
-14
-180
-148
-38
-216
-271
54
-87
-287
-29
-133
-293
1
-49
-266
-144
-32
-154
-273
-152
-156
-311
-137
20
-284
-312
-72
-195
-266
-52
-88
-338
-173
-3
-262
-217
7
-189
-292
-101
-97
-252
-184
12
-145
-239
-59
-265
-297
-20
-114
-304
-165
-64
-261
-313
-108
-96
-184
-37
-37
-120
-2
102
-110
-76
283
180
62
286
224
-107
75
178
-70
31
63
-116
-195
-89
-122
-343
-250
-94
-232
-295
-173
-219
-267
-75
-151
-295
29
668
1466
2553
3293
2612
1239
248
-127
-89
136
240
-74
-192
-15
-171
-353
-89
-104
-369
-99
-21
-326
-213
-16
-209
-235
-6
-146
-321
-58
52
-272
-301
73
31
-89
95
-27
-142
104
196
-50
3
312
183
50
308
305
22
234
481
304
347
573
433
333
481
393
215
380
504
246
128
251
124
-56
126
125
-207
-186
-88
-216
-112
-69
-250
-285
-124
-141
-233
-179
-139
-259
-280
-53
-182
-356
-143
-114
-294
-159
-130
-299
-158
29
-238
-431
-61
0
-229
-143
-27
-169
-136
-17
-263
-265
-59
-104
-203
-137
-64
-221
-218
-63
-262
-233
113
-124
-413
-174
-56
-269
-208
-58
-338
-333
9
-74
-277
-198
-138
-287
-314
-98
-82
-193
-96
-165
-270
-176
-133
-164
-194
-102
-156
-262
-175
-199
-269
-84
-59
-363
-174
112
-246
-469
-111
-62
-270
-73
-77
-260
-78
96
-72
-166
22
23
-61
150
267
86
154
271
46
-55
152
98
-129
-11
-28
-266
-255
-90
-213
-293
-133
-301
-471
-282
-122
-222
-280
-147
-152
-95
745
1809
2658
3312
2751
1124
109
150
-17
-113
195
-7
-218
-43
-82
-249
-120
-15
-263
-332
-80
-121
-309
-138
-18
-234
-191
33
-51
-167
-97
-117
-166
-23
44
-105
-21
36
-106
26
171
131
53
220
265
137
295
314
197
283
413
383
275
423
589
435
475
598
405
385
477
356
216
231
214
-41
-35
113
-121
-243
-30
-105
-255
-88
-142
-287
-147
-32
-346
-362
-8
-225
-346
-144
-194
-283
-172
-98
-231
-295
-151
-155
-283
-155
-172
-275
-70
-38
-283
-266
-29
-121
-294
-126
-50
-244
-146
-32
-248
-258
-105
-201
-334
-146
-101
-317
-139
-6
-326
-387
-86
-94
-316
-225
-144
-273
-273
-227
-248
-158
-81
-189
-267
-110
-126
-315
-242
-122
-254
-281
-46
-144
-312
-172
-107
-316
-247
-62
-277
-257
-64
-133
-345
-214
-117
-309
-143
-70
-231
-194
-28
-128
-363
-154
-4
-163
-17
160
-44
-60
159
91
12
185
219
-46
-3
236
63
-53
139
-25
-232
-72
-112
-317
-226
-135
-388
-342
-43
-275
-524
-120
16
-357
-193
66
346
1535
2815
3301
2942
1890
613
-48
165
331
-20
-146
41
-83
-281
-195
-130
-248
-151
-107
-281
-236
-108
-193
-262
-108
-46
-196
-114
16
-205
-200
15
-21
-108
23
56
-81
46
168
-46
-16
230
145
116
253
201
105
261
403
263
359
510
377
400
509
553
310
292
640
456
316
464
241
92
245
15
-231
43
12
-266
-119
9
-197
-344
-107
-116
-401
-172
-101
-406
-301
-74
-195
-272
-95
-142
-310
-151
-115
-283
-179
-47
-314
-438
-13
9
-282
-151
-89
-199
-162
-141
-219
-192
-69
-244
-340
-24
-48
-288
-215
-42
-183
-406
-32
16
-388
-252
-74
-261
-254
-81
-265
-298
-19
-132
-350
-142
-86
-302
-282
-164
-191
-225
-12
-13
-336
-215
-52
-350
-264
74
-189
-344
-24
-76
-330
-129
4
-288
-213
41
-180
-244
-4
-122
-275
-43
-160
-396
-163
3
-91
-32
130
28
-38
174
183
-18
172
369
117
-25
113
101
6
119
121
-128
-93
9
-326
-321
1
-163
-373
-192
-135
-396
-290
-75
-287
-234
82
283
1086
2414
3289
3307
2325
901
32
-30
280
289
-20
-92
-83
-264
-193
-47
-225
-275
-30
-187
-400
-106
-41
-189
-52
31
-235
-347
-29
-45
-264
-9
-56
-353
-40
179
-34
-24
152
75
-38
112
192
66
114
327
229
149
388
350
208
420
541
393
469
591
361
400
618
391
176
342
299
66
182
192
-32
-38
21
-162
-286
-66
-14
-341
-256
-12
-205
-240
-74
-233
-347
-78
-103
-323
-131
-63
-314
-311
-105
-217
-334
-153
-192
-366
-146
61
-270
-258
68
-130
-286
-61
-51
-292
-214
-55
-214
-255
-86
-177
-309
-134
-99
-286
-210
-81
-249
-278
-90
-162
-330
-158
-32
-297
-293
-58
-203
-297
-142
-225
-332
-143
-110
-315
-250
-90
-291
-341
-83
-184
-359
-144
-99
-340
-192
-89
-302
-292
-129
-143
-257
-162
-142
-257
-141
-3
-318
-435
5
-150
-467
-124
32
-46
98
81
-4
69
243
223
63
173
48
-61
89
116
46
-73
-50
-238
-429
-161
-182
-394
-117
-75
-335
-262
-139
-218
-258
-71
-100
30
1016
2272
3086
3162
2400
768
-277
-58
250
70
-130
90
-33
-173
0
-190
-337
-142
-129
-249
-195
-118
-199
-208
21
-125
-275
-83
-167
-266
-59
88
-60
-118
27
-18
-89
137
98
-65
103
95
-32
130
398
311
125
296
347
229
424
532
351
390
474
364
346
480
450
208
215
317
205
143
201
-18
-206
76
52
-241
-137
-3
-227
-230
15
-159
-296
-118
-183
-354
-226
-54
-290
-401
0
-116
-383
-7
25
-274
-151
-128
-277
-148
-35
-182
-282
-98
-8
-315
-321
-48
-118
-199
-129
-151
-232
-46
-18
-293
-193
-51
-330
-260
2
-158
-266
-177
-185
-265
-184
-145
-273
-289
-74
-99
-337
-103
-99
-501
-264
35
-188
-189
-111
-328
-234
22
-163
-341
-205
-124
-250
-263
-109
-230
-210
-43
-180
-294
-147
-63
-299
-194
16
-272
-308
-65
-89
-249
-73
232
-44
-179
212
236
85
181
89
-67
71
162
27
11
35
-144
-191
-32
-171
-366
-177
-216
-491
-311
-103
-320
-333
-86
-189
-315
23
760
1741
2843
3343
2465
983
132
-107
-85
124
-43
-165
-34
-114
-210
-231
-66
-109
-428
-265
-34
-261
-209
-26
-156
-206
-20
-65
-313
-111
16
-233
-144
50
-151
-179
122
86
-59
70
17
-102
92
254
108
17
273
322
90
339
490
210
370
568
376
312
528
362
115
456
403
-34
140
315
13
-61
105
-8
-248
-122
-26
-360
-357
-73
-171
-249
-38
-146
-369
-108
-37
-244
-236
-127
-249
-359
-162
-166
-247
-137
-163
-315
-255
-131
-186
-169
-40
-124
-254
-130
-182
-338
-164
55
-137
-355
-120
-86
-241
-115
-51
-207
-295
-271
-293
-293
-113
-166
-369
-123
-63
-381
-268
-47
-311
-351
-86
-300
-435
-70
-36
-334
-235
-199
-348
-200
-139
-216
-292
-173
-113
-353
-223
-27
-314
-322
-127
-305
-396
-212
-91
-283
-237
36
-164
-281
-40
-154
-319
-51
16
-136
-23
82
-76
-119
146
220
85
221
198
-108
-23
186
3
-77
9
-230
-328
-232
-234
-324
-316
-148
-235
-270
-80
-136
-396
-238
-17
91
1073
2294
2975
3126
2430
910
-112
137
247
-53
28
104
-174
-236
-9
-149
-295
25
-191
-566
-143
42
-222
-177
-51
-190
-189
-43
-68
-177
-147
-43
-183
-165
148
105
-108
74
157
-66
45
197
-4
-8
267
251
142
324
376
235
401
580
418
392
614
508
356
614
526
179
222
374
251
61
161
145
-30
138
-28
-394
-69
94
-282
-259
40
-92
-235
-65
-88
-300
-169
-32
-187
-224
-236
-477
-393
98
114
-238
-140
52
-220
-261
60
-129
-309
-56
-27
-229
-238
-6
-110
-213
-26
-133
-225
-142
-199
-200
-93
-95
-272
-183
38
-110
-260
-93
-41
-247
-300
-105
-191
-355
-83
-104
-302
-110
-80
-307
-162
-33
-333
-298
-138
-211
-136
22
-55
-365
-184
6
-248
-201
-13
-109
-308
-156
-71
-312
-171
43
-263
-332
12
-135
-269
28
53
-156
-68
160
-79
-34
373
213
96
264
168
-38
48
132
16
35
93
-56
-163
-155
-275
-360
-207
-188
-402
-256
-93
-266
-292
-137
-67
-130
91
1061
2138
3073
3531
2504
979
211
31
171
216
69
-179
-258
10
-105
-249
-164
-255
-213
-85
-62
-259
-244
-36
-168
-182
-12
-75
-238
-161
-49
-171
-115
51
-43
-155
-37
32
-129
46
208
9
123
232
146
180
352
447
158
277
520
351
448
536
397
376
530
484
332
411
452
269
104
248
172
-86
137
160
-167
-93
0
-228
-198
-71
-191
-304
-195
-96
-208
-141
-125
-333
-214
-12
-212
-307
-47
-77
-320
-219
-115
-214
-165
-61
-174
-327
-60
23
-292
-77
-19
-325
-196
-9
-171
-267
-66
-90
-283
-187
-111
-271
-230
-20
-227
-393
-142
-217
-381
-45
-15
-285
-122
-18
-226
-270
-145
-194
-290
-151
-87
-267
-232
-47
-233
-381
-94
-123
-315
-155
-122
-258
-203
-135
-306
-237
-60
-171
-334
-162
-39
-338
-255
-61
-242
-240
-28
-3
-68
76
61
-41
76
233
187
55
232
162
-159
21
256
-29
-141
16
-140
-324
-203
-179
-391
-207
-180
-421
-169
-108
-323
-288
-125
-114
23
966
2192
2937
3165
2552
996
-162
-48
87
-36
98
54
-251
-178
34
-173
-239
-75
-157
-316
-169
-89
-262
-217
23
-91
-264
-5
13
-203
-53
23
-160
-109
24
-99
-38
248
125
-70
140
189
37
185
240
102
256
317
164
255
488
483
330
481
620
446
336
381
383
240
332
431
154
104
185
-17
-110
93
-61
-340
-61
44
-296
-249
-91
-278
-292
-142
-190
-259
-146
-127
-375
-283
-29
-285
-318
-68
-131
-314
-200
-45
-273
-192
-33
-228
-150
19
-127
-225
-100
-137
-262
-87
17
-234
-315
-124
-135
-264
-133
-69
-343
-311
-17
-269
-332
2
-203
-335
-119
-130
-308
-304
-152
-268
-323
-47
-101
-307
-156
-153
-293
-201
-32
-196
-343
-96
-156
-276
-63
-164
-383
-222
-106
-222
-217
-156
-249
-246
-40
-98
-299
-153
1
-155
-119
66
-74
-127
120
255
99
130
262
45
-83
-6
20
6
70
4
-281
-233
-84
-316
-366
-113
-212
-401
-203
-150
-350
-217
-52
-186
-89
704
1805
2702
3256
2669
1068
129
-26
-123
61
163
-128
-300
-8
16
-347
-177
50
-227
-291
-29
-109
-285
-101
-57
-231
-137
4
-164
-230
11
-47
-232
47
115
-130
-46
120
-6
-24
209
134
35
238
295
77
208
437
216
228
481
374
292
600
626
300
457
692
416
296
522
410
119
212
288
5
-34
139
-104
-190
9
-117
-246
-69
-41
-282
-223
-39
-176
-224
-70
-177
-293
-126
-111
-270
-213
-14
-191
-291
-3
-116
-303
-62
-50
-294
-151
52
-184
-266
-26
-101
-230
-83
-132
-304
-140
40
-183
-261
40
-86
-328
-142
-152
-332
-152
27
-305
-349
3
-151
-312
-101
-77
-278
-220
-43
-218
-267
-47
-159
-277
-176
-227
-276
-137
-105
-293
-196
-74
-206
-180
8
-98
-346
-121
-13
-225
-200
-93
-210
-254
-50
-118
-272
-99
-38
-252
-247
47
-15
-149
117
120
-119
-12
209
118
103
266
130
-23
82
118
-75
-6
159
-135
-218
-110
-241
-328
-136
-110
-423
-310
-163
-254
-180
-158
-320
-251
372
1236
2196
3217
3441
2297
809
176
101
113
168
64
-135
-136
-16
-169
-230
-129
-246
-266
-99
-81
-279
-215
-104
-306
-210
49
-77
-219
-72
-41
-153
-2
15
-128
-28
57
21
-69
111
96
-63
167
249
128
123
280
303
237
386
489
343
429
600
385
417
648
396
332
626
456
111
259
405
128
-31
103
-53
-243
6
-29
-290
-141
-24
-252
-233
-22
-227
-326
-63
-155
-390
-206
-49
-283
-297
30
-128
-373
-115
-100
-326
-215
-57
-219
-237
-89
-186
-225
-43
-123
-299
-135
-82
-336
-243
34
-195
-300
-110
-134
-323
-301
-47
-204
-341
-123
-219
-324
-104
-143
-313
-185
-108
-245
-301
-210
-184
-218
-146
-193
-266
-142
-168
-288
-203
-107
-303
-401
-112
-131
-379
-156
-106
-398
-192
4
-265
-328
-93
-137
-221
-133
-136
-184
-170
-21
-96
-228
-79
-21
-140
-14
139
-57
-29
201
140
64
188
221
-56
36
230
-39
-4
143
-110
-312
-144
-218
-400
-246
-210
-330
-258
-82
-245
-336
-134
-145
-239
186
1195
2209
3183
3494
2362
866
216
164
144
141
58
-188
-171
5
-177
-295
-105
-113
-322
-201
-60
-290
-220
-25
-249
-268
-28
-85
-246
-97
-37
-308
-170
110
-28
-127
81
98
-29
89
58
-49
109
252
94
85
382
306
107
351
437
326
466
521
420
409
383
420
384
411
481
226
169
328
85
-175
35
32
-199
-134
-49
-236
-291
-111
-217
-327
-156
-166
-312
-211
-137
-332
-303
-68
-234
-364
-76
-162
-376
-119
-67
-324
-237
-104
-253
-342
-210
-111
-265
-158
-31
-268
-225
-27
-199
-266
-114
-254
-332
-113
-30
-255
-267
-25
-174
-297
-70
-117
-395
-220
4
-199
-253
-146
-251
-286
-128
-193
-345
-172
-67
-307
-235
-30
-199
-255
-61
-147
-297
-158
-79
-250
-278
-40
-178
-434
-109
-15
-393
-230
23
-222
-243
-4
-171
-287
-6
-44
-352
-89
151
-61
33
62
-12
188
364
225
-40
-1
113
20
-28
93
11
-225
-100
-58
-406
-268
-122
-365
-234
-82
-289
-293
-133
-284
-300
16
507
1299
2474
3339
2965
1584
270
-155
-49
168
139
-118
-212
-166
-68
-142
-133
-131
-269
-160
-77
-219
-270
-143
-95
-143
-74
-124
-236
-79
10
-166
-97
98
-134
-228
106
96
-97
47
167
-37
-8
224
111
112
331
218
143
394
391
174
356
537
299
330
464
386
422
470
350
236
191
107
101
65
6
-56
-167
-106
-36
-272
-247
37
-162
-346
-151
-188
-322
-155
-109
-381
-326
-87
-255
-338
-168
-232
-330
-143
-107
-288
-183
48
-155
-314
-47
-101
-305
-87
-37
-263
-191
-58
-209
-281
-104
-133
-243
-141
-163
-269
-217
-116
-229
-324
-100
-56
-304
-254
-127
-322
-213
-56
-326
-265
-15
-147
-298
-140
-118
-337
-187
-12
-251
-291
-98
-133
-261
-167
-123
-327
-229
-86
-261
-251
-90
-214
-335
-89
-85
-323
-245
-135
-248
-138
118
-131
-336
81
200
-30
149
295
0
-33
204
14
-51
94
33
-88
-96
-92
-276
-246
-154
-241
-309
-205
-139
-382
-338
-134
-303
-362
-156
-39
387
1587
2764
3086
2767
1718
154
-360
110
206
-70
25
61
-297
-200
-65
-282
-271
-105
-175
-299
-127
-136
-341
-164
-25
-202
-192
61
-93
-324
-77
-19
-152
-22
83
10
-49
9
-28
-50
147
144
64
194
284
177
180
346
298
301
558
427
177
429
608
491
364
369
479
425
419
331
16
107
184
-65
-101
4
-85
-214
-111
-66
-332
-273
46
-255
-308
43
-144
-373
-187
-103
-329
-211
-64
-323
-290
-23
-155
-346
-223
-178
-295
-229
-97
-245
-325
-74
-65
-250
-155
-163
-249
-130
-51
-183
-293
-113
-93
-254
-134
-95
-272
-226
-92
-373
-390
0
-153
-387
-197
-148
-310
-178
-95
-322
-247
-68
-225
-258
-21
-100
-371
-237
-193
-449
-245
50
-163
-343
-139
-112
-318
-190
-111
-382
-291
-70
-234
-300
-55
-90
-347
-143
-87
-347
-321
-84
19
-48
4
66
17
21
109
60
113
328
144
-92
92
111
-44
98
170
-124
-311
-88
-207
-436
-38
-60
-424
-208
-109
-368
-281
-127
-187
-201
-115
477
1361
2526
3494
3078
1896
729
54
53
269
169
-150
-178
-109
-207
-208
-42
-216
-335
-72
-62
-278
-206
-128
-241
-208
-122
-171
-237
-24
65
-186
-147
8
-182
-150
39
-69
-104
140
64
-152
161
310
139
117
271
287
160
351
516
327
184
301
485
559
640
553
368
557
553
161
238
378
34
-91
165
78
-201
-21
32
-162
-139
-120
-250
-263
-122
-225
-456
-298
-65
-259
-195
-37
-300
-305
-123
-168
-282
-129
-85
-282
-158
-62
-359
-408
-7
-73
-350
-178
-113
-297
-230
-67
-195
-241
-37
-170
-295
-95
-297
-409
-191
-71
-177
-269
-87
-145
-298
-170
-119
-332
-268
-77
-253
-301
-114
-179
-296
-154
-231
-596
-333
55
-216
-241
-45
-202
-312
-140
-101
-181
-121
-154
-390
-347
-5
-167
-380
-58
-42
-364
-200
-38
-481
-420
96
-4
-158
49
66
-116
51
166
-4
148
180
47
178
186
32
-50
89
154
-92
-177
-107
-197
-321
-471
-414
-220
-145
-58
-170
-251
-101
-242
-292
-9
117
695
2074
3240
3274
2584
1506
177
-185
262
237
-95
-25
83
-158
-227
-236
-394
-225
13
-77
-235
-170
-165
-194
-48
-9
-132
-212
25
57
-323
-174
89
-232
-159
164
4
-34
41
52
43
14
174
142
153
391
185
31
409
441
227
458
614
425
442
620
475
331
417
489
459
336
322
209
-64
72
158
-84
0
50
-182
-132
4
-193
-232
-99
-240
-267
-49
-97
-270
-143
-25
-232
-248
-11
-136
-220
-63
-136
-260
-131
-57
-258
-267
-38
-43
-178
-78
-125
-260
-99
-24
-233
-174
30
-178
-257
-23
-86
-245
-54
20
-241
-247
30
-72
-283
-92
-64
-269
-199
-57
-172
-201
5
-170
-269
-29
-116
-239
-126
-30
-253
-364
13
-92
-348
-1
49
-144
-97
-99
-196
-177
-49
-38
-190
-112
-12
-205
-144
16
-104
-89
132
70
-81
106
202
52
171
367
78
-12
263
104
-16
105
-22
-188
-112
50
-214
-374
-53
-263
-457
26
6
-398
-191
-3
-244
-201
439
1181
2091
3166
3103
1887
626
21
-153
-24
254
47
-210
-128
-27
-162
-131
0
-202
-219
33
-67
-269
-33
-72
-363
-119
78
-113
-194
8
-11
-178
64
92
-253
-88
181
-2
25
239
57
-19
206
201
105
212
318
276
272
405
385
219
377
540
351
375
571
389
324
467
243
114
296
160
-101
9
110
-97
-166
23
-144
-342
-26
-94
-377
-121
0
-257
-291
-24
-130
-343
-125
-117
-304
-164
-41
-282
-250
-19
-188
-220
1
-65
-294
-172
-33
-173
-180
-13
-46
-223
-78
-25
-197
-28
12
-259
-136
3
-219
-215
-41
-138
-297
-99
31
-246
-298
-139
-298
-285
33
-39
-275
-155
0
-211
-197
-17
-311
-312
-34
-103
-247
-142
-32
-187
-177
-27
-189
-346
-128
-55
-254
-162
-71
-250
-244
-51
-137
-269
-76
-13
-165
-32
184
63
-2
202
199
21
164
172
-111
33
250
11
-46
149
-88
-296
-117
-184
-376
-188
-99
-289
-246
-166
-237
-318
-238
-192
-261
220
1169
2122
3037
3297
2290
760
58
32
45
122
105
-83
-174
-41
-113
-275
-117
-53
-230
-128
-7
-224
-225
-35
-134
-215
-39
-53
-212
-91
4
-117
-98
78
6
-110
124
130
-62
103
194
59
153
281
147
123
351
369
210
393
577
407
445
644
465
351
603
535
396
500
338
112
190
419
209
-40
163
127
-138
-193
2
-99
-270
34
-30
-339
-122
-120
-331
-100
-28
-256
-264
-93
-134
-322
-124
-12
-252
-169
-85
-197
-191
-195
-208
-201
-78
12
-113
-167
-202
-248
-151
-4
-74
-217
-77
-48
-245
-180
-25
-218
-204
-104
-306
-307
-81
-2
-223
-144
-42
-366
-360
-81
-92
-183
-92
-96
-385
-252
-40
-519
-322
186
-176
-322
-51
-103
-326
-168
-35
-312
-355
-146
-204
-304
-94
-43
-217
-147
-130
-347
-312
-42
-124
-271
-80
41
-79
-26
78
-46
-33
140
80
71
308
202
-23
76
56
-34
-28
-20
0
-79
-4
-133
-386
-164
-106
-375
-359
-129
-231
-344
-111
-179
-371
-160
184
788
1969
3213
3341
2524
1460
351
-22
238
212
-96
-147
-40
-151
-197
-39
-206
-358
-83
0
-302
-304
-66
-164
-283
-118
-58
-253
-184
73
-81
-279
-14
14
-191
37
38
-198
81
210
-121
-71
267
168
-56
178
349
233
270
374
356
452
606
430
344
665
633
376
539
632
248
194
489
280
40
138
62
-177
-204
-60
-78
-119
24
-101
-314
-112
-85
-307
-183
-97
-262
-270
-100
-137
-323
-134
-146
-393
-180
-54
-307
-328
-126
-220
-259
-162
-172
-194
-80
-32
-292
-374
-51
-38
-267
-65
-79
-359
-180
-6
-232
-263
-63
-208
-391
-169
-103
-270
-165
-121
-262
-225
-78
-162
-323
-183
-113
-287
-236
-60
-230
-360
-82
-123
-369
-194
-128
-319
-171
-65
-378
-337
-83
-276
-310
42
-91
-318
-113
-90
-295
-196
-53
-274
-289
-120
-129
-206
-132
16
-120
-124
33
-75
-38
242
103
-118
181
288
-17
-18
248
150
-50
115
111
-203
-169
-32
-323
-427
-106
-81
-302
-195
-205
-346
-160
-109
-316
-269
3
455
1436
2705
3377
2970
1950
651
-104
118
312
67
-94
-5
-124
-329
-234
-184
-323
-232
3
-138
-276
-77
-135
-377
-186
-4
-205
-158
12
-144
-254
-32
22
-177
-56
66
-120
-99
145
125
-26
87
206
78
167
341
202
220
440
354
255
478
541
316
396
622
430
408
622
423
211
407
346
23
69
81
-93
-119
13
-18
-140
-45
-69
-274
-149
12
-250
-284
-65
-180
-285
-43
-70
-283
-136
-130
-327
-217
-31
-153
-249
-76
-136
-332
-133
-44
-246
-178
-15
-159
-277
-86
-93
-266
-111
34
-204
-304
-75
-131
-305
-180
-129
-228
-147
-151
-296
-256
-39
-103
-331
-67
-42
-405
-216
17
-242
-246
-40
-231
-315
-19
-14
-279
-229
-94
-236
-273
-106
-187
-275
-28
-40
-337
-203
-44
-287
-262
-7
-243
-329
-125
-242
-232
-31
17
-162
-161
115
98
-129
40
203
62
182
248
34
-20
114
29
-88
93
-18
-298
-162
-33
-282
-334
-93
-247
-437
-189
-140
-407
-284
-113
-261
-168
295
1130
2217
3141
3112
1852
482
-137
-178
68
208
0
-168
-38
-9
-263
-209
-14
-259
-321
-75
-149
-263
-125
-72
-238
-195
8
-183
-298
-8
-41
-199
61
75
-203
-90
108
-14
-75
129
139
16
216
308
-2
123
488
253
188
497
428
305
518
525
326
422
475
333
321
460
415
208
287
247
-77
-46
111
-193
-305
55
-30
-210
-22
-73
-287
-148
-3
-258
-272
-59
-194
-247
-80
-126
-260
-152
-60
-261
-258
35
-54
-312
-139
-44
-215
-125
-70
-148
-167
-159
-127
-245
-174
-6
-136
-110
18
-192
-231
13
-120
-264
-73
-128
-278
-69
8
-265
-219
-24
-266
-398
-92
-45
-245
-162
-16
-229
-272
-34
-205
-388
-167
-84
-329
-129
78
-201
-208
-132
-195
-214
-152
-136
-319
-301
-89
-169
-234
-110
-248
-234
-1
-134
-255
-53
2
-133
-31
186
73
-40
143
221
51
140
266
78
14
94
90
-43
71
124
-244
-277
-29
-174
-260
-82
-268
-385
-64
-70
-368
-210
-11
-238
-181
383
1045
2080
3240
3237
2080
824
140
-23
141
261
-10
-240
-50
-36
-301
-193
-59
-195
-155
-51
-164
-235
-203
-123
-237
-177
64
-154
-197
42
-23
-199
-93
21
-77
54
128
-53
-59
100
88
21
174
252
129
225
443
237
159
424
360
320
575
568
439
522
584
435
437
593
347
181
407
291
-50
78
200
-140
-132
128
-111
-260
-3
-17
-323
-230
-39
-208
-232
-77
-140
-267
-156
-129
-265
-109
31
-206
-269
-50
-91
-315
-161
34
-231
-199
36
-178
-217
14
-93
-192
-34
-55
-267
-304
-30
-42
-211
-34
-97
-265
-114
-239
-334
-16
60
-177
-249
-69
-152
-280
-64
-70
-267
-174
-39
-224
-347
-58
-84
-324
-95
-47
-281
-171
-84
-284
-220
-84
-211
-288
-185
-82
-238
-176
-57
-242
-134
85
-99
-258
-18
12
-238
-153
-26
-222
-174
1
-184
-248
55
60
-188
29
247
36
24
254
185
52
172
189
-100
7
239
29
24
114
-73
-361
-218
-50
-338
-248
-57
-264
-349
-177
-185
-355
-150
-52
-109
734
2027
2894
3311
2910
1449
170
169
273
19
86
75
-151
-196
-57
-135
-335
-140
-5
-249
-231
-15
-235
-275
67
-124
-362
-104
-84
-275
-132
49
-38
-136
-40
-25
-95
72
145
-34
51
247
70
33
294
200
79
308
413
231
319
612
422
317
572
514
383
578
619
356
362
492
326
175
256
92
-152
55
81
-184
-132
-7
-204
-350
-93
-81
-286
-56
-80
-312
-172
-133
-285
-255
-63
-209
-389
-112
-20
-267
-209
-4
-180
-236
-74
-214
-250
-63
-83
-274
-197
-14
-203
-261
-21
-63
-240
-119
-62
-244
-170
-75
-249
-202
-17
-170
-324
-127
-69
-311
-234
-40
-205
-230
-45
-174
-320
-106
-102
-275
-160
-153
-300
-342
-128
-41
-260
-119
-24
-285
-213
-15
-225
-285
-55
-151
-311
-120
-84
-301
-208
-47
-223
-258
-48
-121
-269
-87
-44
-252
-173
-49
-106
-191
-121
73
-108
-41
248
-33
24
301
123
116
270
142
-14
171
200
-72
-81
-23
-254
-316
-55
-174
-437
-231
-156
-322
-166
-73
-305
-318
-108
-26
271
1330
2592
3264
3286
2290
623
94
394
211
67
95
-32
-219
-210
-39
-192
-320
-57
-217
-392
0
-11
-351
-156
61
-209
-240
-91
-155
-205
-68
-7
-252
-172
94
-72
-138
75
-111
-224
218
311
55
185
376
202
98
279
334
248
413
412
230
525
699
408
296
523
487
124
304
558
200
139
307
-18
-304
-78
83
-114
-134
-124
-303
-345
-200
-193
-250
-85
-279
-487
-95
-56
-323
-206
-69
-228
-380
-135
-120
-442
-201
-12
-392
-356
-78
-285
-334
42
-38
-364
-165
-4
-213
-233
-85
-184
-269
-93
-152
-444
-296
-88
-331
-224
62
-210
-431
-113
-86
-404
-119
-12
-312
-152
-43
-290
-342
-159
-113
-309
-279
-75
-308
-367
-33
-120
-325
-84
-139
-361
-79
-89
-317
-231
-123
-128
-209
-144
-133
-321
-210
-81
-374
-256
-15
-261
-252
-18
-154
-338
-11
91
-174
6
186
27
41
95
42
120
226
201
-32
12
235
17
-97
-25
-260
-401
-120
-66
-325
-208
-118
-342
-300
-111
-221
-556
-449
17
-61
326
1659
2610
3195
3193
1791
190
-99
-24
-223
55
176
-157
-144
-57
-267
-345
-158
-63
-197
-198
-73
-223
-342
-105
-103
-416
-190
134
-165
-192
50
-120
-240
-222
-97
56
91
114
-50
-23
150
50
21
236
294
-110
-114
303
297
432
576
339
314
513
383
201
379
503
337
356
418
161
85
221
49
-118
-5
-141
-302
-69
-12
-236
-211
71
-45
-324
-129
-33
-262
-134
-59
-357
-211
55
-134
-292
-124
-52
-252
-207
-104
-375
-244
144
10
-199
-65
-18
-189
-173
-27
-119
-205
6
-82
-309
-56
40
-211
-138
10
-310
-318
49
-82
-293
-41
73
-265
-186
-1
-303
-300
-29
-43
-147
-123
-135
-221
-284
-267
-200
-125
29
-70
-237
-73
18
-247
-288
7
-140
-281
3
-81
-297
-26
-21
-394
-234
29
-295
-331
78
-7
-194
21
98
-166
-141
45
36
221
411
222
13
165
192
-12
39
169
-98
-396
-193
-56
-241
-143
-49
-321
-301
-82
-311
-415
-70
-197
-448
-49
291
808
1991
3000
3019
2012
806
-32
-322
52
234
-161
-145
118
-203
-326
-9
-173
-315
-85
-46
-311
-348
-63
-138
-185
12
-125
-247
-29
25
-205
-215
4
-19
-149
-9
46
-146
19
263
47
48
299
102
-51
285
336
144
317
433
266
294
459
404
370
539
470
300
426
473
103
-91
301
309
70
203
49
-199
-206
-137
-105
-130
-17
-165
-272
-55
-162
-328
-251
-284
-272
-82
-101
-289
-228
-59
-182
-230
-98
-134
-267
-332
-150
-104
-163
43
-15
-239
-159
-107
-172
-87
13
-160
-317
-144
-119
-216
-43
3
-250
-226
-56
-309
-345
14
-70
-363
-211
-29
-200
-218
-89
-221
-260
-146
-172
-206
-109
-92
-312
-200
-45
-298
-276
-55
-184
-309
-150
-180
-306
-134
-90
-292
-180
21
-152
-313
-203
-236
-277
-123
-26
-140
-225
-71
-133
-312
-111
-44
-400
-92
348
41
-21
255
235
31
118
177
-36
37
187
11
-75
-21
-214
-287
-83
-144
-365
-254
-74
-332
-566
-219
-54
-289
-180
-33
-145
500
1708
2534
3141
3038
1707
285
44
243
83
-48
87
-63
-281
-85
-204
-444
-175
-32
-244
-144
-16
-231
-242
-69
-164
-269
-130
-96
-210
-22
144
-122
-172
61
16
-145
69
120
-282
-212
158
193
189
304
230
108
295
355
119
329
678
484
423
625
526
375
556
616
296
309
466
271
200
330
131
-139
32
137
-130
-216
-85
-190
-263
-112
-130
-280
-155
-57
-291
-264
-64
-336
-416
-10
-184
-392
-23
-135
-428
-226
-11
-175
-301
-57
-131
-435
-195
-8
-270
-240
-38
-247
-330
-40
-112
-277
-48
-44
-407
-299
33
-127
-345
-161
-16
-284
-291
-101
-269
-261
-40
-266
-433
-128
-88
-359
-239
20
-201
-384
-181
-182
-204
-54
-203
-364
-186
-92
-295
-226
6
-259
-458
-175
-122
-295
-146
-25
-319
-327
-29
-219
-285
-44
-165
-332
-198
-29
-123
-97
119
26
-152
93
216
28
171
252
-74
8
267
-26
-107
129
-44
-257
37
-65
-543
-371
-95
-229
-281
-152
-184
-371
-261
-118
-286
-194
140
802
2051
3259
3481
2507
1127
254
43
45
181
62
-107
12
-163
-334
-171
-137
-304
-201
-7
-223
-303
-80
-173
-306
-156
-91
-200
-205
-99
-136
-127
-26
-114
-241
-115
-5
-189
-112
230
94
-38
270
155
-43
260
305
191
286
267
235
329
571
568
353
508
605
428
353
425
384
251
368
291
10
74
89
-125
-48
78
-243
-325
34
-42
-330
-119
-62
-333
-215
-171
-311
-177
-98
-188
-328
-168
24
-274
-357
-144
-195
-300
-102
-78
-310
-108
-20
-353
-233
44
-150
-359
-82
47
-285
-190
-5
-259
-254
-7
-184
-308
-53
-246
-417
-41
-26
-251
-164
-78
-261
-384
-152
-60
-184
-113
-119
-213
-183
-34
-165
-412
-132
-141
-353
-111
-82
-232
-165
-76
-222
-347
-131
-202
-428
-41
107
-263
-257
-28
-103
-206
-57
-126
-293
-6
19
-259
-62
208
79
-38
238
267
58
153
118
-75
-21
127
56
-52
41
-115
-377
-146
-97
-371
-211
-165
-350
-280
-86
-100
-333
-199
-11
88
1049
2381
3034
2922
2168
789
-282
-95
210
46
-49
-56
-103
-261
-91
-5
-241
-197
-62
-146
-151
-31
-206
-304
-113
-78
-192
-110
-6
-185
-188
27
-68
-178
-6
3
-143
60
179
-23
-3
155
106
-8
219
303
40
264
479
232
277
488
410
367
517
435
269
468
500
161
208
424
199
6
154
69
-208
-87
47
-184
-248
23
-178
-342
6
-159
-281
-23
-152
-343
-174
-85
-295
-273
-23
-105
-271
-185
-190
-293
-157
-97
-246
-163
19
-135
-257
-118
-86
-201
-219
-123
-219
-322
-58
-16
-268
-94
-66
-405
-309
-51
-138
-201
-80
-173
-410
-228
-54
-261
-263
-131
-194
-250
-97
-102
-359
-215
-63
-287
-232
-102
-331
-267
-16
-217
-352
-198
-148
-313
-259
-159
-294
-190
-65
-172
-311
-192
-177
-322
-119
18
-238
-163
83
-66
-53
61
157
58
-39
178
-55
-137
232
96
-173
-59
-2
-291
-348
-89
-232
-344
-166
-239
-351
-262
-198
-306
-391
-168
-192
-258
680
1733
2406
3018
2586
1096
8
-76
79
-35
23
24
-261
-178
-139
-303
-251
-146
-175
-298
-138
-81
-350
-199
32
-308
-384
-32
-135
-247
-13
-64
-252
-62
50
-220
-193
139
-8
-117
78
-6
-3
160
230
175
152
320
286
165
384
456
356
379
426
274
258
580
511
341
534
423
-5
112
287
-92
-125
175
-65
-263
-125
-192
-270
-105
-54
-336
-320
-148
-280
-273
-107
-195
-370
-180
-80
-547
-463
126
-121
-346
-65
-161
-357
-159
-59
-389
-363
-74
-301
-230
73
-182
-366
-94
48
-312
-331
-27
-200
-270
26
-113
-433
-185
-48
-354
-247
41
-166
-374
-142
-82
-408
-217
-17
-371
-241
-40
-293
-276
-112
-169
-268
-161
-77
-301
-265
-57
-202
-298
-115
-128
-438
-388
-94
-200
-139
66
-201
-302
-105
-149
-263
-183
-116
-203
-125
51
-84
-144
135
71
-142
106
195
61
163
293
64
-47
159
63
-71
71
56
-200
-150
-53
-299
-298
-152
-250
-360
-221
-28
-257
-309
-45
-90
-156
386
1268
2161
3282
3377
2044
812
261
67
35
169
51
-169
2
-87
-382
-240
-62
-123
-174
-65
-221
-388
-58
-37
-325
-216
3
-130
-274
-68
-114
-269
-2
38
-242
-110
155
-35
-22
164
41
-13
112
195
128
132
315
252
193
520
582
272
422
644
380
473
722
510
305
591
534
172
358
291
68
37
-21
-67
-174
-11
35
-218
-128
-55
-302
-228
-13
-175
-250
-52
-177
-319
-122
-153
-354
-278
-126
-308
-343
-43
-130
-324
-88
-94
-325
-184
-78
-239
-250
-65
-28
-240
-244
-145
-231
-172
-164
-223
-199
-79
-96
-297
-140
-121
-435
-211
52
-218
-325
-94
-104
-337
-191
-24
-389
-425
22
-189
-436
-70
-108
-344
-154
-73
-278
-279
-160
-328
-272
-114
-252
-178
-83
-166
-302
-286
-42
-170
-308
-94
-127
-289
-134
-107
-405
-330
-180
-279
-193
-79
-200
-204
46
85
-130
-101
80
-126
-61
331
152
-52
207
235
-76
56
180
-140
-166
-7
-17
-260
-303
-78
-312
-411
-133
-223
-270
-76
-162
-337
-172
-31
-223
326
1506
2283
3225
3511
2211
678
167
253
159
39
90
-66
-225
-79
-176
-336
-102
3
-275
-249
0
-198
-323
-103
-125
-144
-57
-60
-140
-146
-21
-124
-147
52
-40
-203
49
162
-139
-4
240
34
-68
246
364
24
102
492
378
238
524
523
457
611
505
396
612
616
301
363
549
227
100
411
219
-104
106
117
-228
-179
79
-162
-297
64
-99
-321
-11
70
-248
-278
-78
-154
-169
-38
-205
-310
-108
-76
-169
-241
-175
-206
-274
-12
-82
-301
-28
17
-261
-185
-30
-241
-226
-17
-202
-371
-172
-18
-225
-219
-28
-187
-144
52
-219
-326
-41
-78
-321
-156
37
-224
-309
-154
-224
-248
-51
-23
-342
-282
19
-224
-336
-58
-154
-330
-85
-40
-281
-199
-8
-179
-282
-41
-80
-256
-104
-175
-313
-72
45
-197
-289
-64
-133
-256
-59
-80
-301
-145
100
-17
-70
62
106
89
238
323
68
62
309
28
-116
261
113
-210
-58
13
-253
-276
-64
-240
-338
-135
-148
-425
-360
-12
-195
-242
92
96
650
1930
2736
2996
2589
1230
-35
-152
179
46
-63
75
-49
-154
27
-16
-260
-212
-64
-187
-311
-113
-66
-218
-17
61
-235
-113
88
-138
-119
2
-141
-185
57
123
-132
-22
127
-15
3
218
172
-111
154
384
98
226
412
177
262
539
487
317
465
547
330
349
500
367
238
403
199
-84
226
181
-193
-44
78
-132
-148
-59
-140
-295
-184
18
-234
-223
-3
-235
-250
-98
-207
-291
-179
-160
-289
-207
-15
-199
-348
-61
-117
-302
-67
7
-232
-171
0
-203
-190
-29
-149
-148
-69
-68
-178
-257
-78
-129
-251
-23
-134
-378
-148
-65
-279
-241
-54
-235
-307
7
-142
-429
-162
-13
-266
-165
-44
-419
-329
84
-74
-288
-146
-168
-339
-187
-67
-262
-285
-105
-173
-335
-165
-87
-340
-207
-18
-264
-311
-170
-264
-261
-30
-69
-349
-247
13
-235
-211
206
116
-46
103
39
-99
178
315
-37
-82
212
98
-105
0
3
-314
-283
-53
-260
-331
-137
-230
-389
-229
-224
-324
-259
-213
-221
-161
256
861
1907
3030
2999
1971
769
126
-75
-64
142
6
-237
-138
-91
-283
-309
-108
-193
-312
-61
-112
-348
-139
-113
-375
-254
28
-186
-381
-11
-18
-236
-2
35
-241
-172
60
-42
-196
24
112
-54
186
276
-21
54
295
151
167
424
286
222
496
362
168
511
591
392
399
470
216
54
348
287
-6
1
49
-107
-151
19
-115
-325
-93
-77
-370
-237
-104
-315
-371
-218
-181
-312
-263
-134
-253
-278
-97
-259
-335
-68
-286
-353
-46
-91
-310
-240
-61
-254
-337
-89
-176
-377
-138
-42
-294
-233
-81
-301
-314
-169
-246
-260
-124
-135
-358
-364
-132
-133
-207
-87
-175
-323
-208
-185
-384
-340
-47
-223
-351
-89
-194
-373
-183
-135
-334
-253
-107
-191
-408
-253
-92
-299
-161
-58
-344
-383
-95
-201
-357
-68
-127
-380
-211
-110
-334
-238
19
-282
-285
-49
-267
-324
-152
-152
-253
-137
-15
-172
-193
104
131
-64
65
217
140
138
157
-50
-107
257
130
-164
83
26
-271
-207
-169
-305
-307
-196
-233
-331
-164
-115
-374
-311
-37
-180
-155
633
1683
2667
3489
3235
1681
409
170
114
13
96
20
-175
-97
-92
-285
-194
-63
-294
-303
-57
-138
-313
-180
-37
-222
-238
-26
-198
-279
-21
-145
-185
17
-27
-130
-15
78
-112
-86
142
6
-137
81
206
70
208
422
213
111
394
420
281
430
437
432
611
637
388
365
517
319
176
280
256
70
41
103
-110
-187
-5
-121
-143
7
-129
-317
-233
-98
-225
-260
-73
-182
-298
-41
-115
-359
-189
-42
-233
-254
-5
-148
-359
-112
-28
-272
-219
-33
-260
-346
-69
-168
-249
-18
-84
-277
-154
-18
-169
-184
-32
-175
-386
-204
-30
-201
-229
-113
-197
-232
-126
-173
-274
-124
-52
-278
-302
-54
-175
-263
-88
-267
-274
-44
-135
-222
-125
-136
-230
-234
-58
-104
-304
-79
-113
-442
-192
69
-162
-241
-59
-122
-191
-30
-70
-312
-197
-46
-254
-157
36
-110
-240
-129
-60
-220
-122
6
-160
-29
164
32
-57
79
136
36
242
378
64
-39
242
169
-42
176
204
-134
-162
-45
-252
-275
-64
-222
-386
-132
-132
-343
-155
-100
-293
-131
71
271
1127
2413
3380
3244
2082
870
153
-5
254
219
-82
88
93
-240
-143
-9
-257
-307
-14
-12
-345
-214
38
-136
-122
-6
-144
-163
15
-93
-200
74
70
-212
-93
165
22
-23
67
-22
78
224
225
42
140
406
209
221
459
362
262
484
513
306
473
592
369
421
616
400
272
381
231
-1
76
256
107
-40
77
-70
-261
-20
-13
-255
-137
28
-126
-229
-53
-149
-302
-60
-110
-285
-122
-104
-204
-164
-68
-199
-283
23
41
-217
-180
-57
-162
-200
-38
-63
-186
-95
-31
-171
-127
30
-150
-237
-14
-109
-225
-53
-72
-209
-151
-21
-171
-236
0
-101
-377
-165
45
-145
-169
-77
-180
-181
-85
-292
-208
116
-30
-242
-120
-26
-250
-219
-42
-202
-284
-57
-37
-335
-214
74
-141
-196
-58
-200
-207
0
-48
-263
-144
13
-157
-178
21
-103
-183
18
-70
-237
-26
149
-7
-109
79
199
97
279
368
35
29
230
54
-46
241
157
-186
-109
-76
-342
-230
-42
-250
-226
-59
-193
-293
-179
-160
-296
-109
381
990
2002
2997
2950
1910
765
-30
-250
122
205
-108
-8
71
-186
-263
-67
-43
-295
-181
63
-246
-331
6
-150
-320
-45
-67
-289
-46
142
-133
-193
46
-21
-166
80
78
-162
30
199
-2
-22
232
210
101
314
328
141
244
371
306
274
456
453
199
408
577
332
441
570
276
146
327
189
-120
14
118
-148
-85
127
-153
-225
-45
-168
-186
-50
-107
-247
-215
-121
-207
-257
-154
-169
-199
-8
-26
-321
-149
-33
-258
-167
-33
-132
-257
-161
-72
-188
-80
50
-212
-229
54
-62
-250
-66
-63
-273
-131
-52
-268
-262
-55
-134
-266
-80
-143
-311
-109
-55
-309
-230
3
-198
-250
-16
-122
-246
-103
-80
-205
-291
-184
-170
-251
-65
-48
-218
-221
-128
-127
-207
-95
-148
-353
-90
21
-321
-195
93
-131
-259
-33
-59
-229
-73
-59
-274
-102
64
-209
-278
19
9
-120
46
63
-43
87
230
67
99
377
250
61
194
170
-46
82
213
-57
-101
33
-214
-383
-61
-72
-351
-260
-157
-198
-245
-131
-154
-299
-92
129
561
1915
3258
3316
2520
1370
181
-131
257
218
-82
53
116
-215
-306
-57
-139
-262
-42
-71
-327
-185
33
-195
-265
-10
-102
-277
-105
-1
-214
-129
168
-25
-149
33
-53
-111
69
123
-22
28
79
-20
175
374
230
131
334
356
221
338
502
435
416
605
440
227
508
493
248
338
339
182
94
45
96
43
10
-1
-213
-116
-16
-271
-273
-73
-173
-338
-123
-46
-261
-171
-14
-209
-327
-85
-109
-255
-94
-109
-283
-149
9
-140
-238
-108
-115
-292
-95
2
-322
-189
105
-147
-274
17
-113
-356
-119
-123
-305
-127
22
-166
-277
-75
-109
-330
-207
-121
-310
-234
-17
-306
-319
25
-184
-314
-74
-126
-373
-211
-18
-209
-220
-48
-140
-270
-116
-53
-261
-175
-48
-297
-247
1
-184
-296
-67
-101
-363
-162
57
-215
-292
40
-87
-359
5
-65
-420
-103
89
-224
-197
66
-119
-198
65
54
-125
46
221
14
-33
207
287
154
200
181
60
168
121
9
91
124
-84
-262
-205
-140
-209
-137
-92
-268
-231
-104
-176
-356
-234
28
-17
677
1907
2772
3437
3111
1576
219
174
477
230
135
147
-80
-129
8
-103
-262
-149
-86
-211
-119
-14
-243
-228
32
-80
-191
-15
11
-139
-115
-50
-97
-65
82
20
-87
20
-19
-52
121
277
99
32
285
221
77
348
468
256
327
501
425
466
619
369
326
650
549
347
428
458
270
234
352
130
-84
48
53
-147
-82
76
-127
-257
-126
-152
-258
-99
-75
-273
-112
-31
-260
-250
-43
-130
-281
-102
-46
-257
-237
-18
-209
-397
27
50
-315
-110
-76
-324
-41
108
-253
-254
30
-149
-347
-91
-21
-232
-140
-15
-189
-287
-120
-91
-228
-86
-70
-273
-154
-45
-197
-222
-48
-74
-377
-188
46
-313
-263
55
-157
-271
0
-90
-332
-104
-54
-280
-163
-26
-180
-189
-86
-221
-259
-80
-122
-284
-115
-36
-179
-147
-65
-146
-234
-176
-81
-75
-8
8
-216
-186
78
-3
-144
55
120
40
97
71
84
264
431
199
1
219
222
11
50
182
-45
-181
-56
-161
-266
-137
-104
-201
-207
-140
-239
-240
-33
-173
-195
292
1136
2214
3263
3482
2358
922
160
63
116
194
150
-109
-73
53
-184
-221
24
-93
-219
-50
-19
-184
-237
-35
-96
-169
86
-10
-239
-62
48
-147
38
211
-58
-12
80
-48
-44
164
242
-16
51
341
204
99
341
409
275
367
491
288
393
576
241
343
633
413
341
377
324
305
212
221
-14
-70
267
-36
-211
136
-30
-255
-115
-11
-155
-223
-30
-99
-259
-114
-76
-342
-202
40
-205
-212
31
-170
-411
-84
19
-165
-78
-16
-172
-225
11
-5
-196
-45
-42
-299
-136
-7
-207
-192
-23
-158
-234
-20
-46
-253
-220
-65
-210
-170
-20
-213
-202
-40
-95
-230
-185
-26
-168
-279
-30
-74
-269
-93
-53
-277
-200
-23
-208
-313
-75
-132
-304
-57
-49
-287
-146
-95
-284
-174
3
-224
-346
9
-4
-342
-154
-21
-312
-229
19
-175
-314
-69
-77
-232
22
195
-2
-36
200
149
7
105
87
-27
42
211
17
-153
19
-83
-327
-240
-201
-386
-244
-143
-366
-272
-156
-337
-339
-93
-59
-109
749
1967
2573
2954
2566
1009
-128
-52
95
-54
10
86
-173
-230
-34
-202
-330
-90
-106
-414
-249
-3
-230
-232
11
-120
-321
-47
3
-255
-41
44
-178
-86
93
12
-88
98
159
-52
-27
167
144
78
199
161
123
357
309
231
390
356
290
390
552
468
233
405
489
208
268
340
63
68
298
135
-111
2
-27
-267
-131
89
-186
-333
-81
-178
-349
-85
-20
-267
-201
-92
-286
-259
-4
-132
-341
-153
-49
-296
-274
-67
-163
-173
-39
-107
-220
-92
-5
-239
-222
4
-163
-224
-26
-94
-216
-120
-92
-254
-139
-59
-298
-233
-51
-139
-243
-143
-93
-287
-258
-58
-235
-284
0
-200
-346
-139
-148
-209
-129
-40
-278
-284
-8
-206
-357
-124
-112
-279
-276
-185
-247
-271
-46
-115
-324
-119
-69
-296
-173
-18
-296
-307
-39
-146
-255
-126
-179
-322
-144
-20
-186
-141
81
-3
-92
73
72
-62
74
335
111
-131
91
54
-80
127
75
-241
-227
-151
-283
-289
-222
-299
-279
-87
-203
-488
-258
-55
-251
-223
109
718
1745
2970
3341
2431
1176
268
-111
14
278
144
-170
-110
-49
-277
-224
-83
-211
-234
-91
-262
-433
-67
-2
-258
-154
-9
-131
-165
-48
-105
-201
-69
-9
-154
-33
132
-104
-144
95
-3
-30
202
271
138
169
393
245
102
440
420
158
510
623
260
422
592
363
406
590
363
140
335
348
82
27
135
-64
-173
47
-56
-235
-87
-95
-307
-159
21
-217
-282
-88
-197
-276
-98
-79
-307
-265
-7
-139
-196
-74
-182
-242
-109
-129
-249
-137
-1
-180
-302
-15
-6
-293
-163
-23
-253
-194
-3
-204
-285
-21
-72
-327
-236
-93
-221
-234
-53
