0
0
0
0
0
0
0
0
0
0
0
0
0
0
0
0
0
0
0
0
0
0
0
0
0
0
0
0
0
0
0
0
0
0
0
0
0
0
0
0
0
0
0
0
0
0
0
0
0
0
0
0
0
0
0
0
0
0
0
0
0
0
0
0
0
0
0
0
0
0
0
0
0
0
0
0
0
0
0
0
0
0
0
0
0
0
0
0
0
0
0
0
0
0
0
0
0
0
0
0
0
0
0
0
0
0
0
0
0
0
0
0
0
0
0
0
0
0
0
0
0
0
0
0
0
0
0
0
0
0
0
0
0
0
0
0
0
0
0
0
0
0
0
0
0
0
0
0
0
0
0
0
0
0
0
0
0
0
0
0
0
0
0
0
0
0
0
0
0
0
0
0
0
0
0
0
0
0
0
0
0
0
0
0
0
0
0
0
0
0
0
0
0
0
0
0
0
0
0
0
-255
-109
1
-240
-209
-21
-169
-271
-46
15
-228
-162
16
-188
-213
23
-96
-267
-55
-33
-251
-30
160
-71
-26
179
50
-19
261
323
118
313
413
50
31
239
30
-169
25
2
-328
-220
-56
-324
-309
-74
-247
-378
-145
-105
-371
-398
22
730
2153
3982
4701
4035
2904
1793
896
659
588
46
-225
-72
-266
-491
-291
-303
-569
-431
-271
-514
-499
-266
-419
-558
-304
-263
-505
-355
-189
-425
-435
-147
-256
-433
-193
-170
-348
-191
-55
-245
-277
-61
-108
-222
-21
10
-201
-48
146
-51
-37
230
96
-27
220
182
-8
204
310
72
133
368
159
-23
223
187
-105
40
146
-166
-173
28
-189
-340
-71
-62
-305
-149
8
-253
-289
-41
-149
-306
-84
-71
-309
-155
15
-237
-223
53
-113
-260
-16
6
-173
-70
28
-164
-155
48
-93
-226
-29
-55
-274
-146
-14
-225
-236
12
-129
-312
-95
-105
-320
-181
-67
-298
-288
-25
-131
-327
-147
-145
-358
-174
-39
-257
-238
-46
-192
-301
-87
-123
-338
-175
-52
-281
-235
-23
-218
-350
-52
9
-188
14
151
-119
-64
229
84
-6
323
307
1
143
268
-19
-67
71
-172
-351
-120
-147
-395
-271
-119
-358
-358
-118
-282
-370
-206
-360
-269
828
2311
3602
4520
4210
2822
1619
1018
688
339
146
0
-332
-408
-227
-384
-548
-372
-376
-573
-467
-326
-526
-496
-312
-465
-505
-259
-337
-584
-372
-236
-457
-391
-196
-334
-439
-234
-192
-382
-243
-102
-305
-249
0
-157
-318
-28
31
-187
-6
152
-80
-35
251
113
-40
238
253
11
155
280
76
81
286
89
-103
126
90
-178
-52
58
-217
-203
35
-163
-312
-65
-55
-264
-161
-66
-252
-229
-20
-164
-314
-117
-124
-299
-110
22
-235
-213
40
-104
-240
-11
3
-223
-85
66
-177
-174
69
-74
-225
-9
-18
-225
-56
8
-278
-217
29
-149
-292
-66
-74
-289
-152
-32
-239
-213
1
-151
-292
-36
-21
-252
-140
-1
-144
-159
-19
-172
-305
-78
-52
-269
-130
9
-234
-214
38
-118
-248
-3
-29
-253
-71
116
-96
-50
222
27
-119
170
247
57
178
380
210
183
336
170
30
163
60
-244
-109
53
-292
-312
0
-198
-348
-76
-112
-335
-127
-124
-473
118
1463
2704
4099
4848
3896
2469
1649
1039
575
386
243
-128
-344
-177
-245
-498
-362
-266
-489
-455
-249
-377
-485
-255
-317
-539
-317
-184
-418
-399
-189
-306
-370
-159
-230
-402
-207
-83
-287
-258
-38
-170
-267
8
47
-182
-47
114
-62
-2
229
82
-22
255
315
94
179
294
84
136
383
223
128
345
236
-9
141
232
-45
-105
93
-51
-225
-24
-55
-291
-131
1
-242
-247
-35
-178
-312
-55
-49
-346
-167
-4
-280
-211
82
-138
-331
-49
-50
-292
-122
17
-206
-174
46
-146
-264
-1
-64
-282
-97
21
-207
-201
-13
-149
-258
-60
-49
-271
-171
-13
-254
-294
-1
-106
-298
-95
-107
-314
-167
-86
-286
-222
-29
-209
-319
-54
-107
-365
-177
-53
-303
-262
-31
-189
-296
-61
-92
-314
-163
-37
-273
-192
33
-155
-210
74
80
-145
-21
122
-38
32
291
194
90
273
198
-49
114
156
-227
-262
-23
-217
-391
-137
-190
-402
-202
-91
-327
-288
-40
-354
-567
324
1512
2689
4267
4778
3468
2251
1597
770
456
500
111
-322
-236
-170
-475
-486
-294
-446
-538
-309
-364
-591
-383
-277
-547
-499
-250
-406
-538
-240
-263
-498
-274
-147
-403
-376
-144
-297
-392
-109
-105
-323
-159
-5
-197
-143
84
-61
-107
118
54
-79
105
203
26
60
269
166
35
264
289
44
206
353
45
2
223
46
-121
62
-4
-259
-137
-10
-230
-232
-30
-158
-292
-83
-74
-303
-133
-6
-293
-258
-8
-171
-308
-54
-69
-322
-99
25
-236
-179
22
-136
-226
1
-38
-264
-111
24
-217
-185
46
-145
-262
-19
-65
-280
-116
-25
-270
-232
-23
-178
-266
-70
-121
-316
-159
-33
-265
-256
-13
-182
-344
-68
-53
-314
-190
-41
-271
-238
2
-183
-312
-61
-84
-319
-138
2
-256
-199
22
-186
-245
106
118
-150
-24
106
-53
77
303
142
80
330
251
-64
81
210
-118
-170
9
-191
-347
-122
-131
-370
-191
-45
-317
-296
-32
-213
-490
-160
621
1709
3388
4750
4428
3167
2163
1206
668
704
343
-176
-127
-115
-429
-393
-185
-372
-487
-271
-335
-560
-365
-230
-455
-390
-211
-410
-483
-220
-252
-457
-289
-168
-361
-301
-78
-237
-347
-85
-99
-339
-123
29
-216
-119
121
-31
-115
115
109
-76
109
256
41
72
296
120
31
288
237
55
232
329
77
82
274
53
-146
65
33
-275
-141
10
-277
-297
-21
-158
-358
-109
-117
-353
-147
-32
-291
-237
-13
-196
-303
-69
-122
-343
-126
19
-252
-233
24
-138
-277
-36
-36
-236
-102
5
-208
-177
27
-134
-264
-52
-93
-309
-119
23
-266
-284
-39
-166
-288
-76
-106
-335
-167
-49
-296
-236
-14
-190
-309
-84
-115
-344
-175
-47
-281
-240
-33
-220
-339
-77
-118
-347
-147
-23
-227
-123
83
-97
-150
76
68
-51
136
250
120
183
303
109
-16
162
84
-196
-118
-23
-281
-281
-61
-236
-332
-100
-177
-394
-176
-33
-461
-472
378
1356
2769
4471
4697
3396
2285
1459
671
531
533
6
-326
-129
-246
-528
-362
-285
-490
-446
-288
-418
-512
-318
-302
-449
-288
-218
-433
-340
-123
-336
-423
-143
-206
-397
-225
-120
-267
-234
-57
-183
-269
-13
-53
-237
-1
94
-142
-69
152
14
-75
224
241
-29
136
282
35
97
330
142
71
337
262
-7
138
200
-110
-75
109
-101
-226
-23
-93
-320
-123
-38
-303
-247
-39
-193
-271
-46
-89
-314
-163
-32
-263
-233
6
-146
-276
-5
-27
-282
-63
39
-214
-142
81
-62
-199
43
31
-292
-130
52
-230
-165
86
-156
-272
-25
-88
-276
-126
-60
-292
-208
24
-190
-308
-50
-96
-338
-169
-31
-282
-257
-17
-208
-326
-68
-121
-319
-125
-20
-255
-249
-9
-167
-333
-43
-85
-348
-152
-1
-221
-238
-56
-145
-180
82
68
-151
36
124
-70
79
301
158
148
355
214
46
162
103
-192
-195
-19
-203
-316
-106
-190
-368
-183
-109
-316
-221
12
-275
-508
88
1057
2271
4021
4871
3917
2835
2034
898
495
660
215
-259
-188
-189
-465
-444
-248
-436
-558
-327
-380
-551
-339
-291
-553
-440
-192
-418
-507
-229
-323
-511
-282
-197
-427
-360
-164
-319
-358
-106
-150
-322
-160
-62
-244
-190
26
-90
-148
117
58
-118
140
191
-65
49
262
102
39
291
253
65
231
306
94
118
208
-22
-95
100
-13
-236
-98
-33
-258
-172
-5
-229
-284
-43
-96
-286
-105
-29
-295
-251
1
-177
-307
-17
-115
-345
-77
-10
-269
-198
5
-147
-213
27
-63
-252
-56
15
-201
-120
72
-133
-194
58
-58
-269
-26
54
-235
-186
10
-184
-260
-20
-96
-291
-106
-33
-270
-197
15
-167
-265
-41
-102
-311
-136
-31
-265
-197
1
-213
-276
4
-90
-305
-60
25
-263
-211
-2
-157
-225
-29
-112
-260
-7
104
-137
-49
175
-36
-24
314
188
33
329
360
63
111
269
44
-127
-3
-78
-282
-163
-73
-284
-214
-38
-253
-333
-73
-112
-384
-343
54
835
2263
3988
4719
4083
3104
1965
887
753
692
100
-118
-45
-280
-420
-241
-335
-549
-368
-286
-530
-452
-235
-432
-544
-288
-315
-501
-301
-218
-451
-359
-152
-319
-384
-186
-222
-372
-179
-80
-332
-230
3
-180
-217
42
-7
-167
68
186
-44
61
292
79
35
337
232
22
309
387
112
225
383
154
94
312
216
-24
85
118
-142
-93
63
-208
-277
11
-76
-280
-83
-56
-317
-182
22
-205
-296
-49
-92
-303
-137
-40
-253
-186
17
-182
-264
15
-78
-259
-41
-6
-231
-158
61
-120
-224
47
-25
-226
-26
19
-219
-118
88
-111
-244
-43
-76
-260
-43
48
-249
-173
22
-210
-263
-2
-74
-261
-76
-28
-293
-209
5
-210
-306
-59
-117
-301
-77
-20
-287
-161
17
-231
-267
6
-101
-274
-21
95
-86
32
208
-34
-64
261
187
45
375
435
87
128
274
50
-61
68
-85
-295
-106
-60
-297
-187
-8
-254
-312
-52
-138
-317
-271
-203
294
1641
3340
4505
4530
3537
2262
1240
888
762
233
-15
18
-254
-400
-199
-275
-535
-362
-281
-535
-403
-213
-463
-473
-214
-338
-486
-277
-237
-448
-344
-153
-326
-380
-147
-189
-358
-184
-91
-280
-166
6
-171
-181
30
-23
-117
90
144
-59
50
257
96
47
295
238
59
279
377
167
277
404
199
138
275
150
-46
133
140
-153
-78
71
-169
-218
37
-99
-286
-50
-56
-294
-145
-3
-215
-225
-3
-77
-259
-99
10
-197
-140
34
-153
-181
65
-44
-196
38
68
-166
-56
110
-84
-153
63
-34
-228
12
23
-241
-105
46
-186
-228
21
-93
-294
-74
-6
-239
-150
32
-143
-215
-2
-103
-276
-46
-34
-287
-127
31
-234
-227
38
-104
-283
-41
-1
-285
-135
75
-185
-184
101
2
-71
158
111
-80
95
294
102
87
419
279
24
213
208
-31
-8
23
-228
-242
-28
-185
-326
-91
-105
-365
-218
-50
-294
-364
-289
-268
435
1965
3546
4514
4413
3254
1859
1075
931
585
77
70
-68
-433
-312
-177
-458
-500
-245
-358
-533
-324
-289
-511
-405
-242
-449
-469
-201
-324
-516
-272
-197
-440
-306
-96
-311
-342
-102
-187
-346
-114
-11
-220
-124
61
-115
-106
161
26
-119
171
204
-9
145
286
91
96
351
265
93
283
306
85
230
308
1
-10
150
-49
-203
6
-20
-275
-134
-19
-255
-238
-27
-185
-312
-69
-82
-316
-115
29
-272
-242
16
-146
-244
6
-31
-236
-102
31
-141
-165
23
-75
-211
-13
47
-182
-123
47
-185
-208
77
-83
-283
-64
-47
-282
-144
35
-210
-242
-15
-134
-300
-141
-86
-271
-155
-18
-251
-248
-27
-152
-288
-82
-107
-326
-128
-52
-335
-295
-44
-156
-307
-72
-78
-333
-187
-37
-234
-251
3
-65
-172
93
78
-134
29
185
15
59
384
265
29
193
170
-106
-54
41
-216
-280
-99
-240
-391
-195
-183
-399
-271
-147
-336
-292
-250
-402
195
1685
3168
4246
4502
3518
2148
1249
869
582
146
21
-88
-426
-358
-236
-510
-531
-313
-460
-577
-318
-310
-559
-438
-255
-497
-514
-233
-376
-553
-318
-267
-496
-364
-173
-406
-450
-173
-250
-386
-140
-122
-349
-196
-3
-192
-173
60
-66
-145
107
120
-69
86
219
1
21
289
177
36
277
268
11
171
292
20
-32
84
-65
-208
-23
-46
-367
-229
-44
-317
-331
-73
-213
-362
-109
-142
-421
-245
-69
-315
-314
-47
-209
-378
-92
-85
-369
-214
-43
-259
-273
-27
-127
-330
-120
-79
-304
-147
1
-243
-270
-24
-152
-311
-59
-84
-324
-150
-11
-233
-277
-75
-166
-318
-114
-99
-343
-223
-79
-277
-247
-76
-260
-362
-99
-114
-373
-206
-77
-318
-278
-54
-202
-349
-105
-111
-391
-225
-46
-296
-306
-69
-212
-338
-94
-108
-348
-163
14
-201
-133
111
-104
-174
187
123
-94
211
391
94
39
255
64
-179
-1
-61
-353
-221
-84
-338
-340
-122
-315
-422
-134
-175
-370
-268
-324
-146
979
2564
3908
4584
4128
2850
1635
985
800
389
13
-7
-291
-491
-302
-385
-596
-426
-327
-528
-491
-313
-482
-591
-341
-342
-550
-383
-284
-536
-484
-245
-398
-493
-248
-289
-477
-287
-164
-378
-358
-128
-247
-346
-82
-92
-291
-105
26
-132
-69
142
32
-34
208
151
-65
157
297
49
90
319
157
17
238
195
-79
47
110
-217
-221
10
-183
-336
-101
-143
-349
-176
-63
-283
-265
-40
-199
-344
-129
-146
-337
-187
-80
-317
-258
-18
-219
-361
-124
-100
-309
-187
-47
-242
-231
-41
-176
-263
-49
-97
-306
-146
-38
-268
-248
-43
-195
-317
-81
-93
-318
-164
-81
-315
-251
-47
-228
-341
-105
-133
-345
-189
-56
-280
-266
-29
-208
-346
-60
-70
-310
-171
-77
-295
-226
-22
-229
-340
-95
-145
-358
-156
-40
-297
-268
-45
-225
-368
-99
-56
-227
-68
70
-104
-81
119
-14
-76
211
239
92
237
281
-4
-14
175
-56
-270
-91
-130
-339
-212
-110
-338
-343
-100
-227
-372
-84
-177
-592
-47
1044
2108
3720
4883
4144
2740
1963
1095
504
576
305
-229
-263
-142
-421
-544
-282
-349
-596
-403
-286
-565
-488
-240
-447
-537
-267
-303
-487
-307
-210
-457
-389
-109
-308
-442
-170
-197
-333
-159
-111
-276
-213
-16
-159
-248
14
18
-163
26
154
-34
37
226
73
18
271
231
43
245
329
105
188
370
163
63
247
107
-120
25
49
-220
-176
-2
-210
-304
-67
-120
-335
-148
-62
-316
-228
-21
-228
-286
-60
-169
-317
-107
-88
-325
-226
-2
-180
-303
-62
-92
-310
-132
-4
-241
-207
14
-194
-290
-1
-74
-275
-90
-39
-248
-158
14
-206
-310
-47
-96
-321
-132
-41
-278
-221
-45
-252
-314
-50
-143
-348
-141
-49
-298
-255
-25
-191
-315
-81
-119
-303
-115
-64
-317
-215
-5
-213
-308
-68
-122
-330
-124
-41
-284
-165
74
-68
-98
128
36
-108
174
254
14
185
431
163
-14
225
134
-153
-34
-29
-303
-258
-64
-235
-321
-114
-202
-368
-182
-83
-273
-371
-287
73
1161
2886
4344
4666
3835
2583
1404
830
777
323
-108
-17
-155
-448
-320
-265
-543
-484
-237
-412
-538
-327
-383
-565
-356
-263
-485
-416
-228
-416
-469
-185
-244
-448
-261
-151
-340
-280
-92
-265
-338
-45
-89
-280
-53
29
-176
-56
148
-70
-108
204
146
-18
186
279
80
152
331
145
94
347
267
66
233
224
-56
-9
107
-125
-219
-6
-106
-300
-98
-57
-287
-189
-23
-233
-297
-82
-172
-298
-84
-52
-282
-179
-8
-215
-245
-8
-97
-248
-29
7
-207
-107
33
-171
-239
33
-36
-272
-66
19
-228
-145
49
-161
-241
13
-76
-301
-90
-10
-236
-155
-25
-234
-289
-56
-131
-311
-123
-101
-325
-198
-22
-254
-286
-8
-159
-366
-138
-95
-306
-205
-42
-219
-271
-55
-151
-331
-115
-57
-327
-193
51
-134
-122
145
17
-174
63
184
1
91
329
203
89
284
170
-91
85
63
-291
-207
-71
-311
-331
-124
-259
-402
-158
-127
-380
-216
-95
-510
-319
830
2098
3493
4746
4408
2816
1806
1237
628
394
277
-88
-348
-213
-213
-521
-475
-285
-455
-520
-328
-402
-552
-337
-308
-549
-395
-234
-452
-439
-184
-299
-471
-232
-213
-465
-284
-65
-296
-328
-55
-192
-351
-81
-9
-231
-108
100
-84
-95
161
104
-29
183
237
-20
107
338
137
77
302
241
74
220
243
-1
73
230
-45
-173
47
-54
-232
-47
-46
-283
-154
-8
-231
-281
-46
-116
-303
-94
-19
-269
-184
38
-203
-289
-14
-105
-270
-37
17
-237
-111
65
-194
-210
85
-54
-253
-4
12
-253
-115
56
-172
-140
76
-124
-245
10
7
-278
-157
12
-240
-239
7
-155
-318
-74
-41
-309
-183
-5
-219
-220
-20
-196
-357
-80
-90
-334
-162
-51
-274
-270
-36
-136
-285
-85
-77
-307
-165
24
-209
-301
-40
-83
-235
46
85
-158
18
148
-95
-44
283
175
24
324
323
6
103
211
-94
-158
23
-182
-354
-109
-131
-424
-276
-119
-368
-340
-125
-246
-374
-317
-190
355
1736
3411
4437
4362
3417
2211
1155
759
656
176
-76
-93
-403
-469
-255
-433
-586
-327
-330
-623
-504
-307
-509
-515
-267
-396
-572
-335
-278
-519
-412
-249
-451
-423
-160
-311
-454
-211
-204
-414
-241
-63
-265
-217
28
-139
-219
64
80
-102
41
204
27
5
257
170
-7
223
285
76
235
385
101
74
288
105
-70
110
57
-216
-84
61
-202
-248
-24
-157
-310
-82
-97
-319
-169
-64
-317
-293
-47
-193
-299
-79
-134
-349
-162
-26
-253
-231
-21
-156
-287
-66
-49
-257
-110
-1
-222
-208
30
-115
-282
-15
-11
-266
-89
27
-284
-256
12
-142
-285
-60
-56
-316
-182
-28
-290
-287
-22
-166
-322
-104
-113
-362
-228
-59
-257
-282
-69
-180
-337
-113
-110
-344
-176
-32
-266
-250
-25
-200
-344
-77
-91
-316
-156
-43
-283
-277
29
-45
-186
53
45
-198
14
273
59
45
334
236
50
219
194
-92
3
90
-241
-276
-47
-225
-377
-130
-128
-368
-243
-140
-347
-265
-223
-470
43
1436
2899
4139
4713
3895
2381
1443
1024
615
262
140
-70
-368
-300
-206
-439
-457
-253
-413
-549
-328
-348
-548
-363
-230
-500
-477
-225
-370
-490
-256
-254
-473
-298
-129
-384
-350
-81
-250
-383
-108
-101
-320
-105
36
-200
-106
138
-45
-143
136
153
-51
152
319
76
111
311
156
68
338
346
76
180
296
50
22
173
-38
-203
20
2
-290
-154
-6
-263
-218
-20
-225
-320
-54
-100
-353
-164
-61
-291
-240
-43
-193
-301
-84
-115
-314
-148
-9
-222
-191
12
-165
-270
-36
-50
-227
-60
10
-243
-202
12
-140
-269
-45
-57
-287
-130
-6
-243
-200
23
-174
-292
-39
-70
-295
-148
-37
-264
-230
-2
-188
-312
-59
-115
-351
-179
-20
-244
-253
-30
-182
-312
-43
-50
-325
-200
-55
-276
-217
54
-95
-166
104
45
-186
24
216
15
14
297
222
41
186
159
-117
-40
54
-272
-322
-83
-263
-429
-143
-174
-459
-273
-148
-387
-285
-165
-479
-147
1160
2590
3936
4693
3941
2414
1450
1030
621
269
161
-88
-395
-303
-228
-472
-465
-252
-436
-604
-354
-347
-571
-364
-201
-457
-430
-180
-357
-474
-236
-256
-411
-283
-240
-405
-316
-112
-274
-382
-112
-124
-325
-107
42
-185
-133
128
-9
-128
132
165
-18
136
241
24
68
332
196
64
290
279
118
243
289
11
9
233
-31
-234
43
-22
-275
-90
-32
-281
-208
-14
-204
-316
-65
-87
-303
-90
6
-320
-254
69
-134
-314
-31
-63
-298
-98
35
-216
-178
48
-126
-233
10
15
-213
-65
62
-211
-183
23
-147
-236
6
-52
-282
-123
4
-209
-210
-5
-198
-276
23
-103
-362
-152
-40
-285
-208
35
-184
-295
-12
-91
-338
-127
-28
-281
-206
29
-171
-277
-19
-97
-319
-107
10
-274
-237
16
-173
-294
-41
-108
-311
-54
108
-110
-50
185
-27
-106
221
204
34
255
392
129
99
281
87
-46
144
-40
-349
-167
-76
-320
-262
-76
-294
-360
-95
-136
-291
-224
-355
-352
606
2085
3482
4601
4505
3159
1921
1236
824
451
196
58
-253
-380
-209
-295
-528
-386
-269
-527
-495
-270
-454
-536
-299
-332
-533
-399
-269
-474
-412
-197
-373
-448
-197
-226
-450
-264
-96
-302
-257
-74
-219
-262
-3
-12
-254
-101
87
-122
-54
208
39
-24
227
165
-9
216
320
63
165
384
166
82
300
224
-9
87
106
-171
-136
38
-167
-252
-40
-126
-324
-154
-63
-312
-289
-72
-215
-306
-99
-179
-348
-96
-59
-330
-215
-16
-192
-261
-35
-86
-260
-95
-30
-244
-181
23
-156
-261
-20
-74
-297
-97
40
-235
-192
42
-214
-315
-26
-107
-308
-128
-49
-262
-235
-44
-215
-317
-51
-121
-369
-166
-40
-285
-246
-75
-253
-306
-61
-126
-335
-137
-14
-270
-212
3
-197
-264
-32
-136
-344
-127
-8
-264
-225
13
-139
-176
105
44
-142
76
145
-105
43
299
124
114
411
276
0
184
214
-122
-103
35
-214
-311
-79
-172
-396
-174
-74
-335
-286
-70
-199
-404
-299
86
945
2569
4223
4650
3906
2885
1671
802
808
558
-50
-82
-64
-412
-419
-221
-416
-507
-284
-354
-549
-350
-220
-487
-456
-209
-398
-501
-241
-275
-453
-285
-205
-360
-291
-130
-276
-365
-102
-146
-336
-97
-59
-296
-147
97
-83
-122
153
99
-65
126
220
-11
76
304
106
92
359
243
69
272
338
105
165
312
63
-56
148
-1
-238
-35
1
-271
-219
-24
-183
-238
-31
-121
-307
-116
-39
-313
-244
-21
-214
-327
-64
-84
-320
-172
-54
-269
-180
43
-181
-265
-5
-62
-260
-81
-6
-256
-137
64
-197
-267
-4
-90
-247
-46
-38
-297
-233
-37
-210
-319
-89
-133
-338
-143
-50
-331
-238
-22
-269
-318
-74
-188
-371
-146
-80
-321
-255
-82
-250
-315
-62
-124
-334
-140
-46
-294
-246
-21
-199
-321
-93
-142
-337
-125
-9
-239
-133
100
-66
-116
119
52
-111
163
284
53
253
436
81
-15
202
70
-173
-79
-41
-287
-257
-52
-258
-387
-132
-197
-399
-177
-97
-329
-396
-245
235
1381
3090
4413
4468
3561
2430
1266
698
793
369
-153
-75
-203
-462
-309
-290
-548
-432
-239
-493
-554
-291
-364
-562
-401
-295
-495
-431
-175
-345
-523
-279
-287
-477
-291
-181
-391
-344
-120
-276
-326
-44
-118
-283
-40
67
-164
-119
134
5
-70
220
182
-25
203
309
54
155
373
189
146
373
261
90
285
256
-51
5
146
-105
-210
18
-97
-340
-143
-32
-279
-230
-14
-225
-324
-61
-147
-322
-121
-66
-298
-231
-38
-236
-303
-51
-146
-352
-96
25
-285
-233
32
-173
-280
-7
-39
-270
-128
-26
-272
-220
14
-177
-267
-13
-102
-307
-110
-31
-268
-233
-36
-174
-252
-66
-136
-318
-163
-51
-233
-212
-29
-172
-281
-39
-82
-338
-126
-8
-284
-175
57
-204
-287
-9
-71
-256
-97
-7
-223
-183
10
-148
-175
121
80
-106
105
203
26
175
346
159
182
394
243
9
114
138
-110
-128
-35
-255
-332
-69
-147
-384
-189
-119
-361
-259
-37
-293
-530
-28
894
2063
3816
4922
4152
2850
1981
1042
556
610
196
-276
-155
-133
-433
-416
-220
-386
-498
-258
-306
-491
-288
-228
-485
-400
-174
-351
-411
-179
-243
-395
-201
-135
-372
-281
-55
-204
-288
-72
-92
-255
-33
79
-188
-113
133
-33
-84
181
119
-44
172
245
34
142
329
120
69
344
281
71
247
316
62
113
258
11
-76
132
-35
-256
-35
-15
-305
-228
-12
-211
-306
-45
-115
-316
-107
-43
-288
-216
-24
-185
-263
-22
-62
-268
-90
-2
-240
-181
25
-153
-227
10
-67
-285
-77
50
-219
-177
50
-156
-218
50
-75
-280
-92
-21
-243
-207
6
-181
-295
-24
-104
-330
-114
-46
-312
-252
-40
-216
-295
-58
-119
-299
-160
-95
-315
-266
-51
-219
-311
-95
-132
-306
-132
-29
-230
-126
108
-61
-118
88
30
-59
176
288
65
110
310
83
-84
164
77
-245
-116
-73
-341
-296
-110
-297
-399
-135
-204
-418
-183
-97
-441
-479
147
1046
2446
4217
4744
3729
2610
1650
768
613
528
-34
-261
-145
-319
-528
-332
-264
-545
-493
-283
-476
-575
-309
-362
-579
-359
-258
-505
-400
-191
-416
-474
-222
-280
-450
-260
-169
-402
-294
-93
-292
-318
-56
-117
-272
-64
34
-157
-83
148
-18
-118
132
111
-55
136
250
11
48
285
114
7
289
247
-10
118
173
-108
-88
96
-139
-269
-20
-113
-350
-100
-7
-333
-254
-30
-265
-339
-81
-161
-341
-128
-72
-343
-226
-6
-234
-299
-35
-100
-326
-132
25
-196
-196
2
-135
-217
32
9
-230
-75
31
-222
-163
33
-181
-280
-14
-86
-322
-112
-28
-319
-256
-27
-239
-316
-75
-175
-348
-147
-54
-301
-245
-14
-229
-336
-62
-132
-321
-82
-49
-329
-244
-12
-207
-348
-45
-29
-197
44
126
-127
-49
220
123
16
258
307
60
122
223
-39
-71
102
-137
-340
-124
-127
-382
-234
-107
-360
-276
-74
-317
-323
-56
-368
-460
558
1910
3176
4457
4630
3251
1992
1391
830
432
308
65
-330
-331
-203
-386
-472
-319
-376
-547
-389
-305
-528
-460
-237
-431
-519
-241
-322
-547
-290
-175
-469
-367
-122
-331
-402
-135
-186
-384
-152
1
-260
-205
73
-71
-175
129
122
-146
68
243
-18
56
341
134
15
301
251
61
301
397
89
119
346
156
44
246
136
-136
-8
47
-191
-114
52
-154
-233
-31
-84
-271
-120
-15
-247
-189
2
-196
-269
-12
-12
-230
-142
-46
-232
-192
15
-114
-210
8
-38
-215
-28
17
-222
-124
64
-90
-128
10
-110
-276
-64
50
-231
-198
49
-131
-254
-9
-82
-304
-97
-4
-247
-211
-10
-188
-294
-19
-56
-293
-155
-77
-278
-223
-19
-220
-334
-45
-110
-352
-150
-31
-288
-265
-49
-197
-311
-80
-62
-232
-26
122
-133
-81
175
-5
-50
247
242
130
241
236
-11
-39
144
-55
-276
-96
-161
-406
-208
-109
-379
-314
-73
-282
-392
-55
-227
-608
98
1346
2452
3966
4867
3908
2615
1854
972
463
522
262
-308
-335
-162
-401
-515
-357
-447
-603
-401
-340
-588
-512
-282
-445
-509
-240
-312
-541
-357
-239
-460
-379
-141
-321
-446
-210
-204
-417
-274
-110
-310
-268
-7
-156
-234
41
4
-166
56
177
-66
15
282
94
12
295
239
14
206
358
134
143
340
165
-9
173
154
-140
-55
49
-220
-205
25
-181
-300
-32
-149
-382
-140
-36
-330
-285
-28
-225
-337
-52
-97
-348
-200
-43
-254
-260
-32
-200
-298
-9
-77
-324
-117
35
-198
-203
-9
-165
-253
4
-26
-231
-90
4
-226
-180
24
-161
-264
-21
-81
-314
-86
22
-264
-204
13
-157
-262
-53
-78
-288
-132
26
-183
-201
-33
-190
-290
-51
-47
-278
-130
-5
-283
-219
32
-175
-288
-36
-45
-192
-14
115
-83
-55
166
42
-7
228
184
58
354
415
7
32
265
40
-144
-5
-114
-352
-147
-82
-375
-300
-82
-251
-387
-162
-92
-338
-370
68
894
2284
3996
4752
4073
2977
1858
837
669
677
48
-200
-29
-281
-456
-256
-345
-581
-383
-281
-510
-444
-282
-461
-539
-258
-307
-597
-351
-165
-449
-413
-174
-351
-464
-187
-197
-370
-176
-105
-320
-237
3
-137
-249
-15
1
-170
50
205
-54
16
254
79
10
288
264
56
257
393
143
180
426
251
94
299
223
-44
80
141
-107
-123
51
-104
-232
-14
-86
-313
-126
-22
-253
-223
-2
-147
-338
-141
-63
-243
-179
-51
-251
-263
-25
-182
-289
-41
-86
-279
-66
72
-213
-224
42
-78
-219
4
-16
-265
-93
57
-221
-195
38
-142
-245
-52
-83
-222
-99
-20
-247
-222
19
-143
-252
-22
-68
-304
-138
20
-185
-208
-39
-166
-276
-19
-37
-292
-148
-1
-192
-197
-4
-122
-270
-62
-43
-269
-108
73
-118
-59
195
17
-106
109
167
73
162
315
186
144
334
171
-29
148
72
-236
-138
-46
-282
-263
-34
-206
-363
-83
-114
-373
-156
-103
-474
-49
1189
2415
3841
4866
4115
2560
1723
1121
538
386
295
-124
-368
-201
-240
-486
-352
-296
-585
-520
-277
-439
-559
-326
-367
-570
-354
-230
-488
-476
-214
-304
-441
-198
-196
-467
-321
-172
-382
-304
-51
-216
-322
-55
-50
-240
-45
104
-117
-50
213
74
-51
179
243
13
117
305
116
150
372
189
36
278
233
-22
117
182
-88
-105
66
-124
-313
-72
-67
-352
-173
-29
-318
-298
-40
-216
-358
-54
-127
-423
-160
-18
-309
-270
-22
-173
-302
-64
-55
-264
-132
-10
-214
-187
31
-117
-254
-10
-21
-257
-101
13
-273
-243
13
-179
-287
-17
-40
-286
-156
-11
-225
-242
-51
-197
-320
-80
-86
-349
-192
-12
-264
-268
-59
-220
-330
-91
-84
-307
-199
-78
-286
-260
-32
-194
-351
-80
-71
-343
-178
-44
-299
-279
-8
-124
-231
88
95
-158
4
134
-34
58
293
213
117
231
185
-60
24
140
-172
-250
-75
-236
-356
-142
-193
-438
-240
-73
-337
-321
-104
-425
-447
618
1930
3293
4685
4692
3201
1975
1335
778
464
323
25
-315
-233
-147
-454
-467
-212
-382
-556
-329
-325
-554
-344
-191
-487
-425
-163
-351
-468
-214
-210
-384
-232
-124
-344
-318
-74
-230
-342
-70
-89
-306
-94
80
-157
-134
141
7
-111
171
153
-65
136
274
47
107
358
179
58
325
348
134
244
314
52
83
265
22
-162
44
-23
-272
-125
-34
-259
-245
7
-162
-378
-117
-108
-339
-169
-65
-305
-238
-5
-162
-299
-91
-70
-230
-78
26
-207
-202
53
-89
-213
18
-35
-245
-64
65
-192
-170
78
-117
-244
-22
-72
-248
-106
-18
-243
-227
16
-142
-303
-66
-83
-293
-137
19
-232
-249
48
-138
-326
-60
-62
-293
-137
-15
-274
-254
-36
-178
-281
-95
-31
-138
-57
69
-78
-94
121
58
0
255
278
114
229
297
39
31
280
42
-250
-47
-78
-370
-217
-46
-285
-330
-114
-208
-314
-75
-122
-553
-363
527
1536
3039
4541
4503
3236
2216
1333
605
554
362
-167
-261
-103
-309
-484
-300
-321
-507
-365
-311
-514
-418
-256
-420
-497
-280
-252
-466
-356
-174
-392
-396
-144
-283
-400
-140
-147
-401
-220
-43
-266
-249
-18
-136
-213
62
36
-187
11
170
-51
19
280
89
-3
258
243
19
172
342
99
93
310
142
-24
177
147
-131
-37
91
-180
-286
-50
-153
-321
-84
-94
-345
-211
-65
-295
-310
-64
-206
-401
-142
-112
-361
-202
-62
-296
-266
3
-160
-317
-46
-20
-256
-108
69
-166
-189
50
-84
-237
-6
27
-209
-125
-12
-219
-193
-8
-166
-278
-66
-33
-263
-193
-30
-238
-253
-12
-141
-269
-40
-55
-311
-187
-42
-272
-279
-32
-165
-328
-87
-67
-262
-50
117
-129
-141
107
16
-51
227
212
20
158
229
-11
-103
43
-79
-280
-125
-171
-449
-312
-160
-398
-407
-170
-303
-443
-186
-158
-606
-522
238
1103
2588
4282
4557
3459
2451
1508
594
496
410
-138
-325
-210
-393
-553
-360
-390
-671
-524
-330
-577
-566
-324
-494
-620
-370
-383
-609
-418
-275
-508
-449
-218
-367
-506
-289
-258
-479
-313
-105
-328
-349
-109
-207
-307
-69
-26
-218
-54
133
-67
-44
221
88
-56
227
271
21
136
312
126
103
277
149
11
141
96
-153
-107
24
-222
-301
-58
-198
-383
-119
-67
-386
-306
-96
-313
-331
-90
-225
-395
-148
-144
-416
-243
-95
-321
-317
-85
-204
-386
-142
-123
-379
-223
-97
-326
-282
-35
-175
-350
-117
-90
-369
-205
-37
-326
-340
-57
-181
-340
-132
-195
-417
-258
-115
-309
-339
-137
-236
-402
-189
-152
-398
-248
-67
-315
-352
-94
-199
-370
-180
-136
-344
-232
-92
-305
-247
19
-108
-213
23
-4
-215
15
214
-33
0
340
104
-167
99
93
-191
-120
-74
-337
-350
-167
-317
-475
-235
-219
-497
-350
-144
-325
-401
-349
-212
651
2215
3725
4524
4227
3185
1911
958
752
479
-24
-67
-188
-509
-390
-294
-577
-564
-347
-515
-643
-412
-380
-620
-499
-324
-527
-506
-313
-506
-606
-305
-315
-571
-434
-298
-472
-428
-194
-331
-459
-200
-159
-392
-251
-44
-240
-254
43
16
-163
38
161
-28
114
297
31
25
305
210
77
280
297
54
137
261
7
-97
95
-48
-279
-58
-37
-327
-230
-59
-306
-357
-111
-244
-383
-125
-129
-397
-270
-163
-383
-344
-125
-254
-373
-158
-160
-406
-273
-63
-267
-314
-119
-223
-334
-120
-115
-334
-164
-34
-298
-288
-53
-167
-288
-88
-101
-318
-197
-75
-298
-320
-69
-160
-340
-125
-114
-379
-253
-95
-262
-265
-102
-263
-403
-153
-111
-335
-234
-91
-324
-327
-75
-218
-342
-79
-126
-404
-210
0
-204
-195
83
-33
-229
26
138
-48
67
237
114
100
244
82
-93
70
17
-328
-280
-91
-340
-409
-153
-283
-450
-228
-218
-431
-286
-166
-563
-489
573
1719
3040
4568
4621
3210
2187
1406
609
460
405
-72
-369
-225
-317
-618
-480
-332
-564
-560
-346
-490
-636
-381
-370
-612
-447
-298
-504
-496
-287
-394
-534
-301
-223
-448
-327
-140
-376
-405
-134
-241
-392
-134
-74
-261
-133
-40
-221
-135
115
-21
-89
191
183
1
160
324
149
122
375
290
95
265
294
37
68
178
-67
-177
20
-88
-301
-74
-51
-332
-173
-28
-255
-276
-126
-251
-352
-140
-156
-373
-219
-79
-303
-306
-64
-196
-305
-74
-118
-299
-160
-35
-217
-221
15
-116
-282
-28
3
-260
-107
62
-228
-242
39
-142
-357
-114
-66
-289
-158
9
-244
-293
4
-143
-343
-45
-18
-302
-179
-43
-261
-238
2
-121
-288
-83
-40
-282
-197
-44
-244
-229
-9
-172
-302
-65
-61
-271
-107
78
-118
-106
156
69
-103
112
206
23
174
380
192
148
309
176
32
167
96
-209
-135
31
-198
-291
-72
-169
-389
-166
-107
-364
-160
4
-445
-448
486
1576
2952
4581
4790
3413
2316
1618
803
568
533
9
-298
-89
-160
-455
-341
-215
-438
-452
-212
-354
-556
-320
-248
-470
-332
-195
-424
-407
-191
-317
-434
-181
-176
-390
-232
-93
-322
-346
-101
-204
-298
-58
-68
-233
-67
102
-93
-71
216
102
-15
260
304
49
183
401
172
147
427
288
86
319
327
51
159
263
-14
-79
87
-65
-221
-18
-17
-286
-190
5
-219
-251
-7
-157
-303
-44
-34
-332
-228
-11
-228
-245
40
-122
-316
-66
-30
-261
-143
45
-172
-205
34
-86
-152
43
-26
-195
-80
23
-196
-205
55
-107
-298
-75
-50
-270
-130
28
-235
-270
-5
-101
-275
-99
-62
-285
-176
11
-220
-253
10
-120
-294
-70
-46
-272
-151
-8
-264
-264
-9
-138
-265
-25
-24
-267
-64
155
-55
-60
175
45
-71
240
277
23
209
355
52
7
237
52
-193
-39
-46
-299
-231
-60
-291
-344
-88
-197
-369
-185
-108
-362
-447
-54
662
1988
3824
4701
4133
3119
2017
992
731
676
106
-143
-4
-236
-433
-255
-267
-503
-378
-226
-471
-455
-192
-348
-535
-286
-228
-484
-335
-133
-377
-433
-196
-249
-395
-207
-154
-366
-245
-33
-195
-249
-21
-111
-264
16
71
-177
32
199
-55
23
231
79
28
260
271
81
222
365
159
155
360
244
55
192
170
-130
-23
139
-155
-248
-44
-152
-317
-133
-95
-299
-197
-52
-259
-279
-17
-155
-359
-125
-88
-280
-191
-63
-242
-259
-18
-133
-278
-16
14
-262
-130
47
-191
-211
76
-53
-256
-31
-10
-235
-115
11
-232
-255
-2
-126
-282
-67
-78
-267
-136
-14
-253
-294
-46
-192
-372
-116
-86
-308
-171
-48
-270
-277
-56
-183
-321
-101
-68
-297
-215
-80
-300
-285
-17
-215
-391
-81
-22
-245
-54
167
-110
-150
146
83
-28
173
258
102
125
219
29
-78
71
-73
-304
-133
-151
-408
-258
-90
-353
-398
-105
-259
-481
-167
-227
-667
-134
1094
2233
3749
4808
4013
2645
1863
1025
481
487
217
-296
-370
-196
-374
-554
-368
-359
-586
-481
-327
-550
-565
-319
-435
-530
-318
-356
-512
-318
-213
-477
-455
-207
-335
-437
-193
-173
-389
-297
-144
-311
-296
-5
-119
-281
-24
-13
-219
-37
140
-24
-6
209
117
14
253
289
62
202
391
167
105
339
198
-20
190
131
-173
-59
19
-234
-257
-35
-145
-325
-115
-103
-353
-210
-57
-273
-276
-58
-159
-343
-135
-77
-343
-205
-31
-286
-283
-11
-142
-325
-77
-49
-299
-103
28
-262
-242
10
-135
-294
-46
-22
-279
-152
0
-251
-259
-3
-131
-244
-23
-125
-374
-192
-42
-258
-280
-71
-207
-345
-104
-104
-347
-169
-65
-334
-282
-51
-188
-315
-117
-122
-331
-164
-11
-254
-311
-89
-170
-350
-101
-35
-332
-241
-50
-272
-281
42
-49
-216
51
108
-170
-46
221
45
16
305
240
31
177
196
-130
-108
49
-254
-333
-106
-236
-374
-212
-206
-430
-339
-157
-341
-318
-198
-425
-104
1196
2670
3940
4664
4016
2657
1624
999
636
311
143
-70
-426
-364
-217
-527
-559
-303
-479
-602
-354
-364
-601
-475
-287
-470
-502
-296
-412
-529
-291
-256
-436
-351
-232
-392
-411
-179
-274
-408
-178
-142
-316
-173
-3
-202
-185
81
-70
-178
122
139
-99
69
260
56
60
294
145
25
295
301
71
206
359
82
-11
173
7
-198
-9
2
-247
-115
-22
-278
-254
-24
-174
-360
-93
-80
-379
-214
-24
-266
-278
-20
-169
-327
-88
-77
-288
-170
2
-220
-297
-41
-151
-303
-50
-32
-268
-154
12
-195
-222
-8
-155
-327
-100
-90
-344
-183
-36
-295
-284
-18
-154
-352
-132
-91
-338
-212
-55
-285
-305
-72
-191
-322
-83
-109
-342
-188
-37
-260
-271
-39
-156
-283
-90
-100
-309
-186
-34
-218
-215
-25
-196
-345
-118
-28
-193
-53
140
-112
-183
105
79
-32
166
244
101
177
242
-45
-109
88
-119
-332
-123
-145
-411
-302
-137
-354
-385
-160
-259
-384
-179
-284
-617
11
1264
2395
3890
4806
3878
2479
1702
986
518
439
172
-239
-295
-159
-381
-557
-319
-313
-576
-470
-276
-474
-498
-275
-401
-525
-271
-262
-501
-351
-166
-385
-421
-151
-254
-417
-200
-171
-397
-241
-49
-250
-220
-4
-110
-215
-10
38
-140
60
226
-58
-27
281
161
23
292
328
93
255
462
227
154
380
245
66
249
182
-121
0
120
-152
-185
33
-86
-286
-58
18
-226
-102
12
-235
-229
30
-109
-323
-23
3
-304
-97
53
-224
-190
70
-74
-248
-17
-10
-235
-38
130
-129
-158
69
-44
-161
88
105
-186
-65
120
-138
-169
77
-69
-246
-13
8
-222
-81
67
-141
-134
119
-10
-234
-21
40
-215
-64
116
-161
-199
59
-45
-203
67
65
-245
-87
56
-165
-181
3
-95
-193
59
90
-99
59
238
24
1
330
266
116
377
397
96
177
337
60
-74
67
-69
-243
-69
-59
-249
-131
-34
-255
-276
-33
-113
-288
-233
-149
369
1770
3472
4537
4547
3585
2226
1233
953
742
225
38
20
-258
-314
-120
-258
-462
-270
-220
-443
-356
-202
-379
-426
-172
-303
-484
-195
-167
-413
-267
-94
-322
-318
-64
-178
-299
-110
-108
-277
-118
43
-151
-139
122
22
-99
151
153
-73
107
288
40
34
314
180
25
283
312
51
253
458
160
109
324
174
-16
157
117
-146
-61
53
-167
-198
19
-129
-323
-107
-63
-339
-207
21
-251
-274
5
-127
-269
-27
-13
-266
-119
32
-230
-202
80
-68
-249
-43
-8
-208
-78
49
-189
-198
62
-90
-294
-51
-44
-242
-106
-28
-230
-215
-24
-145
-282
-97
-45
-305
-211
-38
-299
-274
-1
-172
-333
-79
-67
-307
-194
-70
-285
-270
4
-135
-331
-87
-70
-319
-155
75
-96
-138
87
-6
-107
157
192
44
218
321
42
-4
203
17
-196
-53
-145
-397
-236
-143
-369
-355
-150
-253
-409
-216
-166
-410
-481
-220
393
1641
3427
4534
4223
3207
2057
973
641
625
91
-200
-97
-298
-473
-304
-334
-566
-466
-313
-485
-542
-328
-389
-528
-347
-351
-559
-399
-211
-438
-451
-219
-361
-463
-235
-260
-442
-278
-118
-308
-315
-88
-215
-321
-44
6
-196
-47
131
-50
-67
140
53
-82
177
224
-57
76
270
55
27
304
201
-11
191
193
-100
-2
135
-154
-232
-18
-146
-320
-133
-110
-328
-247
-102
-275
-290
-109
-233
-346
-90
-67
-359
-232
-36
-274
-289
-18
-180
-338
-110
-71
-283
-213
-43
-268
-286
-30
-146
-295
-113
-87
-318
-202
-13
-266
-292
-23
-170
-320
-101
-109
-330
-161
-22
-321
-321
-70
-241
-375
-121
-93
-361
-300
-123
-295
-317
-118
-223
-356
-155
-127
-346
-254
-127
-329
-362
-110
-187
-327
-56
-18
-225
-69
60
-174
-102
256
126
-27
287
275
-76
27
191
-104
-268
-120
-244
-437
-214
-185
-473
-341
-148
-377
-443
-206
-255
-512
-456
-27
803
2316
3984
4525
3854
2899
1701
683
647
554
-85
-256
-164
-457
-573
-345
-478
-655
-433
-423
-642
-475
-305
-561
-599
-296
-381
-611
-373
-288
-560
-434
-254
-507
-512
-222
-354
-539
-257
-186
-443
-289
-85
-303
-295
-30
-100
-265
-68
16
-196
-26
203
-55
-79
207
89
-48
172
190
-4
138
270
26
9
211
52
-155
-6
1
-255
-178
-30
-260
-314
-69
-203
-385
-122
-105
-340
-224
-128
-361
-360
-85
-198
-401
-167
-89
-343
-245
-57
-270
-255
-2
-187
-312
-52
-51
-274
-161
13
-184
-244
-33
-128
-283
-58
-45
-305
-189
-38
-258
-292
-37
-163
-357
-138
-90
-338
-249
-50
-263
-292
-7
-188
-400
-126
-98
-356
-251
-86
-305
-336
-67
-161
-340
-100
-70
-349
-224
-9
-215
-256
69
-15
-188
54
55
-164
13
250
51
67
367
169
-62
186
158
-214
-137
-13
-320
-389
-145
-250
-445
-234
-186
-431
-331
-125
-313
-501
-332
77
981
2617
4152
4490
3787
2747
1545
764
730
441
-63
-91
-171
-454
-419
-285
-493
-540
-292
-391
-580
-395
-349
-605
-483
-287
-500
-486
-238
-361
-517
-295
-240
-516
-398
-154
-392
-428
-142
-237
-384
-167
-138
-359
-191
31
-185
-216
56
-43
-172
113
115
-137
63
249
7
11
255
164
18
237
298
9
104
259
-13
-75
90
-83
-269
-65
-40
-306
-212
-49
-278
-325
-74
-163
-354
-100
-66
-377
-228
-27
-255
-323
-89
-164
-328
-108
-69
-324
-196
4
-238
-262
11
-116
-298
-70
-16
-289
-204
-18
-251
-281
-24
-131
-304
-90
-47
-306
-193
-2
-282
-358
-63
-181
-356
-127
-99
-330
-243
-79
-269
-317
-89
-140
-312
-143
-91
-340
-224
-11
-203
-281
-69
-138
-318
-110
-32
-261
-128
98
-68
-94
114
18
-104
159
252
38
223
421
80
6
247
80
-155
-38
-77
-317
-216
-73
-286
-322
-99
-233
-388
-163
-97
-358
-458
-150
502
1753
3578
4712
4319
3241
2151
1077
694
756
215
-213
-60
-202
-426
-243
-243
-467
-371
-270
-461
-440
-220
-311
-482
-311
-216
-415
-353
-199
-378
-383
-148
-261
-420
-193
-105
-336
-241
-8
-249
-308
3
-86
-270
-11
72
-178
-32
187
8
-5
221
132
-1
237
284
-8
115
362
123
60
379
270
18
252
266
-70
7
155
-110
-139
102
-82
-279
-85
-100
-316
-167
6
-226
-252
-21
-161
-313
-80
-17
-280
-204
-6
-204
-229
21
-110
-280
-24
26
-224
-113
67
-128
-182
15
-79
-222
-15
-10
-272
-155
15
-220
-253
47
-47
-308
-116
-3
-223
-174
-34
-231
-297
-53
-127
-312
-94
-46
-307
-188
-1
-203
-250
-50
-177
-340
-95
-56
-306
-161
95
-129
-177
144
3
-163
183
233
-28
224
470
141
-3
215
80
-152
25
-38
-379
-276
-81
-280
-327
-127
-238
-390
-206
-159
-340
-366
-358
-241
595
2166
3658
4428
4184
2970
1578
877
725
363
-14
-36
-205
-458
-322
-268
-542
-501
-286
-464
-551
-311
-418
-606
-350
-288
-542
-421
-220
-408
-475
-247
-268
-456
-287
-202
-450
-351
-109
-288
-353
-89
-155
-316
-83
8
-188
-116
54
-99
-106
143
49
-116
138
196
-68
65
273
119
55
240
186
22
192
198
-82
-10
105
-133
-166
29
-101
-275
-91
-92
-372
-246
-30
-275
-355
-81
-171
-372
-144
-58
-351
-255
-18
-246
-262
-32
-158
-341
-124
12
-233
-190
24
-204
-310
-34
-72
-243
-92
-39
-238
-175
-5
-202
-243
8
-138
-311
-76
-47
-305
-197
-5
-236
-259
-19
-132
-310
-158
-91
-261
-209
-72
-275
-331
-48
-147
-329
-81
-103
-359
-218
-50
-250
-324
-97
-150
-254
22
92
-149
-36
143
-10
36
260
187
105
298
279
-14
18
153
-109
-224
-59
-198
-374
-183
-137
-390
-306
-79
-249
-385
-143
-209
-592
-198
867
1972
3511
4783
4230
2898
2074
1088
485
610
334
-235
-276
-151
-421
-512
-249
-353
-625
-442
-339
-580
-458
-249
-491
-552
-277
-376
-558
-277
-213
-508
-405
-188
-372
-411
-154
-197
-351
-190
-144
-328
-208
-6
-191
-261
46
11
-202
41
142
-98
22
218
-2
21
304
179
-8
201
309
92
170
353
114
29
257
129
-129
56
115
-183
-115
20
-190
-239
-57
-122
-322
-147
-64
-329
-254
-40
-224
-258
-17
-103
-275
-129
-72
-278
-165
53
-145
-209
-9
-81
-188
-12
36
-193
-130
85
-121
-215
17
-52
-246
-96
-5
-213
-187
54
-138
-299
1
-71
-290
-69
-9
-256
-184
12
-205
-282
25
-53
-306
-91
-21
-273
-172
40
-168
-253
-2
-80
-281
-91
8
-230
-195
13
-105
-129
111
73
-79
79
152
-13
98
291
155
194
391
206
2
151
140
-173
-142
-10
-246
-317
-106
-178
-362
-157
-91
-352
-255
7
-279
-546
146
1191
2352
4018
4885
3909
2611
1820
903
506
569
140
-294
-182
-164
-476
-462
-267
-494
-604
-315
-354
-587
-468
-352
-520
-446
-228
-418
-507
-234
-297
-499
-274
-236
-499
-339
-94
-319
-402
-139
-198
-360
-132
-37
-261
-167
62
-106
-171
127
62
-118
141
196
-41
59
272
96
46
302
231
73
268
290
-1
66
279
24
-122
135
32
-231
-63
-7
-265
-198
-19
-222
-303
-86
-150
-319
-104
-63
-357
-252
-56
-256
-306
-77
-84
-297
-186
-62
-271
-195
5
-173
-233
5
-80
-294
-105
-20
-228
-169
-9
-172
-226
16
-82
-305
-99
-40
-283
-186
23
-193
-284
-5
-93
-288
-66
-3
-231
-146
-14
-223
-237
-30
-113
-268
-75
-31
-258
-137
45
-161
-259
-6
-57
-248
-1
131
-69
-33
118
-5
10
313
241
46
316
349
24
82
214
-9
-140
-28
-160
-359
-181
-93
-332
-271
-76
-274
-346
-82
-146
-490
-364
353
1347
2888
4572
4723
3519
2483
1496
731
681
454
-108
-214
-64
-280
-429
-269
-381
-530
-332
-291
-505
-425
-241
-409
-458
-211
-301
-511
-275
-140
-413
-371
-105
-300
-397
-91
-173
-377
-148
-73
-284
-168
46
-143
-199
99
57
-171
19
164
-57
0
230
60
-41
215
192
4
220
306
83
169
333
158
54
247
135
-172
-12
70
-229
-205
-14
-182
-295
-86
-133
-357
-185
-64
-286
-263
-66
-216
-317
-86
-100
-267
-98
-36
-245
-161
33
-132
-224
-4
-30
-249
-83
60
-183
-158
48
-144
-254
-22
-74
-265
-85
9
-239
-210
29
-142
-252
-7
-62
-316
-133
12
-273
-263
-33
-190
-283
-59
-121
-311
-147
-32
-259
-281
-58
-175
-265
-38
-110
-322
-78
96
-120
-61
114
-54
-82
187
196
75
249
284
-16
-13
179
-49
-217
-75
-189
-376
-236
-161
-413
-382
-156
-302
-403
-197
-194
-493
-420
157
1002
2567
4315
4596
3567
2525
1489
663
601
427
-157
-259
-110
-413
-573
-283
-299
-565
-476
-361
-587
-520
-260
-470
-575
-278
-279
-523
-380
-220
-452
-408
-188
-359
-405
-179
-246
-414
-197
-84
-343
-271
-3
-166
-252
-3
-58
-212
57
144
-115
-37
174
27
-54
202
171
-60
136
263
22
85
293
90
-37
173
90
-121
3
12
-230
-212
-60
-241
-357
-126
-133
-326
-225
-130
-277
-250
-30
-174
-343
-87
-74
-334
-176
-22
-247
-217
-15
-154
-232
-1
1
-253
-131
50
-161
-159
46
-113
-223
2
-62
-262
-99
19
-169
-180
0
-134
-248
-54
-107
-308
-135
-27
-258
-229
-10
-174
-304
-72
-73
-264
-131
-34
-243
-234
-54
-201
-300
-58
-104
-309
-105
-3
-228
-160
99
-19
-141
72
77
-68
127
283
141
182
319
141
10
145
40
-262
-175
-49
-306
-332
-99
-243
-414
-186
-173
-388
-217
-68
-403
-397
423
1462
2815
4407
4615
3377
2405
1523
640
509
487
-10
-314
-155
-272
-561
-407
-280
-509
-510
-293
-433
-587
-320
-309
-556
-388
-251
-482
-446
-209
-319
-429
-250
-265
-478
-303
-133
-362
-339
-99
-221
-311
-49
-84
-310
-58
94
-198
-124
172
39
-76
170
206
-31
92
254
15
46
362
163
-64
234
234
-75
44
161
-100
-146
60
-100
-303
-71
-104
-338
-138
-71
-328
-282
-70
-253
-353
-75
-139
-371
-209
-92
-295
-276
-54
-221
-343
-93
-131
-330
-127
30
-257
-266
13
-169
-282
-25
-95
-285
-99
-25
-282
-223
4
-166
-285
-76
-94
-302
-185
-85
-293
-282
-54
-184
-301
-98
-160
-347
-191
-90
-248
-211
-48
-232
-371
-131
-140
-340
-162
-53
-310
-292
-38
-187
-332
-69
-38
-241
-73
104
-64
-105
107
74
-41
200
260
76
198
280
34
-14
134
-70
-303
-133
-171
-383
-181
-114
-381
-352
-148
-305
-422
-147
-250
-562
30
1231
2423
3921
4829
3941
2592
1804
962
449
469
243
-266
-350
-171
-409
-569
-304
-339
-612
-501
-357
-524
-508
-311
-409
-513
-304
-294
-520
-385
-241
-464
-412
-151
-350
-509
-223
-211
-454
-301
-104
-308
-298
-53
-221
-311
-1
-17
-242
-15
147
-88
-53
184
69
-47
186
254
23
116
328
112
42
312
173
-81
132
106
-211
-76
49
-247
-268
-8
-166
-347
-118
-81
-325
-269
-65
-226
-291
-44
-174
-362
-132
-146
-399
-236
-64
-304
-287
-6
-164
-347
-91
-62
-305
-144
10
-256
-248
9
-122
-279
-82
-83
-315
-161
-27
-287
-245
20
-156
-333
-86
-41
-272
-197
-64
-217
-250
-48
-167
-318
-69
-107
-346
-182
-28
-253
-276
19
-120
-345
-86
-43
-320
-203
-44
-268
-246
-11
-160
-311
-67
-2
-185
-9
169
-105
-143
167
120
-7
233
342
132
156
254
34
-5
151
-79
-342
-127
-79
-376
-263
-67
-311
-377
-116
-225
-379
-107
-237
-508
301
1683
2943
4283
4753
3520
2082
1445
911
449
326
132
-239
-321
-174
-334
-513
-280
-263
-539
-399
-221
-495
-525
-261
-401
-551
-311
-269
-503
-379
-169
-393
-447
-158
-247
-453
-201
-142
-399
-260
-74
-294
-301
11
-95
-274
2
66
-179
-42
173
-16
-46
206
130
-27
167
214
45
188
370
180
83
252
152
-42
119
118
-156
-100
5
-201
-240
-68
-176
-288
-73
-78
-315
-179
-61
-346
-344
-46
-158
-326
-125
-105
-322
-194
-11
-198
-275
-64
-134
-288
-47
9
-246
-174
-21
-214
-251
-6
-95
-284
-77
-57
-310
-177
20
-198
-282
-47
-143
-307
-41
-28
-294
-185
-64
-247
-267
-40
-133
-303
-72
-42
-272
-143
13
-232
-265
-8
-125
-317
-99
5
-266
-214
3
-184
-210
70
30
-114
41
120
-11
108
294
140
162
358
178
-39
131
169
-137
-146
-33
-242
-299
-98
-192
-367
-143
-82
-347
-253
-63
-329
-569
-55
837
2008
3812
4845
4119
2848
1882
1007
589
591
182
-264
-146
-154
-465
-432
-263
-458
-519
-287
-401
-556
-317
-271
-514
-427
-220
-402
-459
-207
-321
-530
-297
-206
-417
-315
-120
-290
-339
-65
-126
-322
-88
19
-207
-79
114
-102
-66
172
-3
-122
190
264
-6
100
334
117
27
329
265
58
293
320
29
130
229
-84
-143
95
-35
-269
-122
-53
-277
-214
-40
-230
-274
-61
-174
-332
-94
-44
-328
-231
0
-233
-298
-7
-111
-324
-81
25
-230
-146
52
-161
-202
41
-31
-198
-32
1
-246
-119
58
-170
-230
18
-53
-270
-65
-14
-253
-135
7
-237
-298
-44
-84
-288
-130
-46
-288
-215
-50
-243
-296
-72
-120
-326
-124
-14
-265
-204
-37
-238
-303
-33
-51
-201
33
98
-186
-38
246
56
35
352
259
1
158
197
-77
-45
57
-221
-317
-83
-183
-391
-187
-107
-379
-350
-138
-250
-283
-213
-490
-300
937
2410
3720
4575
4083
2607
1499
1006
632
218
64
-70
-412
-386
-254
-475
-545
-334
-427
-618
-386
-317
-567
-444
-256
-486
-545
-286
-325
-519
-315
-180
-451
-407
-160
-347
-411
-124
-189
-360
-119
-12
-279
-230
3
-175
-213
65
2
-132
105
192
-71
-2
262
97
30
277
219
39
239
320
62
111
281
52
-71
133
14
-261
-86
-10
-307
-229
-10
-234
-353
-99
-119
-339
-201
-123
-353
-287
-74
-215
-299
-119
-153
-323
-197
-101
-290
-230
2
-171
-293
-68
-100
-263
-76
-7
-246
-166
32
-184
-296
-27
-103
-347
-134
-33
-288
-235
-25
-230
-360
-122
-170
-364
-161
-81
-316
-230
-13
-232
-383
-120
-146
-346
-192
-123
-287
-232
-95
-261
-329
-72
-148
-368
-176
-102
-304
-238
-58
-206
-232
59
-8
-238
-40
135
-58
15
271
112
58
291
176
-102
-19
21
-277
-297
-96
-284
-413
-180
-240
-477
-270
-129
-387
-305
-81
-457
-515
505
1669
2886
4358
4577
3326
2292
1497
643
398
407
2
-420
-294
-197
-482
-552
-379
-500
-632
-390
-410
-648
-470
-337
-560
-520
-321
-465
-527
-291
-339
-548
-359
-178
-434
-461
-208
-364
-456
-177
-203
-396
-229
-115
-293
-231
-20
-159
-194
106
70
-142
31
161
-33
23
280
126
7
288
243
-19
180
304
15
29
205
-63
-195
43
-69
-293
-115
-60
-290
-227
-67
-253
-321
-86
-160
-374
-174
-57
-327
-308
-57
-224
-355
-62
-78
-324
-155
-44
-290
-240
8
-179
-324
-56
-61
-271
-112
-4
-243
-248
-26
-163
-295
-79
-125
-339
-156
-37
-278
-293
-61
-159
-304
-95
-126
-364
-174
-54
-307
-241
-26
-227
-328
-80
-135
-372
-193
-10
-236
-287
-70
-220
-366
-98
-89
-319
-187
-76
-296
-267
-34
-199
-274
19
-7
-205
-15
96
-132
-48
204
45
25
389
299
-48
79
176
-152
-192
-11
-234
-365
-101
-137
-412
-265
-142
-364
-317
-75
-178
-437
-349
203
1106
2609
4218
4597
3776
2774
1628
694
719
555
-75
-149
-128
-423
-433
-242
-444
-592
-335
-354
-555
-382
-325
-593
-518
-254
-418
-548
-291
-314
-555
-345
-197
-433
-395
-192
-323
-384
-164
-192
-372
-230
-86
-278
-274
-43
-127
-230
23
79
-163
-27
152
-38
26
273
101
-50
223
267
29
182
363
70
-18
235
59
-155
50
-4
-249
-122
-13
-191
-200
-65
-189
-296
-68
-59
-309
-201
-73
-261
-247
-42
-180
-310
-79
-74
-310
-184
-25
-243
-226
10
-146
-263
-40
-47
-268
-136
24
-199
-208
27
-129
-300
-54
-30
-277
-120
21
-262
-245
9
-176
-292
-50
-113
-290
-119
-26
-273
-288
-26
-174
-330
-88
-75
-315
-212
-52
-259
-275
-45
-160
-341
-116
-23
-302
-260
-69
-269
-312
-62
-175
-369
-110
-17
-228
-63
119
-108
-114
129
67
-35
247
363
68
119
272
10
-55
143
-73
-311
-82
-90
-345
-172
-24
-330
-341
-33
-201
-359
-104
-276
-461
470
1895
3162
4442
4698
3364
2019
1340
834
482
283
106
-246
-364
-182
-347
-530
-334
-314
-583
-470
-289
-548
-555
-270
-409
-543
-263
-322
-580
-366
-169
-393
-437
-182
-275
-427
-187
-158
-430
-280
-32
-249
-228
64
-144
-287
11
21
-164
7
193
-6
-63
230
193
-38
179
256
28
188
327
138
113
248
137
-13
144
113
-172
-95
51
-172
-236
-31
-144
-314
-124
-120
-365
-226
-57
-295
-300
-42
-168
-329
-65
-40
-310
-160
11
-231
-237
30
-113
-296
-46
21
-212
-115
54
-157
-212
29
-94
-271
-25
-10
-266
-158
45
-169
-252
-16
-103
-256
-82
-68
-306
-164
31
-207
-224
19
-137
-268
30
-33
-329
-130
48
-210
-258
-46
-155
-278
-82
-30
-242
-165
19
-182
-256
16
-50
-209
60
116
-122
32
231
72
82
299
279
128
195
209
-5
66
162
-183
-299
-81
-211
-381
-103
-86
-417
-274
-72
-285
-255
-78
-402
-302
881
2334
3701
4727
4395
2798
1601
1225
787
297
208
29
-346
-284
-160
-436
-487
-247
-357
-537
-361
-311
-518
-405
-203
-426
-521
-254
-323
-511
-282
-221
-472
-351
-108
-319
-379
-102
-223
-359
-67
-60
-331
-187
35
-166
-203
70
-4
-148
91
146
-95
23
242
72
-5
229
223
30
197
279
41
133
306
61
-61
121
-3
-190
-11
-67
-319
-179
-87
-332
-330
-83
-184
-391
-212
-108
-329
-259
-60
-246
-308
-62
-153
-355
-87
8
-277
-180
26
-209
-264
-2
-121
-267
-45
-23
-264
-160
7
-237
-289
-11
-120
-334
-103
-63
-310
-179
-28
-290
-320
-65
-210
-360
-116
-103
-346
-242
-69
-298
-327
-75
-207
-361
-141
-98
-347
-251
-54
-244
-332
-103
-150
-371
-169
-62
-299
-166
106
-90
-227
23
23
-94
141
231
55
122
212
-19
-68
143
-26
-336
-163
-91
-371
-315
-152
-349
-408
-171
-263
-455
-198
-208
-631
-223
990
2186
3682
4805
4106
2577
1694
1044
493
342
184
-220
-385
-192
-313
-567
-374
-296
-563
-467
-278
-524
-539
-267
-407
-567
-339
-290
-486
-422
-270
-424
-477
-215
-274
-468
-223
-168
-438
-298
-88
-306
-337
-62
-95
-227
-57
-4
-215
-108
126
-38
-58
158
44
-104
105
192
-9
85
276
83
25
279
163
-92
87
130
-160
-115
82
-139
-288
-47
-108
-346
-150
-78
-343
-242
-32
-202
-278
-74
-121
-324
-133
-55
-286
-201
-44
-196
-234
-37
-124
-278
-75
-49
-294
-191
-6
-170
-224
-33
-95
-281
-105
-28
-262
-215
-48
-188
-284
-79
-125
-345
-175
-76
-279
-200
-32
-265
-373
-93
-128
-349
-187
-122
-338
-255
-36
-241
-353
-82
-169
-404
-194
-86
-307
-233
-56
-264
-307
-43
-121
-238
48
61
-199
-79
122
29
15
186
178
98
205
219
18
8
93
-131
-274
-120
-189
-360
-219
-156
-349
-285
-107
-294
-369
-78
-249
-609
69
1262
2348
3871
4776
3825
2565
1873
931
424
515
192
-273
-262
-185
-456
-546
-296
-389
-623
-418
-329
-572
-464
-286
-486
-511
-290
-362
-530
-327
-254
-509
-401
-198
-380
-411
-177
-230
-391
-212
-113
-316
-236
-23
-187
-253
7
-15
-181
43
155
-97
-19
232
69
-10
236
194
-4
187
313
104
167
328
108
12
197
89
-143
3
81
-184
-174
26
-152
-291
-76
-101
-276
-95
-22
-257
-192
4
-199
-306
-55
-67
-269
-115
-27
-254
-175
-6
-212
-290
-22
-35
-231
-37
28
-253
-190
54
-123
-239
2
-60
-234
-91
-32
-212
-177
-3
-179
-270
-42
-95
-305
-158
-43
-280
-253
5
-195
-327
-47
-109
-354
-188
-104
-329
-214
3
-224
-344
-113
-150
-296
-96
-68
-316
-212
6
-175
-268
-37
-147
-344
-66
67
-143
-77
117
-55
-72
270
225
71
325
381
91
105
275
59
-128
48
-76
-367
-166
-74
-342
-266
-63
-248
-345
-106
-102
-337
-316
35
807
2197
3866
4651
4099
3128
2004
876
697
737
94
-145
-21
-346
-480
-233
-317
-562
-412
-295
-525
-478
-262
-450
-490
-202
-319
-558
-373
-244
-417
-378
-189
-344
-432
-175
-198
-381
-198
-117
-338
-230
21
-181
-291
8
-10
-223
-17
125
-102
-6
272
67
-40
246
204
-4
155
264
114
165
326
141
44
286
171
-107
30
66
-220
-166
30
-176
-288
-60
-97
-335
-170
-38
-277
-236
-14
-199
-322
-99
-150
-347
-170
-58
-281
-229
-19
-196
-278
-29
-71
-322
-153
13
-251
-248
-10
-121
-239
-71
-114
-313
-146
-51
-287
-231
-6
-195
-304
-53
-116
-321
-145
-61
-307
-288
-53
-163
-329
-147
-130
-354
-194
-56
-286
-247
-38
-211
-331
-75
-115
-356
-189
-75
-343
-309
-20
-196
-356
-99
-143
-346
-138
-28
-253
-253
-93
-176
-174
44
-6
-193
-17
129
-61
5
267
192
102
276
226
-7
60
92
-174
-260
-101
-226
-349
-172
-202
-393
-248
-114
-349
-256
-19
-416
-505
519
1776
3066
4496
4589
3203
2129
1432
670
411
385
-5
-388
-269
-190
-477
-501
-302
-459
-596
-376
-408
-606
-414
-289
-489
-470
-284
-401
-495
-261
-303
-542
-351
-181
-405
-419
-178
-294
-388
-131
-164
-379
-183
-39
-273
-216
58
-64
-156
91
87
-82
79
207
14
-10
221
132
-10
220
230
41
196
303
34
29
214
-16
-134
55
-50
-260
-139
-71
-265
-222
-9
-176
-341
-96
-94
-301
-91
8
-283
-226
27
-121
-244
-34
-49
-253
-84
38
-187
-167
64
-97
-230
36
-19
-243
-43
66
-145
-151
20
-131
-271
-13
-34
-272
-77
-24
-293
-160
42
-188
-291
-46
-68
-298
-118
42
-273
-255
-3
-238
-303
-26
-104
-313
-139
-37
-259
-211
-21
-205
-296
-37
-79
-291
-131
-29
-266
-243
1
-183
-306
-19
-63
-324
-111
66
-141
-68
153
-24
-185
101
212
-6
141
369
186
141
305
108
-83
86
10
-274
-153
-61
-313
-293
-90
-268
-393
-121
-152
-334
-163
-236
-303
667
2262
3594
4550
4419
3033
1714
1082
806
448
157
72
-218
-428
-280
-306
-535
-410
-261
-496
-494
-282
-404
-525
-323
-305
-514
-321
-183
-440
-414
-199
-332
-426
-159
-163
-424
-297
-117
-303
-285
-42
-206
-302
-25
-59
-247
-45
112
-96
-55
206
86
-54
193
209
6
165
249
34
85
340
195
38
264
220
-5
151
188
-119
-93
94
-99
-220
3
-50
-316
-118
35
-254
-240
30
-145
-294
-21
-21
-289
-123
57
-215
-221
7
-136
-232
-10
-11
-219
-100
44
-174
-154
93
-65
-219
20
35
-207
-58
91
-178
-150
98
-89
-235
0
15
-207
-106
44
-160
-182
34
-111
-225
6
-45
-274
-92
46
-230
-241
2
-119
-240
-26
-16
-250
-130
33
-211
-197
46
-137
-278
-42
-35
-259
-107
39
-165
-127
133
56
-89
92
143
0
154
315
139
170
333
135
-5
170
91
-253
-134
8
-258
-254
-58
-197
-319
-98
-92
-334
-177
-53
-427
-205
946
2181
3661
4964
4511
2869
1859
1287
676
466
357
-108
-345
-122
-197
-460
-326
-249
-471
-472
-270
-395
-541
-284
-267
-537
-374
-165
-421
-473
-197
-318
-472
-182
-186
-437
-235
-72
-288
-274
-73
-209
-295
3
3
-248
-37
102
-142
-47
199
30
-91
206
198
-79
114
301
71
67
302
184
53
265
249
-14
70
160
-74
-89
48
-173
-321
-72
-100
-360
-204
-54
-306
-323
-79
-206
-371
-114
-86
-382
-209
-21
-306
-269
-5
-176
-291
-67
-59
-277
-153
10
-198
-200
22
-102
-241
-33
-44
-270
-111
23
-262
-273
-18
-139
-295
-97
-87
-354
-223
-47
-262
-275
-102
-239
-361
-140
-136
-366
-230
-103
-384
-357
-45
-219
-378
-120
-134
-389
-280
-143
-328
-289
-81
-246
-352
-79
-35
-257
-83
106
-150
-142
197
124
-43
241
281
-46
67
191
-89
-137
-11
-215
-394
-162
-161
-418
-282
-141
-392
-387
-127
-237
-397
-353
-264
262
1645
3375
4371
4249
3301
1948
966
794
611
47
-98
-92
-435
-469
-263
-425
-557
-353
-358
-578
-440
-286
-539
-577
-274
-378
-567
-303
-249
-502
-388
-218
-445
-453
-199
-286
-408
-214
-186
-357
-212
-76
-305
-274
61
-77
-277
5
39
-184
-13
170
-43
-72
186
85
-61
193
170
-64
129
266
48
34
241
62
-168
51
67
-234
-153
-12
-281
-302
-65
-220
-384
-177
-155
-346
-227
-107
-293
-313
-130
-217
-338
-142
-124
-327
-181
-23
-239
-257
-37
-177
-343
-95
-61
-319
-190
-49
-290
-265
-18
-182
-321
-84
-119
-370
-203
3
-257
-345
-69
-191
-378
-123
-114
-343
-192
-74
-309
-292
-67
-235
-370
-130
-122
-406
-299
-110
-353
-330
-64
-223
-382
-162
-127
-358
-234
-72
-318
-337
-37
-105
-304
-74
38
-217
-109
109
-80
-42
244
167
55
242
207
-86
29
159
-215
-311
-92
-291
-432
-187
-218
-450
-285
-129
-389
-389
-90
-367
-614
228
1427
2646
4215
4740
3534
2360
1636
735
384
446
62
-375
-302
-235
-516
-542
-325
-485
-654
-392
-363
-630
-466
-312
-579
-559
-300
-408
-527
-305
-295
-519
-384
-204
-405
-404
-136
-295
-462
-204
-185
-397
-228
-59
-272
-229
23
-100
-220
19
59
-167
-19
184
-24
-54
203
121
-29
174
219
10
109
251
17
-27
175
10
-199
2
-11
-316
-190
-36
-257
-256
-70
-223
-353
-131
-142
-370
-216
-38
-288
-300
-38
-217
-395
-138
-80
-290
-171
-68
-296
-247
-21
-171
-312
-86
-63
-264
-101
7
-250
-245
-13
-179
-341
-55
-63
-367
-206
-29
-228
-249
-57
-151
-327
-139
-80
-331
-225
-49
-253
-290
-85
-187
-356
-153
-96
-336
-223
-17
-233
-274
-57
-187
-308
-67
-70
-313
-183
-6
-233
-264
-15
-161
-340
-20
75
-222
-61
151
-93
-49
240
90
5
372
377
45
160
273
-67
-140
64
-109
-308
-126
-106
-346
-259
-102
-280
-287
-64
-168
-358
-312
-86
608
1998
3717
4667
4261
3239
2076
1014
761
720
160
-121
-81
-359
-425
-217
-385
-557
-337
-319
-566
-434
-294
-507
-472
-236
-372
-507
-287
-234
-448
-358
-221
-418
-394
-134
-254
-408
-143
-103
-324
-201
-25
-211
-226
35
-41
-229
-3
112
-104
24
197
-9
16
288
181
6
219
274
52
173
348
105
41
269
106
-77
126
74
-204
-115
28
-199
-249
-10
-114
-298
-119
-71
-309
-221
-31
-235
-266
-17
-152
-327
-64
-46
-292
-123
29
-213
-224
41
-74
-249
-9
38
-211
-116
60
-148
-155
77
-62
-226
-39
-37
-255
-109
53
-184
-226
22
-97
-295
-46
-7
-290
-150
2
-215
-195
-16
-170
-278
-45
-22
-259
-171
9
-197
-273
-3
-91
-263
-41
-18
-241
-158
-4
-183
-214
20
-95
-262
-29
-2
-209
-18
203
-15
-93
173
126
18
272
319
179
299
369
130
69
198
3
-209
-55
-32
-307
-195
-4
-247
-309
-82
-166
-368
-100
-69
-530
-153
1046
2240
3725
4923
4267
2739
1968
1231
613
565
334
-170
-321
-136
-275
-466
-291
-302
-517
-370
-225
-478
-492
-247
-366
-470
-253
-261
-469
-337
-151
-367
-433
-172
-270
-420
-153
-132
-346
-179
-15
-237
-215
74
-61
-216
24
94
-95
36
238
3
-12
265
104
-15
248
253
63
207
350
133
110
367
234
22
252
241
-85
30
170
-118
-168
96
-46
-295
-51
6
-251
-131
2
-223
-237
4
-125
-293
-54
-11
-273
-146
90
-168
-257
5
-116
-296
-16
26
-257
-99
58
-190
-211
49
-70
-277
-33
-22
-242
-86
4
-235
-223
-16
-132
-272
-86
-42
-262
-160
-13
-239
-255
-23
-147
-280
-45
-44
-274
-119
23
-218
-237
-32
-113
-259
-88
-17
-252
-173
-5
-227
-261
-24
-109
-255
-58
-17
-187
-25
147
-93
-111
214
165
42
306
346
94
176
293
32
-38
153
-71
-330
-112
-97
-356
-225
-57
-299
-336
-74
-206
-326
-102
-238
-325
618
2159
3569
4672
4657
3237
1859
1294
908
423
215
87
-277
-336
-130
-278
-501
-332
-256
-492
-419
-236
-438
-475
-224
-321
-500
-303
-214
-429
-359
-152
-335
-377
-114
-224
-383
-152
-130
-339
-206
-32
-228
-276
2
-46
-228
10
102
-121
0
170
-6
-25
218
134
-41
182
245
45
186
356
129
110
331
170
-41
138
132
-187
-107
37
-227
-241
-29
-169
-350
-178
-116
-326
-190
-32
-278
-274
-44
-191
-325
-91
-89
-280
-126
26
-188
-220
-2
-121
-281
-53
1
-247
-133
41
-161
-206
-21
-144
-301
-60
-24
-271
-148
-2
-233
-264
-32
-173
-360
-116
-64
-333
-239
-58
-285
-297
-56
-205
-362
-147
-114
-349
-225
-51
-302
-353
-78
-192
-418
-174
-95
-329
-169
81
-113
-173
68
-24
-138
134
182
-2
206
304
-66
-93
149
-78
-309
-113
-136
-404
-277
-106
-356
-367
-135
-278
-443
-232
-121
-508
-527
245
1156
2634
4412
4697
3529
2479
1588
657
504
479
-102
-296
-107
-308
-525
-319
-300
-588
-505
-318
-508
-539
-320
-408
-567
-367
-332
-572
-410
-212
-422
-463
-229
-299
-455
-207
-164
-418
-287
-138
-311
-311
-92
-151
-291
-42
45
-207
-98
118
-73
-103
210
121
-75
180
200
-39
120
317
113
20
262
177
-64
131
142
-141
-65
32
-203
-258
-51
-178
-346
-108
-80
-335
-224
-39
-262
-302
-69
-199
-354
-160
-141
-317
-186
-53
-290
-293
-35
-182
-348
-90
-50
-310
-182
18
-220
-276
-21
-161
-356
-85
-54
-334
-188
-10
-251
-300
-85
-166
-334
-165
-115
-358
-217
-59
-337
-322
-65
-230
-372
-93
-126
-386
-216
-67
-260
-293
-117
-226
-342
-123
-144
-355
-212
-78
-270
-278
-56
-82
-184
-47
-12
-152
-1
187
19
20
301
185
-37
139
134
-172
-106
-11
-320
-376
-111
-245
-434
-186
-186
-425
-282
-131
-320
-359
-304
-308
380
1880
3347
4335
4442
3471
2170
1186
766
559
159
6
-110
-428
-350
-227
-534
-579
-317
-433
-613
-395
-337
-614
-465
-261
-513
-518
-279
-392
-515
-282
-248
-485
-386
-174
-369
-440
-187
-265
-409
-166
-117
-314
-176
3
-178
-194
64
-9
-94
118
75
-110
49
219
31
26
295
187
1
230
295
37
141
325
31
-72
145
-31
-203
-26
-47
-239
-166
-62
-219
-228
-54
-214
-387
-114
-78
-371
-215
-45
-301
-268
11
-166
-378
-128
-57
-313
-250
-54
-226
-261
-25
-147
-277
-61
-80
-276
-147
9
-203
-248
27
-70
-283
-104
-81
-283
-142
-29
-266
-303
-42
-115
-298
-98
-92
-322
-185
-58
-277
-239
-22
-211
-362
-105
-109
-374
-218
-52
-269
-273
-59
-182
-339
-86
-55
-369
-230
-41
-296
-251
56
-65
-190
52
98
-140
-6
232
19
60
427
219
-23
244
212
-97
-59
-2
-249
-278
-98
-261
-419
-159
-119
-403
-300
-129
-322
-326
-307
-373
361
1821
3296
4348
4450
3473
2144
1173
802
587
152
-21
-165
-462
-348
-230
-521
-575
-319
-446
-622
-359
-336
-573
-401
-278
-518
-456
-274
-465
-547
-298
-279
-497
-347
-184
-443
-449
-155
-256
-428
-169
-123
-355
-174
-7
-228
-236
43
1
-118
146
176
-112
74
310
39
23
337
245
61
278
308
86
192
279
19
-40
142
-3
-161
-6
-59
-257
-157
-76
-293
-286
-36
-174
-350
-86
-58
-381
-292
-62
-246
-297
-57
-204
-385
-105
-63
-316
-168
-23
-241
-207
9
-109
-270
-71
-39
-303
-135
29
-209
-186
0
-118
-250
-56
-6
-257
-144
6
-260
-279
-28
-149
-324
-110
-77
-318
-199
0
-236
-317
-57
-171
-350
-115
-105
-329
-175
-56
-287
-271
-61
-215
-358
-106
-63
-346
-242
-22
-271
-321
-14
-71
-211
-10
38
-167
-35
186
21
32
305
244
83
233
194
-77
40
118
-200
-280
-95
-213
-347
-136
-155
-388
-212
-102
-359
-278
-106
-418
-317
913
2358
3655
4768
4351
2777
1756
1200
705
414
300
32
-342
-318
-228
-447
-468
-270
-427
-570
-330
-342
-578
-409
-240
-504
-510
-254
-389
-540
-303
-245
-467
-357
-176
-381
-384
-123
-288
-400
-115
-127
-321
-151
7
-173
-186
60
1
-123
147
154
-89
118
291
84
78
298
197
61
329
353
67
196
345
60
45
275
64
-158
37
15
-273
-109
18
-255
-216
-33
-204
-299
-71
-87
-347
-239
-73
-292
-290
-34
-162
-301
-95
-94
-298
-147
44
-200
-264
-8
-116
-240
-18
-28
-244
-136
13
-176
-194
-3
-169
-320
-100
-74
-282
-180
-33
-260
-278
-6
-160
-337
-79
-84
-355
-191
-25
-255
-241
-38
-183
-293
-76
-76
-286
-144
-3
-229
-236
-33
-159
-281
-35
-67
-317
-128
43
-165
-192
54
-22
-128
109
146
-25
125
292
127
136
324
123
-72
150
85
-273
-181
-65
-357
-310
-62
-259
-380
-164
-163
-346
-185
-82
-489
-335
747
1922
3397
4813
4558
3007
1940
1253
598
426
318
-114
-332
-150
-247
-516
-359
-267
-502
-445
-210
-362
-541
-320
-250
-519
-385
-210
-481
-441
-178
-343
-475
-201
-203
-440
-283
-153
-321
-290
-77
-179
-286
-50
-53
-237
-66
97
-85
-46
219
59
-95
195
233
20
190
300
96
171
385
236
108
317
292
-5
83
246
-40
-135
64
-105
-269
-57
-89
-308
-175
-58
-288
-302
-18
-151
-361
-130
-87
-293
-152
-5
-223
-249
-13
-120
-258
-27
-39
-266
-109
32
-173
-145
55
-150
-289
17
35
-263
-128
45
-200
-195
22
-146
-282
-35
-37
-294
-166
-2
-251
-239
31
-222
-392
-86
-81
-325
-177
-29
-264
-250
-64
-179
-279
-154
-153
-322
-187
-38
-301
-294
-33
-177
-290
-25
-3
-235
-26
156
-156
-73
264
58
-42
312
289
-15
95
179
-101
-156
-19
-211
-359
-136
-140
-391
-280
-111
-305
-353
-161
-246
-365
-317
-258
293
1707
3393
4420
4399
3437
2040
1053
847
600
56
-54
-62
-407
-434
-237
-461
-548
-296
-405
-632
-446
-302
-523
-510
-257
-433
-566
-277
-277
-517
-338
-182
-452
-391
-124
-300
-437
-188
-188
-406
-181
-6
-247
-193
24
-120
-168
80
94
-80
102
231
-24
54
317
172
68
285
287
72
207
341
91
96
328
145
-39
114
26
-190
-58
26
-211
-200
-38
-233
-293
-43
-112
-352
-169
-16
-273
-272
-31
-197
-320
-69
-89
-282
-140
-35
-229
-212
0
-120
-232
-42
-60
-238
-89
33
-191
-168
90
-116
-291
2
-7
-259
-113
14
-259
-272
-28
-165
-287
-40
-55
-299
-160
-53
-299
-229
12
-234
-346
-21
-66
-322
-170
-33
-261
-281
-49
-209
-364
-78
-96
-341
-141
-11
-234
-246
-91
-218
-271
26
48
-159
-1
108
-116
7
272
91
85
384
249
-36
127
168
-128
-136
6
-217
-347
-101
-151
-364
-204
-147
-378
-306
-69
-211
-457
-292
233
1117
2674
4278
4601
3780
2842
1652
723
767
560
-74
-155
-167
-479
-443
-209
-433
-589
-344
-410
-577
-345
-275
-509
-455
-267
-380
-480
-293
-319
-512
-281
-170
-436
-391
-192
-339
-409
-160
-158
-351
-193
-44
-255
-217
36
-100
-179
85
63
-100
78
163
-8
117
295
71
22
301
259
66
243
351
91
87
255
29
-75
149
25
-252
-145
-46
-266
-272
-51
-177
-308
-100
-133
-359
-159
-21
-312
-278
-62
-243
-335
-56
-91
-371
-168
-38
-291
-232
-34
-213
-301
-53
-73
-285
-156
-37
-241
-196
34
-180
-300
-38
-91
-280
-94
-36
-306
-228
0
-170
-310
-104
-110
-323
-159
-12
-279
-286
-36
-214
-365
-120
-128
-312
-143
-68
-311
-263
-68
-204
-275
-135
-196
-337
-145
-60
-298
-234
-32
-208
-322
-87
-74
-236
-17
132
-123
-115
139
55
-30
199
251
136
205
231
-2
-7
151
-114
-298
-106
-171
-397
-252
-138
-335
-299
-127
-310
-381
-93
-279
-593
139
1338
2446
3977
4830
3857
2544
1767
963
445
422
215
-277
-321
-200
-452
-567
-364
-416
-628
-451
-319
-557
-484
-261
-510
-618
-327
-339
-531
-340
-268
-535
-475
-247
-371
-448
-232
-239
-407
-264
-154
-343
-291
-45
-139
-233
-55
-58
-186
-10
121
-86
5
300
74
-59
273
238
9
227
406
152
109
305
91
-23
215
85
-175
-19
41
-245
-226
-31
-204
-293
-89
-160
-307
-122
-87
-340
-270
-77
-271
-338
-80
-130
-361
-185
-70
-341
-262
14
-197
-295
-11
-113
-347
-99
24
-221
-155
47
-175
-263
28
-73
-321
-103
-26
-273
-167
23
-244
-333
-40
-132
-347
-141
-61
-276
-245
-26
-173
-335
-75
-102
-314
-134
-58
-316
-256
-6
-211
-317
-66
-133
-344
-154
-48
-340
-276
-10
-224
-304
-62
-197
-366
-120
-73
-305
-209
43
-100
-191
91
40
-195
51
240
-5
118
422
135
-44
186
117
-140
-88
-44
-323
-348
-121
-279
-380
-116
-191
-432
-214
-68
-332
-438
-272
139
1193
2873
4305
4604
3787
2600
1457
825
793
419
-69
-52
-145
-471
-362
-251
-534
-471
-259
-488
-539
-289
-378
-541
-348
-263
-484
-407
-186
-363
-455
-190
-222
-421
-254
-170
-380
-320
-87
-240
-345
-52
-92
-313
-71
43
-171
-89
142
33
-40
226
190
-56
162
325
81
144
407
214
102
392
346
104
269
296
36
82
177
-49
-129
58
-45
-254
-90
21
-249
-196
57
-183
-261
-7
-112
-266
-95
-53
-258
-185
21
-140
-223
-12
-61
-230
-26
27
-226
-113
82
-116
-190
64
-1
-261
-92
64
-163
-138
69
-145
-263
11
-46
-269
-52
0
-272
-188
19
-165
-232
14
-100
-318
-99
3
-254
-213
-9
-181
-287
-20
-33
-278
-111
-4
-267
-205
0
-205
-262
-29
-115
-272
-86
-23
-197
-71
134
-6
-77
117
93
-31
179
275
134
242
366
95
-15
209
26
-249
-85
-42
-289
-234
-24
-211
-340
-105
-157
-355
-124
-36
-430
-416
418
1458
2844
4511
4773
3479
2366
1551
757
540
432
-81
-287
-96
-225
-463
-319
-271
-511
-419
-255
-508
-553
-285
-351
-521
-344
-272
-519
-445
-200
-384
-475
-180
-234
-454
-229
-134
-390
-286
-51
-251
-302
13
-77
-324
-33
120
-149
-27
206
-9
-32
250
181
-19
213
330
62
183
423
188
81
309
233
16
184
200
-75
-19
92
-102
-204
-20
-99
-336
-107
-9
-322
-220
20
-264
-347
-66
-181
-341
-112
-58
-306
-207
4
-207
-274
-26
-76
-283
-84
34
-227
-161
87
-109
-248
-9
-67
-249
-62
25
-221
-209
4
-130
-194
3
-100
-258
-65
-54
-273
-197
9
-161
-288
-53
-133
-312
-107
-66
-304
-209
-32
-238
-285
-75
-174
-364
-149
-23
-265
-232
-28
-205
-289
-9
-50
-234
31
118
-206
-62
239
68
12
322
262
-40
114
196
-63
-103
0
-245
-361
-132
-221
-392
-203
-156
-430
-354
-144
-309
-300
-208
-451
-129
1194
2697
3951
4652
4010
2433
1367
1009
646
174
24
-60
-385
-379
-222
-444
-519
-291
-371
-567
-366
-302
-602
-488
-234
-411
-467
-247
-300
-514
-328
-210
-439
-353
-145
-334
-394
-110
-171
-375
-174
-62
-250
-195
-20
-141
-149
67
8
-138
73
179
-93
-6
287
128
42
252
176
16
258
308
28
122
252
-15
-81
117
-18
-229
-75
-51
-306
-242
-57
-268
-378
-128
-197
-430
-190
-54
-369
-296
-58
-279
-328
-103
-214
-380
-134
-39
-324
-257
-18
-219
-304
-37
-139
-339
-65
2
-317
-220
-14
-256
-319
-45
-127
-332
-122
-79
-328
-228
-47
-241
-313
-89
-170
-366
-158
-80
-367
-269
-55
-280
-290
-47
-186
-381
-189
-128
-357
-251
-54
-260
-310
-58
-144
-366
-176
-78
-300
-174
60
-142
-186
75
-32
-150
141
206
18
173
355
55
-39
199
-3
-229
-65
-107
-370
-265
-71
-282
-399
-166
-209
-416
-217
-76
-346
-474
-207
347
1476
3206
4483
4403
3465
2316
1175
686
687
255
-194
-122
-242
-507
-337
-306
-557
-461
-312
-515
-560
-325
-404
-605
-395
-323
-543
-385
-250
-502
-474
-224
-360
-490
-261
-232
-444
-316
-116
-321
-367
-71
-140
-328
-84
18
-224
-102
145
-57
-107
169
141
-33
158
238
-22
110
339
103
82
343
202
-3
177
207
-91
-46
154
-131
-261
8
-112
-339
-149
-86
-340
-252
-49
-285
-337
-78
-169
-351
-167
-139
-361
-181
-26
-265
-274
-129
-226
-336
-130
-62
-342
-245
11
-198
-305
-7
-33
-288
-94
-18
-295
-202
3
-201
-257
25
-70
-299
-104
-98
-352
-198
-22
-240
-289
-67
-154
-339
-131
-62
-343
-265
-36
-216
-286
-85
-173
-344
-122
-34
-296
-252
-88
-255
-289
-54
-171
-354
-127
-90
-293
-171
-22
-245
-289
-21
-56
-168
37
69
-162
-38
214
39
18
367
298
28
170
183
-132
-107
33
-254
-332
-106
-243
-429
-225
-132
-394
-348
-146
-307
-314
-221
-332
186
1596
3105
4255
4576
3733
2441
1359
873
712
264
31
-97
-448
-393
-212
-414
-525
-353
-429
-602
-376
-340
-589
-462
-287
-493
-528
-274
-362
-509
-320
-284
-444
-345
-177
-372
-438
-174
-258
-463
-221
-107
-351
-200
50
-200
-200
89
-56
-208
39
178
0
41
229
51
44
344
197
26
313
347
59
139
304
63
-23
142
-47
-236
-21
-7
-261
-195
-21
-198
-300
-90
-160
-328
-78
-17
-363
-314
-44
-243
-334
-81
-193
-371
-127
-63
-342
-245
-8
-223
-320
-54
-135
-336
-91
-2
-257
-228
-65
-234
-262
-27
-145
-336
-128
-55
-269
-212
-54
-220
-259
-67
-183
-341
-159
-122
-359
-280
-104
-282
-337
-116
-191
-376
-173
-122
-338
-232
-79
-269
-321
-73
-181
-402
-166
-82
-345
-260
-69
-289
-326
-107
-195
-350
-183
-134
-347
-212
18
-170
-219
45
-40
-162
77
109
-45
164
348
82
-31
149
30
-204
-93
-113
-382
-279
-111
-343
-420
-176
-273
-457
-240
-193
-390
-425
-285
285
1537
3195
4433
4395
3446
2350
1179
663
730
213
-238
-102
-295
-547
-332
-331
-610
-491
-268
-537
-631
-323
-416
-616
-343
-287
-602
-458
-272
-507
-510
-248
-330
-494
-267
-219
-441
-295
-100
-315
-364
-65
-117
-314
-82
-9
-250
-125
76
-41
-41
152
85
-33
208
310
54
136
373
151
109
384
254
53
229
239
-59
-38
113
-117
-223
-11
-125
-330
-124
-63
-300
-238
-78
-260
-306
-74
-163
-352
-132
-81
-340
-231
-46
-235
-293
-47
-132
-342
-116
-34
-272
-167
51
-214
-261
52
-138
-338
-67
-9
-257
-146
13
-228
-228
-26
-192
-338
-87
-24
-275
-192
-4
-239
-270
5
-203
-391
-99
-78
-322
-195
-9
-243
-297
-12
-154
-368
-91
-35
-316
-187
15
-210
-302
-81
-141
-330
-132
-80
-322
-216
-18
-201
-300
-48
-69
-227
23
109
-118
-30
130
0
55
315
261
177
341
258
14
134
240
-69
-218
-21
-101
-316
-140
-71
-317
-214
5
-228
-327
-12
-178
-528
187
1396
2555
4208
5063
3929
2497
1780
1064
593
510
209
-198
-197
-114
-424
-503
-234
-321
-502
-314
-256
-517
-439
-238
-448
-482
-204
-325
-504
-271
-211
-408
-272
-106
-354
-385
-60
-117
-345
-130
-49
-259
-130
29
-146
-138
140
44
-138
142
243
24
146
329
157
120
385
287
65
316
363
120
288
445
163
88
275
105
-119
63
84
-191
-130
30
-176
-240
15
-71
-278
-72
-18
-298
-186
32
-196
-244
12
-98
-291
-80
-28
-236
-116
77
-115
-218
31
-39
-234
21
46
-227
-103
55
-142
-153
44
-125
-293
-37
20
-259
-189
20
-165
-251
-12
-116
-294
-35
-10
-315
-192
30
-202
-244
-27
-156
-281
-62
-57
-290
-168
-6
-260
-304
-18
-119
-301
-88
-53
-316
-219
-21
-239
-237
66
-9
-155
49
115
-50
93
279
100
131
352
177
-13
144
94
-180
-129
-33
-265
-337
-89
-179
-387
-186
-117
-361
-279
-73
-308
-529
-72
794
1975
3794
4913
4198
2898
1913
970
574
594
117
-331
-191
-175
-482
-414
-232
-499
-574
-303
-374
-583
-394
-311
-523
-430
-279
-485
-543
-294
-352
-494
-260
-209
-444
-325
-109
-318
-360
-71
-164
-358
-107
-20
-259
-124
102
-112
-152
173
81
-110
172
223
-44
114
305
33
26
357
226
7
255
252
-42
84
202
-72
-149
58
-29
-277
-137
-74
-326
-235
-63
-286
-351
-77
-171
-399
-190
-118
-323
-208
-55
-297
-344
-39
-114
-325
-119
-60
-259
-182
-22
-206
-256
-8
-100
-281
-60
-29
-327
-196
15
-223
-303
-65
-131
-313
-118
-88
-335
-204
-62
-288
-307
-92
-171
-329
-149
-78
-312
-230
-74
-300
-320
-84
-150
-337
-170
-91
-339
-216
-38
-281
-284
-58
-202
-340
-106
-29
-223
-95
121
-106
-193
123
104
-77
209
317
21
57
225
6
-121
45
-144
-383
-148
-126
-419
-317
-114
-374
-431
-148
-268
-396
-294
-375
-89
1096
2711
4019
4563
3977
2610
1485
959
671
249
-13
-71
-349
-463
-288
-424
-584
-382
-371
-617
-515
-307
-502
-578
-299
-334
-577
-362
-267
-548
-409
-239
-462
-463
-221
-300
-459
-248
-177
-370
-279
-110
-271
-324
-68
-98
-268
-39
6
-231
-62
125
-48
-61
159
87
-65
124
187
-30
105
308
82
13
212
90
-150
36
45
-271
-151
12
-236
-326
-94
-191
-391
-161
-90
-337
-248
-60
-302
-376
-92
-189
-375
-107
-64
-355
-237
-55
-273
-318
-86
-159
-318
-96
-31
-295
-191
14
-211
-282
-8
-105
-333
-110
-58
-295
-190
0
-220
-317
14
-121
-409
-118
-83
-330
-191
-52
-239
-305
-93
-155
-342
-165
-110
-332
-235
-30
-239
-315
-28
-110
-382
-168
-40
-290
-223
-52
-238
-255
-2
-82
-244
13
135
-104
-3
190
74
79
286
324
105
157
270
-21
4
150
-185
-275
-49
-184
-354
-147
-104
-348
-264
-102
-306
-299
-126
-432
-304
944
2330
3555
4607
4343
2934
1834
1154
688
425
258
27
-347
-371
-207
-413
-517
-306
-405
-597
-377
-323
-579
-472
-304
-509
-487
-219
-331
-500
-304
-252
-475
-422
-226
-355
-409
-155
-230
-428
-195
-101
-335
-211
-18
-264
-211
101
-50
-173
76
133
-53
70
249
41
26
313
219
62
280
296
56
146
330
96
-26
205
32
-265
-41
13
-269
-206
-42
-219
-287
-84
-169
-342
-157
-107
-325
-255
-122
-304
-309
-74
-163
-341
-170
-103
-299
-222
-68
-251
-306
-57
-124
-355
-145
-66
-318
-212
-22
-275
-318
-16
-198
-429
-148
-90
-362
-237
-25
-280
-370
-121
-191
-370
-213
-138
-356
-302
-68
-302
-429
-115
-215
-423
-162
-84
-353
-288
-99
-308
-345
-100
-235
-387
-145
-133
-336
-239
-95
-274
-346
-119
-203
-377
-130
-36
-274
-144
106
-145
-230
88
80
-92
140
322
113
110
207
2
-106
32
-108
-341
-165
-110
-365
-289
-132
-325
-335
-130
-225
-363
-186
-296
-428
514
2008
3306
4438
4588
3302
1929
1264
838
453
251
114
-250
-415
-205
-322
-531
-332
-293
-550
-488
-295
-480
-525
-247
-357
-555
-303
-257
-513
-376
-176
-400
-446
-165
-235
-414
-233
-185
-396
-287
-43
-250
-310
27
-66
-248
23
90
-130
-10
209
49
10
270
217
35
236
304
75
188
372
196
146
347
207
-42
132
160
-102
-73
52
-149
-206
18
-159
-351
-84
-43
-288
-196
-40
-277
-339
-61
-139
-353
-137
-18
-277
-218
34
-163
-273
-15
-100
-282
-65
7
-237
-195
33
-144
-218
49
-75
-275
-35
14
-248
-154
43
-172
-266
-46
-128
-303
-55
-2
-317
-201
12
-233
-296
-14
-119
-341
-104
-55
-278
-147
4
-248
-332
-71
-103
-293
-155
-117
-333
-231
-52
-227
-258
-51
-168
-303
-115
-88
-272
-157
56
-82
-129
96
-23
-208
91
219
-32
108
423
185
2
238
112
-164
-9
-4
-296
-278
-99
-257
-353
-159
-211
-363
-194
-99
-274
-345
-264
54
1093
2804
4174
4506
3892
2747
1506
815
767
408
-9
7
-201
-483
-305
-265
-541
-458
-313
-571
-569
-250
-363
-590
-388
-306
-542
-427
-232
-436
-442
-166
-266
-434
-231
-189
-394
-281
-39
-210
-337
-89
-117
-302
-75
33
-187
-56
170
-10
-42
211
150
-7
170
236
98
217
369
205
165
398
273
60
286
322
41
79
170
-75
-135
86
-37
-267
-57
-2
-241
-135
-33
-278
-279
27
-115
-363
-78
-8
-312
-220
-7
-199
-270
-20
-88
-327
-105
-8
-298
-185
26
-201
-244
23
-43
-244
-52
12
-288
-192
72
-163
-280
-16
-80
-306
-133
-38
-271
-185
-7
-235
-296
-29
-116
-322
-66
-52
-380
-225
-27
-216
-236
-63
-135
-277
-91
-21
-287
-164
63
-225
-292
6
-120
-314
-37
76
-161
-52
156
-92
-109
261
189
-10
283
357
41
117
321
57
-101
86
-93
-327
-126
-64
-316
-241
-56
-295
-357
-141
-236
-336
-172
-293
-220
939
2557
3913
4695
4259
2810
1555
1063
778
291
63
3
-324
-413
-216
-374
-564
-354
-325
-570
-465
-271
-452
-501
-278
-339
-496
-351
-276
-466
-376
-141
-378
-461
-111
-216
-442
-186
-118
-334
-184
25
-203
-260
9
-34
-207
-3
121
-84
-2
225
58
-27
212
152
7
276
324
49
165
355
126
71
309
135
-81
99
108
-122
-99
-10
-184
-226
-47
-158
-343
-112
-41
-326
-236
-31
-242
-278
-17
-138
-333
-94
4
-229
-202
32
-116
-277
14
-28
-302
-43
58
-245
-163
51
-168
-261
29
-45
-275
-24
14
-328
-202
39
-185
-262
-35
-118
-304
-111
-37
-287
-210
3
-202
-270
-26
-164
-324
-67
-45
-317
-231
-24
-221
-277
-30
-142
-340
-118
-59
-318
-201
32
-167
-174
135
29
-204
3
165
3
119
357
176
56
221
115
-75
62
62
-241
-245
-105
-279
-288
-72
-209
-431
-234
-134
-352
-216
-131
-530
-204
1114
2453
3837
4816
4091
2510
1599
1087
569
276
232
-71
-411
-240
-212
-529
-443
-278
-520
-521
-278
-392
-575
-368
-255
-515
-462
-236
-415
-449
-199
-313
-489
-269
-206
-394
-248
-99
-310
-330
-78
-119
-278
-76
22
-181
-84
114
-58
-94
143
87
-67
160
226
-55
99
336
84
8
298
262
33
211
294
3
29
163
-76
-161
59
-38
-279
-120
-22
-278
-234
-45
-241
-302
-54
-120
-331
-116
-31
-278
-166
22
-218
-265
16
-103
-265
-11
21
-255
-134
102
-154
-233
48
-32
-254
-42
27
-257
-160
28
-195
-244
-5
-111
-322
-103
1
-277
-223
-36
-233
-267
-28
-133
-315
-130
-83
-304
-206
5
-202
-283
-8
-95
-347
-168
-55
-267
-178
-1
-248
-318
-49
-134
-328
-87
47
-163
-63
145
-65
-111
168
128
4
291
382
44
55
243
-16
-147
60
-134
-378
-138
-101
-341
-285
-124
-252
-373
-162
-168
-375
-325
-279
99
1359
3005
4217
4504
3708
2401
1312
817
673
245
-59
-49
-304
-433
-261
-390
-593
-422
-367
-589
-491
-294
-483
-519
-258
-368
-541
-318
-266
-498
-407
-199
-374
-456
-211
-266
-459
-228
-158
-415
-289
-70
-255
-300
-47
-96
-234
-22
47
-168
-22
215
3
-71
204
156
-43
158
238
-24
108
356
86
-2
264
125
-106
80
108
-200
-125
57
-268
-345
-30
-167
-379
-122
-65
-336
-241
-31
-243
-343
-49
-119
-314
-53
-44
-307
-186
-29
-239
-283
-28
-82
-259
-83
-42
-251
-132
26
-185
-257
-16
-84
-320
-138
-31
-268
-191
-14
-258
-315
-22
-118
-342
-115
-62
-318
-194
-23
-200
-278
-117
-178
-310
-97
-62
-305
-201
-41
-244
-275
-46
-134
-329
-101
-27
-310
-243
-36
-214
-299
-49
-118
-271
-9
57
-162
-46
112
-69
-34
265
144
9
320
339
18
58
212
-5
-129
-20
-205
-377
-159
-122
-367
-311
-85
-249
-395
-132
-121
-419
-419
7
853
2283
3936
4626
3986
3011
1900
858
748
653
-2
-175
-81
-367
-448
-226
-361
-591
-397
-325
-564
-446
-280
-487
-485
-270
-378
-552
-356
-243
-474
-394
-162
-363
-438
-177
-243
-371
-134
-129
-369
-215
0
-197
-209
80
-3
-192
20
105
-112
39
288
83
14
253
170
-14
195
275
33
148
370
165
89
271
125
-62
112
108
-175
-105
44
-178
-228
-34
-163
-296
-91
-45
-242
-167
15
-213
-311
-26
-124
-329
-89
-7
-286
-207
40
-150
-237
-23
-94
-273
-74
32
-215
-150
42
-151
-200
4
-74
-288
-132
-8
-265
-206
-3
-238
-296
-11
-108
-317
-109
-25
-270
-211
-8
-243
-335
-43
-148
-386
-165
-69
-309
-257
-110
-289
-307
-69
-174
-371
-119
-47
-355
-265
-44
-271
-316
-55
-186
-323
-45
51
-177
-78
136
-97
-114
211
186
67
291
337
14
61
239
-38
-166
34
-137
-398
-189
-112
-380
-309
-91
-282
-372
-93
-90
-397
-396
65
910
2378
4107
4790
4021
2894
1800
861
732
622
10
-145
-22
-314
-439
-209
-315
-549
-358
-224
-509
-500
-241
-439
-523
-232
-313
-489
-260
-228
-454
-333
-131
-325
-406
-126
-142
-352
-205
-120
-336
-242
12
-165
-243
55
5
-190
33
145
-77
23
214
5
4
291
185
0
196
256
71
170
368
176
69
273
105
-151
52
87
-182
-115
57
-170
-275
-14
-92
-308
-111
-42
-281
-166
27
-236
-311
-24
-85
-294
-127
-69
-292
-178
25
-197
-248
24
-91
-301
-71
25
-230
-183
6
-139
-204
9
-91
-332
-106
-13
-269
-193
-13
-199
-257
-19
-102
-325
-144
-44
-283
-244
-85
-237
-248
-71
-171
-286
-74
-38
-298
-208
5
-170
-228
-22
-150
-324
-103
-45
-280
-203
9
-141
-172
72
0
-156
49
178
9
49
286
202
105
317
215
-49
107
98
-227
-204
-47
-266
-360
-107
-207
-409
-201
-157
-403
-294
-96
-416
-496
401
1585
2902
4446
4667
3252
2050
1402
732
421
364
-11
-357
-220
-221
-529
-465
-250
-456
-576
-314
-358
-565
-347
-287
-560
-464
-237
-439
-508
-235
-320
-493
-268
-170
-390
-331
-129
-288
-342
-68
-123
-319
-63
45
-230
-171
85
-35
-124
105
50
-98
158
211
-49
62
261
95
45
299
273
31
214
298
9
39
175
-46
-159
35
-53
-286
-139
-71
-300
-237
-41
-241
-337
-90
-139
-314
-140
-94
-319
-226
-11
-188
-265
11
-58
-290
-92
-30
-234
-97
40
-169
-199
33
-63
-274
-57
27
-249
-154
40
-209
-275
-15
-96
-315
-105
-28
-295
-202
-11
-257
-333
-43
-145
-335
-91
-60
-327
-210
0
-252
-323
-25
-112
-336
-120
-27
-311
-231
-1
-246
-339
-57
-130
-296
-81
-36
-213
-47
136
-89
-91
184
92
-72
213
377
49
41
273
4
-192
22
-95
-384
-214
-127
-397
-333
-131
-312
-367
-146
-164
-334
-369
-329
60
1319
3005
4186
4443
3754
2519
1297
821
749
252
-25
-8
-348
-455
-220
-399
-581
-375
-330
-509
-469
-309
-422
-510
-287
-335
-554
-340
-229
-482
-409
-193
-385
-447
-153
-222
-472
-248
-116
-319
-225
-35
-226
-305
15
7
-225
-43
66
-147
-48
207
70
-20
209
140
-59
156
305
87
150
361
135
20
283
192
-93
97
147
-156
-163
21
-116
-262
-24
-76
-335
-123
-31
-290
-207
-25
-222
-284
-46
-113
-311
-90
-6
-301
-210
37
-176
-309
-47
-46
-255
-31
48
-262
-139
106
-98
-226
-32
-39
-245
-103
31
-264
-245
50
-120
-266
-31
-70
-271
-91
-23
-259
-181
2
-216
-269
-31
-127
-283
-107
-46
-261
-184
32
-205
-335
-2
-111
-402
-122
-11
-290
-226
-26
-188
-234
-28
-140
-255
35
82
-147
-37
169
13
-28
273
274
117
257
287
-13
-29
154
-121
-289
-57
-170
-413
-188
-105
-383
-284
-108
-353
-353
-50
-283
-626
33
1203
2274
3816
4873
4042
2714
1931
1013
473
603
314
-314
-338
-138
-382
-524
-297
-400
-595
-366
-293
-508
-468
-300
-466
-592
-349
-338
-510
-347
-252
-453
-403
-198
-360
-444
-106
-168
-452
-226
-112
-344
-271
-4
-172
-262
57
-7
-209
45
176
-33
33
229
56
-8
287
235
10
236
354
129
156
335
140
-5
222
106
-175
54
109
-232
-183
21
-140
-264
-33
-23
-297
-167
-33
-273
-217
3
-178
-300
-60
-53
-287
-158
22
-208
-255
0
-146
-265
-14
-77
-273
-87
18
-247
-178
97
-163
-268
83
-80
-358
-86
-12
-291
-230
1
-186
-314
-55
-97
-311
-108
-40
-292
-188
-38
-252
-270
-42
-164
-342
-117
-61
-304
-195
8
-214
-315
-78
-111
-315
-108
34
-270
-261
-4
-178
-294
9
47
-164
20
134
-119
-27
263
117
59
383
288
10
205
247
-89
-87
56
-217
-376
-115
-137
-367
-222
-119
-317
-292
-105
-217
-391
-331
-35
744
2279
3936
4639
4182
3074
1827
962
823
622
58
-95
-96
-355
-400
-221
-362
-529
-348
-396
-591
-375
-269
-516
-439
-231
-398
-441
-215
-271
-445
-262
-145
-372
-328
-88
-294
-398
-87
-158
-379
-111
8
-263
-167
80
-92
-169
108
84
-128
94
227
-11
73
284
105
58
313
251
39
273
402
103
135
335
84
-38
217
89
-201
-61
15
-228
-213
-7
-141
-266
-73
-130
-329
-141
-55
-279
-221
-13
-165
-281
-36
-27
-240
-83
19
-240
-171
10
-152
-175
-27
-114
-294
-118
3
-253
-163
89
-174
-302
-11
-55
-265
-93
-42
-289
-191
10
-187
-280
-34
-78
-291
-117
-7
-237
-196
-2
-187
-268
-16
-56
-276
-114
-2
-215
-168
0
-177
-291
-52
-40
-255
-57
100
-137
-55
192
-17
-105
242
215
23
288
362
94
93
220
39
-108
47
-76
-346
-167
-76
-336
-261
-47
-275
-373
-151
-202
-361
-329
-232
182
1411
3173
4423
4538
3619
2261
1176
825
702
161
-87
23
-261
-466
-243
-305
-543
-375
-275
-517
-473
-258
-460
-565
-254
-242
-507
-333
-168
-428
-370
-123
-310
-419
-145
-171
-412
-192
-20
-277
-205
49
-143
-238
48
36
-173
22
163
-62
-19
252
97
-28
237
250
24
155
315
86
167
379
117
31
246
155
-128
-49
86
-165
-179
-1
-214
-318
-82
-139
-373
-202
-100
-307
-234
-49
-240
-355
-65
-74
-323
-152
-38
-284
-223
58
-108
-255
-4
-47
-239
-58
16
-226
-199
50
-46
-184
-24
-69
-289
-97
58
-202
-222
-36
-207
-301
-55
-91
-296
-167
-86
-293
-219
-4
-197
-301
-61
-107
-298
-107
-26
-263
-226
-30
-178
-299
-91
-116
-324
-122
61
-160
-123
140
-29
-151
172
213
-5
184
364
82
-4
181
40
-131
-15
-43
-310
-228
-112
-392
-354
-107
-284
-426
-146
-113
-404
-308
-298
-323
681
2299
3655
4492
4231
2877
1622
1046
733
297
75
67
-252
-420
-215
-315
-560
-387
-271
-518
-514
-279
-466
-597
-285
-305
-534
-361
-225
-420
-385
-175
-332
-447
-183
-191
-444
-264
-75
-282
-251
-32
-177
-270
18
6
-248
-53
102
-97
-47
178
36
-77
202
210
-11
165
290
68
142
335
64
-37
269
183
-124
44
161
-165
-196
23
-153
-282
-52
-77
-320
-199
-80
-308
-276
-69
-196
-294
-65
-62
-296
-152
-38
-288
-200
85
-154
-311
-38
-60
-230
-36
48
-192
-160
71
-102
-225
49
-59
-309
-75
4
-253
-185
23
-171
-289
-36
-43
-267
-122
-63
-311
-241
-62
-208
-274
-51
-111
-353
-178
-41
-251
-247
-76
-215
-347
-103
-106
-343
-160
-66
-321
-238
14
-148
-264
-4
23
-150
-16
73
-77
12
250
87
11
351
260
-45
117
169
-144
-169
-17
-217
-359
-145
-167
-412
-279
-158
-416
-371
-78
-229
-517
-315
307
1255
2855
4398
4465
3503
2667
1514
558
668
453
-216
-212
-137
-458
-500
-295
-467
-632
-378
-383
-641
-439
-271
-570
-559
-275
-408
-548
-337
-329
-508
-308
-183
-452
-434
-197
-319
-410
-194
-219
-381
-185
-47
-263
-204
8
-140
-174
65
27
-130
36
150
-65
-21
248
104
-31
232
231
-23
169
354
62
14
210
31
-143
18
18
-219
-135
16
-245
-274
-40
-199
-330
-121
-158
-386
-194
-27
-291
-275
-7
-216
-385
-70
-113
-377
-175
-75
-318
-265
-27
-196
-344
-98
-80
-292
-162
-51
-260
-227
-39
-206
-312
-63
-55
-313
-201
-23
-265
-318
-56
-167
-329
-75
-81
-365
-203
-31
-274
-284
-55
-169
-304
-116
-162
-378
-216
-71
-298
-307
-57
-208
-319
-65
-137
-364
-198
-74
-285
-254
-24
-148
-264
-24
6
-223
-62
152
-27
-12
272
234
60
179
184
-97
-15
119
-243
-333
-108
-275
-402
-172
-204
-460
-290
-140
-414
-310
-88
-433
-292
987
2361
3584
4642
4258
2778
1773
1110
572
374
214
-126
-453
-364
-247
-502
-578
-351
-454
-627
-381
-369
-640
-510
-331
-535
-525
-283
-430
-558
-292
-273
-519
-386
-215
-428
-398
-153
-295
-404
-163
-185
-390
-177
-14
-216
-190
31
-69
-197
72
163
-61
56
203
-4
29
290
146
3
284
276
16
181
272
-19
-17
189
-16
-258
-70
-29
-284
-196
-54
-278
-267
-44
-243
-372
-88
-101
-346
-208
-88
-319
-299
-57
-186
-304
-91
-133
-384
-194
12
-250
-266
-6
-174
-308
-50
-68
-279
-125
11
-226
-234
10
-152
-285
-2
-55
-328
-139
13
-261
-276
-8
-158
-298
-14
-21
-315
-201
-73
-252
-225
-29
-167
-310
-49
-65
-350
-163
-3
-264
-251
21
-109
-306
-81
-52
-300
-159
1
-246
-266
-45
-170
-235
13
18
-184
-31
121
-102
-15
250
138
121
339
252
-21
63
177
-85
-177
-38
-195
-367
-163
-165
-443
-271
-102
-344
-353
-101
-183
-528
-266
593
1627
3299
4755
4386
3130
2266
1233
525
658
399
-217
-204
-123
-464
-516
-288
-440
-584
-302
-368
-655
-411
-229
-479
-520
-321
-427
-543
-313
-281
-521
-387
-159
-348
-420
-188
-275
-431
-162
-132
-330
-148
-36
-217
-193
26
-57
-212
63
138
-124
30
233
-1
-15
297
187
-21
247
294
40
217
355
87
72
252
70
-114
89
99
-247
-189
-14
-268
-290
-64
-235
-359
-88
-105
-326
-194
-52
-302
-381
-109
-164
-299
-125
-144
-348
-182
13
-234
-298
-40
-110
-259
-108
-91
-259
-152
-15
-220
-232
3
-168
-342
-90
-42
-333
-236
-18
-255
-293
-38
-165
-354
-101
-55
-330
-222
-26
-237
-281
-17
-175
-409
-146
-84
-342
-192
-12
-280
-317
-46
-162
-336
-106
-62
-304
-173
20
-196
-215
93
-6
-216
82
179
-42
123
328
129
79
225
22
-143
32
-50
-333
-245
-101
-283
-367
-145
-207
-434
-205
-138
-408
-246
-236
-494
259
1800
3246
4393
4627
3492
1949
1163
907
489
90
44
-158
-425
-295
-334
-560
-403
-258
-492
-540
-286
-421
-612
-297
-259
-560
-429
-248
-451
-448
-181
-326
-510
-227
-140
-386
-276
-99
-328
-305
18
-107
-277
33
69
-207
-39
149
-55
-42
222
116
-3
243
240
7
157
341
116
106
398
272
71
294
265
-32
52
146
-106
-135
85
-92
-326
-97
-38
-319
-196
18
-251
-298
-33
-184
-306
-62
-94
-323
-200
-35
-229
-252
-1
-93
-236
21
51
-264
-138
63
-178
-195
50
-74
-273
-56
-14
-276
-107
40
-239
-182
27
-186
-328
-94
-34
-272
-189
-39
-286
-262
-16
-198
-311
-74
-108
-345
-237
-54
-229
-337
-125
-164
-356
-180
-105
-347
-233
-49
-313
-332
-40
-121
-246
-25
22
-195
-69
153
-17
-16
270
198
32
233
212
-91
-39
66
-208
-291
-61
-209
-456
-218
-133
-398
-298
-99
-312
-360
-98
-394
-546
488
1785
3059
4475
4623
3196
1959
1330
715
316
267
59
-364
-356
-194
-437
-495
-269
-460
-644
-403
-351
-547
-438
-268
-451
-473
-263
-369
-476
-280
-301
-475
-318
-161
-365
-416
-141
-204
-410
-200
-108
-324
-189
-41
-259
-207
57
-55
-214
16
84
-125
31
195
-10
60
278
126
-21
196
277
15
64
266
67
-24
174
-5
-216
26
5
-300
-199
-58
-274
-295
-45
-128
-275
-59
-86
-355
-194
-12
-230
-280
-43
-103
-293
-110
-43
-306
-189
43
-208
-263
7
-102
-297
-91
-12
-244
-179
-8
-219
-271
1
-105
-330
-145
-63
-269
-228
-69
-260
-328
-52
-124
-329
-132
-73
-354
-227
-8
-315
-342
-12
-127
-344
-147
-94
-323
-184
11
-233
-315
-92
-182
-344
-120
-93
-334
-203
-44
-216
-205
55
-1
-215
-33
103
-108
-7
252
116
89
284
110
-98
60
38
-258
-223
-93
-340
-411
-155
-278
-466
-179
-162
-461
-279
-57
-446
-522
414
1541
2816
4403
4668
3365
2333
1577
687
464
489
-7
-339
-150
-254
-577
-440
-263
-493
-547
-300
-396
-592
-359
-287
-569
-456
-219
-441
-481
-219
-342
-497
-298
-251
-438
-343
-133
-279
-347
-129
-179
-324
-95
-30
-235
-49
126
-99
-101
177
96
-65
167
229
37
127
294
106
67
344
223
68
327
308
31
123
238
-23
-105
98
-43
-244
-29
11
-261
-191
-17
-195
-247
-17
-103
-298
-89
-9
-258
-206
-2
-186
-269
-15
-96
-261
-41
-15
-276
-160
66
-139
-195
96
-25
-286
-61
-1
-248
-107
73
-205
-234
75
-77
-312
-74
12
-237
-175
21
-172
-242
24
-74
-291
-83
-9
-241
-164
2
-203
-248
-9
-110
-263
-55
-30
-296
-219
17
-172
-233
26
-69
-260
-79
-20
-231
-78
124
-105
-93
140
14
-98
136
213
27
224
469
169
36
265
114
-178
-54
-29
-312
-265
-89
-274
-330
-138
-255
-396
-163
-64
-306
-388
-180
365
1564
3214
4446
4398
3469
2391
1196
695
769
289
-116
-21
-202
-492
-291
-227
-567
-445
-217
-532
-578
-250
-358
-568
-330
-247
-494
-378
-189
-423
-451
-191
-287
-441
-208
-110
-330
-258
-90
-248
-280
-62
-81
-230
-44
63
-160
-63
189
12
-37
231
135
6
260
262
48
206
416
213
129
366
264
62
272
313
1
37
193
-39
-158
25
-40
-244
-72
11
-296
-220
13
-225
-289
-38
-123
-322
-112
7
-283
-250
4
-146
-231
-8
-89
-281
-78
10
-211
-154
52
-128
-256
-16
-55
-265
-70
9
-224
-162
18
-119
-227
-69
-146
-334
-124
-39
-265
-224
-63
-207
-258
-43
-146
-311
-57
-32
-327
-229
-2
-172
-280
-77
-118
-296
-95
-48
-325
-191
10
-183
-235
-25
-27
-198
-20
129
-99
-63
158
23
-25
244
244
142
311
251
-20
15
94
-119
-256
-87
-201
-387
-145
-99
-358
-300
-73
-267
-379
-79
-262
-629
22
1161
2322
4025
4948
3907
2526
1785
1020
527
561
277
-312
-326
-139
-383
-505
-312
-380
-565
-414
-338
-543
-437
-225
-473
-542
-269
-373
-537
-311
-253
-468
-364
-156
-341
-392
-129
-203
-381
-172
-74
-273
-154
67
-132
-172
133
44
-189
67
159
-127
27
282
48
27
308
173
-24
218
307
75
131
299
109
23
230
68
-233
-24
56
-236
-137
51
-238
-351
-63
-133
-343
-141
-68
-341
-274
-23
-254
-342
-28
-120
-296
-68
-39
-290
-163
40
-207
-271
13
-65
-260
-63
-35
-279
-150
23
-192
-309
-90
-93
-290
-131
-35
-257
-204
-2
-197
-292
-45
-158
-390
-113
-67
-399
-245
-10
-256
-329
-62
-149
-346
-135
-60
-324
-244
-43
-235
-292
-72
-120
-315
-137
-15
-207
-83
125
-111
-170
179
149
-54
205
349
86
114
237
-49
-144
71
-115
-370
-166
-151
-407
-291
-115
-331
-394
-155
-247
-398
-255
-346
-297
766
2402
3719
4498
4237
2792
1482
1022
779
277
23
17
-302
-427
-226
-347
-589
-412
-296
-549
-482
-236
-453
-580
-318
-379
-549
-328
-227
-439
-412
-199
-350
-431
-159
-245
-421
-159
-75
-339
-243
17
-190
-273
21
1
-181
6
110
-134
-16
254
37
-31
260
200
22
222
285
46
146
359
156
102
310
128
-131
53
111
-199
-175
40
-207
-314
-53
-161
-342
-136
-52
-325
-278
-52
-232
-275
-58
-120
-297
-182
-78
-283
-219
22
-175
-252
35
-72
-286
-16
46
-236
-113
88
-160
-230
32
-58
-249
-73
-22
-277
-210
-1
-190
-255
-25
-131
-338
-152
-79
-306
-260
-55
-248
-343
-63
-155
-352
-128
-96
-332
-250
-83
-268
-323
-65
-192
-394
-155
-57
-250
-109
134
-111
-209
87
62
-98
134
285
85
117
265
27
-88
135
-29
-347
-175
-102
-372
-293
-121
-332
-360
-143
-244
-390
-137
-173
-615
-240
915
2049
3506
4741
4179
2745
1922
1119
510
477
265
-246
-376
-144
-294
-536
-378
-356
-561
-459
-304
-502
-547
-284
-329
-524
-339
-259
-477
-388
-190
-363
-445
-194
-250
-441
-210
-116
-345
-260
-55
-231
-296
-23
-76
-252
-8
87
-139
-26
192
35
3
228
126
-37
189
262
68
184
372
162
52
296
223
-23
160
208
-133
-105
96
-150
-254
21
-90
-306
-74
-42
-313
-206
5
-188
-276
-42
-110
-292
-90
-25
-242
-175
43
-136
-220
68
-26
-219
-5
49
-179
-91
116
-42
-139
61
-12
-201
2
59
-180
-69
116
-139
-220
51
-48
-264
-48
31
-236
-163
54
-149
-230
25
-41
-251
-71
-21
-271
-153
21
-203
-224
27
-47
-225
-89
-44
-252
-160
35
-161
-211
77
-7
-197
59
168
-67
39
319
167
84
368
344
93
228
273
-50
-6
170
-146
-292
-30
-132
-335
-88
-36
-327
-242
-39
-231
-268
-139
-292
-2
1269
2718
3931
4676
4089
2695
1644
1082
732
361
166
-7
-322
-322
-207
-381
-422
-260
-372
-531
-356
-277
-514
-445
-182
-379
-462
-209
-297
-457
-253
-214
-465
-347
-105
-291
-399
-166
-197
-364
-152
-63
-274
-164
43
-143
-191
119
40
-168
99
195
-49
66
287
92
38
291
232
78
328
390
20
107
347
57
-45
181
40
-183
-16
3
-257
-190
-16
-221
-280
-69
-179
-354
-175
-93
-313
-281
-99
-246
-284
-71
-187
-358
-155
-99
-335
-255
-25
-214
-298
-27
-56
-241
-111
-34
-220
-191
-44
-223
-268
2
-90
-298
-135
-97
-287
-184
-20
-234
-296
-14
-111
-339
-117
-26
-262
-234
-46
-208
-302
-82
-137
-343
-200
-93
-314
-232
-11
-240
-312
-48
-162
-352
-131
-86
-328
-206
9
-177
-183
87
8
-182
-3
103
-77
22
267
151
115
337
255
-7
74
147
-181
-240
-48
-286
-374
-101
-236
-463
-238
-168
-412
-313
-70
-362
-630
11
1013
2154
3859
4825
3950
2747
1942
924
499
610
198
-299
-248
-200
-496
-479
-295
-511
-596
-332
-403
-593
-374
-325
-530
-415
-270
-476
-533
-266
-334
-552
-331
-220
-448
-351
-144
-353
-406
-122
-195
-399
-173
-65
-281
-148
100
-97
-215
73
57
-169
112
221
-66
105
327
73
28
319
244
26
232
310
8
68
254
-11
-143
78
-27
-267
-101
-17
-243
-211
-24
-189
-294
-89
-144
-318
-127
-52
-307
-258
-51
-205
-278
-75
-153
-332
-107
-7
-287
-212
11
-161
-222
20
-70
-263
2
7
-321
-164
44
-184
-242
-6
-68
-279
-97
18
-252
-213
5
-209
-298
-12
-85
-274
-63
-63
-319
-188
28
-201
-293
-14
-108
-292
-88
-51
-265
-198
-41
-237
-298
-40
-119
-301
-62
70
-169
-116
121
-45
-102
211
171
5
314
373
25
71
242
-37
-166
57
-84
-358
-160
-42
-349
-301
-64
-283
-378
-133
-179
-338
-286
-217
236
1610
3409
4480
4394
3488
2196
1087
778
685
126
-158
-86
-314
-469
-264
-305
-568
-427
-294
-541
-471
-253
-460
-527
-269
-333
-502
-275
-211
-447
-383
-188
-326
-397
-128
-183
-432
-211
-86
-307
-208
14
-161
-210
64
-8
-173
63
137
-55
53
249
106
26
245
230
39
238
370
97
161
405
184
27
240
159
-106
58
101
-230
-175
-9
-230
-280
-51
-152
-336
-129
-68
-341
-268
-5
-188
-278
-1
-118
-367
-121
-39
-278
-154
9
-178
-223
-19
-93
-278
-69
5
-225
-106
60
-182
-266
-6
-81
-298
-60
-11
-301
-192
10
-225
-276
9
-71
-263
-97
-35
-286
-225
-1
-193
-258
-37
-141
-328
-168
-106
-301
-214
-42
-228
-282
-44
-119
-320
-136
-30
-224
-115
148
-35
-146
67
5
-94
160
262
76
180
290
-10
-66
141
-39
-304
-164
-112
-360
-292
-105
-314
-393
-127
-212
-433
-174
-82
-550
-491
452
1476
2901
4525
4577
3232
2177
1369
585
433
397
-65
-334
-175
-247
-506
-366
-280
-522
-451
-262
-473
-545
-272
-291
-512
-356
-214
-459
-409
-174
-384
-460
-194
-260
-480
-254
-93
-353
-290
-53
-219
-271
9
-54
-303
-94
36
-150
-44
179
36
-36
242
156
-84
197
307
3
124
407
201
83
301
209
-25
107
150
-134
-128
72
-114
-232
-35
-156
-333
-90
-51
-349
-275
-52
-229
-314
-79
-138
-328
-159
-90
-305
-243
-4
-166
-309
-22
-40
-319
-113
3
-248
-154
33
-158
-236
-22
-57
-231
-53
36
-224
-172
60
-143
-289
-26
-80
-284
-47
-10
-297
-222
-9
-205
-319
-53
-132
-372
-168
-61
-303
-243
-2
-197
-314
-50
-100
-327
-136
-37
-311
-240
-14
-201
-287
-54
-115
-301
-40
99
-134
-79
80
-24
-44
211
229
63
256
320
19
44
223
-52
-216
-21
-145
-352
-146
-86
-352
-294
-102
-319
-415
-147
-114
-395
-400
143
999
2375
4068
4676
3892
2910
1811
756
679
624
-32
-217
-86
-339
-466
-257
-363
-589
-400
-306
-514
-447
-280
-449
-476
-268
-410
-565
-311
-240
-474
-402
-193
-348
-394
-145
-246
-392
-161
-94
-328
-250
23
-128
-235
-3
-13
-160
40
168
-62
-6
284
150
28
295
277
72
259
368
156
193
374
204
74
265
179
-104
41
140
-145
-125
93
-106
-242
40
-6
-302
-123
11
-231
-183
36
-154
-275
-3
-81
-361
-157
-15
-271
-209
51
-148
-259
11
-27
-213
-65
9
-202
-156
87
-97
-201
95
11
-282
-69
87
-195
-172
89
-79
-240
13
-10
-251
-94
-5
-235
-177
23
-173
-267
9
-53
-256
-28
26
-253
-226
23
-90
-238
0
-74
-309
-86
-4
-267
-199
23
-181
-284
-5
-39
-241
2
162
-96
-62
186
20
-45
288
276
105
296
349
67
27
187
-34
-242
-22
-81
-349
-156
-17
-301
-323
-90
-228
-370
-90
-94
-482
-243
605
1539
3045
4642
4562
3320
2432
1444
628
662
508
-125
-255
-71
-312
-448
-228
-359
-592
-352
-245
-531
-482
-232
-441
-544
-268
-286
-470
-325
-190
-427
-456
-154
-242
-433
-216
-172
-355
-180
-65
-264
-199
31
-89
-223
59
93
-142
61
185
-35
52
306
137
28
330
287
53
288
426
133
153
390
145
-18
237
167
-114
-6
44
-239
-204
0
-197
-298
-82
-136
-312
-173
-66
-226
-257
-99
-217
-369
-108
-110
-370
-154
-8
-289
-289
-46
-188
-317
-65
-105
-358
-130
43
-286
-260
29
-162
-283
-46
-95
-287
-76
13
-312
-276
-39
-223
-310
-47
-59
-287
-198
-92
-278
-265
-49
-198
-361
-112
-125
-383
-217
-64
-280
-304
-89
-235
-342
-45
-93
-385
-228
-50
-304
-319
-9
-143
-313
-83
-91
-285
-103
93
-106
-98
153
-26
-127
198
176
17
266
354
52
13
200
-20
-223
-47
-130
-405
-219
-36
-331
-362
-103
-281
-409
-117
-120
-484
-456
153
1043
2464
4192
4754
3783
2705
1781
806
625
572
-32
-244
-110
-355
-506
-285
-381
-618
-435
-321
-563
-529
-262
-437
-608
-358
-322
-542
-377
-211
-501
-457
-185
-385
-480
-172
-202
-467
-236
-30
-305
-279
-11
-197
-298
15
-5
-250
-37
146
-73
-27
209
79
-28
232
278
37
185
366
135
154
360
194
74
252
191
-86
15
123
-186
-198
28
-168
-263
-55
-141
-325
-166
-74
-308
-247
-41
-249
-342
-87
-82
-318
-176
-19
-270
-272
-46
-190
-329
-80
-54
-286
-142
-8
-264
-235
18
-159
-263
-5
-70
-313
-142
22
-248
-295
-53
-205
-356
-69
-69
-372
-208
-36
-279
-294
-95
-223
-318
-98
-103
-331
-232
-54
-254
-300
-57
-213
-358
-69
-84
-363
-190
1
-240
-260
0
-96
-291
-33
72
-173
-62
125
-61
-8
272
169
91
286
190
-64
60
151
-161
-236
-11
-193
-387
-122
-109
-428
-310
-86
-285
-288
-37
-309
-598
78
1104
2283
4027
4951
4034
2659
1803
1005
518
506
172
-305
-220
-110
-399
-440
-228
-397
-559
-335
-362
-552
-382
-286
-473
-420
-218
-388
-501
-232
-232
-449
-270
-143
-386
-336
-84
-207
-310
-69
-70
-279
-102
41
-168
-145
80
-38
-160
83
130
-60
83
266
79
79
330
235
86
341
372
67
234
385
69
62
267
84
-133
49
59
-258
-157
17
-236
-233
-9
-176
-301
-93
-132
-369
-184
-8
-293
-305
-34
-154
-311
-128
-94
-266
-142
29
-196
-230
41
-87
-299
-77
-25
-267
-152
17
-202
-250
-14
-118
-276
-78
-94
-310
-154
-61
-302
-228
6
-175
-305
-92
-99
-296
-168
-23
-225
-263
-53
-137
-305
-121
-67
-319
-214
-24
-265
-259
-21
-200
-299
-12
0
-219
-31
159
-90
-62
290
193
26
269
301
37
94
181
-79
-126
24
-191
-396
-180
-146
-394
-284
-126
-355
-356
-132
-260
-369
-315
-227
311
1597
3289
4441
4470
3532
2166
1100
811
658
115
-80
-28
-340
-453
-248
-383
-576
-346
-297
-545
-403
-255
-471
-490
-277
-335
-491
-294
-220
-468
-361
-180
-416
-425
-123
-218
-404
-212
-189
-365
-199
-18
-242
-249
45
-84
-205
80
103
-145
5
215
7
1
273
146
-59
196
282
4
149
345
48
-10
241
90
-135
68
23
-312
-165
9
-279
-307
-26
-174
-389
-132
-109
-367
-226
-67
-260
-313
-61
-124
-326
-128
-72
-305
-184
-10
-247
-252
2
-129
-250
-24
-26
-284
-179
37
-194
-271
11
-96
-314
-95
-30
-270
-159
4
-225
-278
-26
-131
-362
-122
-43
-318
-196
-45
-305
-315
-55
-163
-342
-104
-83
-367
-234
-39
-245
-305
-87
-154
-308
-136
-76
-298
-203
19
-141
-156
75
-30
-155
114
161
-74
203
437
62
-12
234
43
-185
2
-48
-378
-287
-108
-322
-375
-144
-223
-392
-209
-148
-343
-378
-346
-114
889
2566
3987
4491
4063
2932
1618
895
769
390
-7
-19
-211
-435
-295
-273
-533
-447
-273
-513
-507
-262
-401
-579
-376
-306
-539
-433
-258
-463
-485
-238
-337
-481
-250
-214
-464
-356
-158
-322
-360
-185
-240
-332
-93
-4
-238
-102
73
-134
-67
184
41
-140
142
256
-25
73
283
99
70
310
185
-29
182
221
-101
-66
98
-155
-266
-3
-88
-332
-128
-96
-379
-263
-48
-251
-294
-17
-142
-370
-144
-46
-299
-250
-42
-241
-333
-53
-109
-331
-147
-54
-273
-142
70
-214
-280
0
-146
-319
-82
-50
-280
-205
-29
-232
-336
-78
-100
-282
-122
-91
-309
-231
-72
-242
-336
-89
-155
-373
-134
-62
-317
-214
-41
-276
-323
-50
-131
-347
-111
-9
-339
-236
12
-245
-320
-43
-133
-306
-94
-66
-278
-124
127
-69
-204
69
74
-70
179
269
101
254
364
67
-16
160
-9
-231
-97
-54
-345
-329
-113
-274
-399
-196
-209
-397
-167
-85
-511
-428
411
1390
2751
4396
4664
3457
2550
1676
643
531
577
-36
-398
-205
-298
-528
-354
-324
-560
-496
-316
-513
-602
-309
-357
-582
-357
-254
-525
-434
-241
-419
-471
-253
-294
-504
-250
-141
-453
-337
-109
-297
-316
-58
-118
-276
-85
15
-187
-115
123
35
-46
150
152
-33
152
319
98
135
368
185
85
323
235
10
178
200
-129
-86
94
-134
-244
-36
-126
-346
-127
-20
-286
-227
-27
-243
-326
-75
-170
-334
-129
-76
-290
-197
-18
-245
-309
-52
-129
-372
-149
-3
-276
-204
35
-183
-257
24
-81
-272
-62
0
-274
-232
15
-181
-288
-26
-139
-355
-120
-38
-293
-225
-27
-229
-336
-68
-113
-351
-125
-57
-366
-242
-16
-243
-352
-110
-140
-344
-140
-22
-281
-208
9
-210
-292
-52
-120
-289
-141
-60
-247
-181
22
-139
-192
81
62
-148
68
210
-70
50
416
252
78
280
223
-51
26
64
-264
-271
-38
-201
-284
-84
-225
-425
-191
-68
-279
-247
-173
-413
34
1428
2782
4045
4745
3874
2430
1519
965
572
291
221
-58
-386
-250
-260
-508
-446
-258
-457
-575
-284
-313
-570
-400
-270
-550
-470
-199
-416
-471
-171
-253
-490
-279
-150
-403
-341
-116
-278
-363
-81
-87
-344
-154
6
-226
-139
135
-21
-139
158
194
-30
154
311
79
112
371
173
29
372
362
88
252
349
49
48
222
-14
-119
86
-52
-264
-61
11
-252
-228
-25
-221
-331
-68
-117
-333
-144
-54
-315
-208
29
-212
-306
-25
-120
-299
-36
15
-274
-207
35
-120
-225
14
-29
-262
-120
-44
-207
-133
5
-169
-283
-43
-86
-323
-120
14
-259
-253
-6
-176
-295
-49
-58
-255
-164
-74
-274
-232
-5
-158
-284
-57
-95
-351
-174
-28
-287
-238
21
-169
-308
-44
-77
-314
-137
-44
-267
-203
11
-104
-176
85
46
-165
91
222
22
131
373
203
5
206
186
-65
23
20
-280
-278
-54
-222
-340
-54
-174
-471
-209
-58
-267
-241
-250
-280
482
2057
3623
4541
4456
3270
1877
1151
945
592
100
30
-109
-413
-281
-154
-456
-514
-243
-410
-562
-299
-335
-526
-319
-222
-474
-443
-188
-328
-455
-223
-271
-436
-220
-153
-381
-266
-61
-211
-275
-61
-82
-277
-80
47
-173
-43
192
-7
-89
170
157
-9
176
304
80
132
394
183
58
371
330
48
226
339
33
-12
147
-27
-176
-18
-68
-302
-174
-43
-273
-241
-12
-225
-355
-86
-108
-318
-160
-37
-304
-254
9
-217
-320
-14
-45
-289
-108
44
-190
-149
64
-113
-201
13
-50
-260
-69
36
-244
-183
52
-152
-258
-21
-89
-312
-143
-19
-265
-212
46
-128
-307
-81
-73
-326
-150
-8
-260
-236
-12
-180
-314
-45
-47
-324
-156
-21
-238
-192
-41
-178
-266
-29
-4
-186
15
135
-108
-56
220
136
-8
269
345
44
120
210
-21
-37
57
-132
-338
-149
-141
-416
-255
-107
-344
-293
-53
-224
-345
-221
-321
-86
1145
2794
4085
4648
4009
2539
1417
1022
733
192
-14
-62
-363
-392
-226
-415
-548
-309
-345
-570
-387
-264
-517
-498
-278
-399
-503
-288
-301
-524
-335
-126
-386
-448
-187
-297
-396
-136
-171
-375
-185
-9
-227
-243
15
-116
-238
43
55
-155
45
208
-27
45
285
69
-28
257
241
8
156
296
80
78
283
83
-134
87
85
-258
-177
-27
-313
-292
-38
-240
-390
-134
-165
-424
-293
-96
-310
-353
-74
-219
-400
-161
-164
-388
-272
-78
-244
-319
-98
-226
-361
-66
-81
-338
-132
15
-272
-274
-45
-197
-339
-86
-42
-328
-246
-82
-325
-298
-42
-238
-386
-120
-116
-389
-246
-73
-347
-360
-45
-199
-421
-151
-121
-384
-240
-80
-351
-372
-91
-251
-392
-99
-126
-370
-173
-3
-235
-209
47
-118
-209
99
114
-81
145
263
-51
-24
181
-52
-240
-106
-183
-408
-294
-175
-388
-422
-209
-318
-452
-238
-206
-409
-468
-311
195
1438
3165
4319
4255
3379
2236
1063
616
646
134
-225
-80
-313
-566
-344
-316
-613
-504
-339
-603
-561
-363
-543
-626
-383
-373
-578
-432
-289
-464
-439
-241
-379
-485
-212
-199
-474
-318
-104
-350
-356
-48
-148
-303
-53
-35
-235
-37
134
-91
-39
266
92
-83
182
246
37
145
325
117
131
376
200
0
218
219
-102
-28
110
-131
-138
74
-147
-308
-49
-63
-284
-149
1
-209
-257
-44
-158
-288
-58
-94
-328
-155
-48
-276
-237
12
-108
-294
-61
-2
-280
-146
53
-195
-164
98
-108
-284
-74
-45
-251
-132
46
-192
-250
11
-88
-277
-59
-23
-277
-160
54
-185
-255
14
-117
-285
-64
-46
-270
-165
-4
-213
-226
19
-134
-298
-40
-4
-256
-135
43
-239
-267
21
-111
-245
-19
54
-70
44
112
-100
-12
279
185
96
341
286
8
161
231
-150
-236
-20
-171
-376
-137
-108
-409
-258
-117
-389
-353
-78
-167
-433
-306
281
1177
2667
4283
4590
3660
2678
1558
695
729
535
-92
-237
-151
-337
-431
-266
-407
-590
-363
-351
-534
-423
-318
-494
-502
-229
-346
-575
-373
-280
-497
-362
-177
-413
-414
-194
-303
-440
-193
-99
-371
-263
-36
-261
-245
62
-49
-190
66
108
-102
42
214
42
33
267
193
34
239
307
84
196
357
106
41
235
79
-123
37
16
-230
-122
10
-216
-266
-14
-155
-370
-121
-100
-364
-224
-34
-278
-333
-58
-137
-343
-139
-71
-319
-211
-20
-242
-266
-1
-117
-300
-77
-2
-244
-175
-8
-225
-262
-15
-91
-273
-97
-17
-250
-151
27
-235
-285
-6
-163
-351
-72
-86
-347
-204
-46
-240
-289
-59
-180
-382
-106
-86
-408
-271
-81
-273
-285
-87
-202
-406
-205
-100
-324
-199
-45
-297
-256
72
-7
-150
70
64
-134
51
221
33
88
364
180
-26
174
140
-178
-161
-70
-294
-336
-111
-206
-357
-143
-139
-384
-291
-93
-256
-475
-283
276
1241
2873
4398
4480
3519
2534
1369
607
707
407
-182
-134
-187
-506
-415
-281
-509
-581
-332
-405
-618
-422
-301
-467
-437
-316
-475
-488
-244
-347
-533
-310
-231
-476
-334
-80
-303
-397
-138
-181
-333
-121
-39
-222
-138
21
-125
-98
178
78
-74
170
253
15
84
325
114
58
357
253
95
281
295
51
114
269
18
-80
131
2
-237
-55
20
-269
-165
70
-228
-295
-2
-139
-321
-116
-68
-289
-210
-27
-199
-261
-44
-133
-305
-75
-15
-244
-133
42
-137
-186
42
-45
-242
-22
42
-207
-101
68
-143
-196
28
-85
-268
-52
0
-239
-135
36
-184
-223
2
-93
-275
-91
0
-242
-181
52
-131
-250
-11
-81
-290
-42
26
-302
-186
78
-162
-262
8
-78
-278
-73
-43
-248
-107
95
-109
-165
125
25
-138
157
267
25
151
460
225
77
317
140
-85
85
22
-271
-218
-20
-224
-353
-89
-127
-291
-94
-114
-319
-237
-264
-259
611
2223
3691
4547
4351
3107
1822
1098
874
584
185
95
-114
-385
-243
-211
-456
-383
-198
-396
-506
-242
-300
-541
-327
-185
-442
-382
-141
-336
-404
-146
-239
-429
-180
-52
-347
-302
-60
-245
-277
-6
-61
-247
-47
74
-163
-60
200
29
-27
245
171
-12
261
331
56
155
390
225
168
440
340
109
303
328
31
105
229
-49
-114
106
-59
-265
-2
-17
-318
-157
-5
-195
-209
-29
-98
-286
-117
-12
-241
-161
53
-146
-224
21
-46
-229
-30
67
-199
-168
60
-137
-231
40
-30
-269
-68
53
-198
-171
17
-138
-230
17
-20
-258
-69
39
-169
-132
-3
-142
-203
5
-56
-249
-55
25
-219
-154
33
-168
-232
24
-55
-259
-62
35
-225
-157
59
-160
-238
8
-6
-133
36
154
-49
-36
219
148
96
369
363
147
218
261
45
30
155
-106
-282
-34
-65
-302
-134
-43
-280
-195
3
-223
-277
19
-252
-376
719
2166
3481
4700
4698
3204
1882
1330
862
430
285
97
-239
-262
-120
-291
-426
-258
-340
-546
-331
-223
-491
-396
-164
-365
-416
-125
-202
-443
-214
-73
-368
-318
-64
-263
-324
-66
-132
-301
-74
30
-221
-147
123
-52
-162
146
107
-88
134
213
-16
73
321
188
67
292
308
108
259
370
126
157
364
144
6
245
104
-200
-51
38
-208
-221
-22
-181
-307
-55
-112
-334
-118
-40
-275
-220
-26
-200
-295
-17
-80
-307
-113
-31
-258
-171
57
-154
-288
9
-33
-259
-59
30
-221
-150
98
-132
-261
1
-129
-347
-129
-72
-301
-209
-17
-204
-318
-69
-112
-347
-161
-78
-271
-184
-34
-263
-333
-72
-114
-284
-161
-55
-269
-273
-20
-188
-290
-22
-23
-166
14
105
-120
-43
252
138
7
301
250
-45
139
224
-90
-135
-18
-256
-386
-115
-159
-427
-234
-125
-418
-377
-108
-257
-360
-304
-314
254
1714
3389
4394
4359
3363
2018
1066
772
538
81
-38
-116
-404
-372
-275
-506
-572
-341
-379
-583
-414
-303
-563
-497
-256
-432
-518
-305
-329
-500
-340
-224
-472
-391
-132
-362
-457
-158
-213
-397
-188
-78
-253
-180
14
-142
-237
39
65
-135
58
181
-68
10
267
96
-9
194
143
12
219
321
61
59
254
22
-132
71
-34
-273
-113
-20
-288
-274
-91
-283
-359
-91
-129
-391
-219
-69
-322
-319
-109
-273
-378
-107
-119
-338
-147
-24
-278
-233
-15
-181
-273
-13
-34
-292
-155
-45
-249
-192
8
-165
-284
-50
-114
-339
-161
-69
-291
-190
-14
-268
-359
-101
-133
-377
-199
-45
-323
-267
-26
-232
-336
-68
-111
-350
-156
-50
-284
-230
-31
-227
-327
-43
-94
-352
-166
-25
-242
-153
107
-88
-199
89
76
-104
119
333
120
59
222
25
-118
85
-22
-317
-176
-94
-358
-330
-120
-313
-451
-174
-224
-451
-209
-181
-560
-163
1099
2272
3581
4671
4078
2696
1860
1066
485
371
191
-194
-401
-257
-330
-563
-388
-302
-583
-589
-371
-498
-596
-342
-384
-583
-418
-329
-529
-525
-274
-397
-550
-268
-286
-529
-326
-146
-419
-412
-131
-276
-362
-86
-100
-289
-124
17
-167
-109
146
-18
-118
180
156
-36
188
295
37
93
321
144
61
309
189
-83
62
140
-115
-130
58
-159
-341
-96
-107
-350
-196
-105
-344
-295
-68
-198
-337
-161
-189
-344
-171
-96
-313
-248
-32
-233
-350
-41
-106
-377
-126
-7
-300
-223
-16
-229
-290
-39
-122
-323
-141
-51
-311
-298
-42
-197
-343
-119
-144
-336
-166
-70
-335
-304
-63
-254
-397
-136
-164
-380
-211
-122
-375
-337
-91
-263
-380
-108
-165
-401
-210
-88
-329
-287
-57
-224
-342
-97
-116
-328
-85
94
-138
-65
161
-46
-116
172
130
32
300
323
-35
-23
203
-65
-267
-78
-177
-393
-221
-131
-396
-371
-118
-268
-436
-175
-94
-431
-432
126
966
2392
4132
4681
3806
2829
1809
770
654
630
-39
-254
-49
-291
-499
-302
-334
-559
-401
-260
-508
-505
-238
-394
-550
-259
-273
-527
-338
-210
-462
-384
-148
-370
-445
-177
-208
-388
-237
-110
-324
-260
2
-139
-238
-2
27
-160
4
151
-92
14
312
94
-57
246
285
56
217
366
124
158
414
219
47
268
191
-95
54
108
-199
-175
2
-221
-304
4
-52
-312
-104
9
-304
-295
-45
-167
-301
-117
-135
-322
-159
-31
-281
-305
-20
-150
-290
-9
-79
-301
-106
-17
-216
-178
-8
-141
-258
-85
-82
-268
-121
-22
-265
-188
29
-216
-363
-88
-86
-307
-135
-38
-303
-285
-43
-187
-326
-121
-146
-328
-158
-25
-316
-283
10
-229
-389
-108
-127
-351
-154
-14
-239
-222
-53
-199
-307
-70
-47
-225
-54
65
-142
-113
136
47
-75
199
276
116
239
271
-9
1
203
-115
-379
-114
-109
-356
-215
-104
-351
-320
-76
-277
-391
-71
-284
-544
404
1803
3003
4379
4716
3387
2126
1444
799
441
391
118
-323
-340
-188
-404
-537
-301
-337
-548
-385
-263
-491
-502
-252
-385
-528
-270
-288
-516
-327
-194
-428
-377
-152
-320
-428
-136
-136
-381
-200
-59
-291
-232
46
-100
-202
99
52
-157
106
209
-35
78
300
102
35
286
245
68
267
400
150
142
334
135
-4
199
118
-127
-3
37
-247
-193
17
-175
-283
-63
-94
-342
-195
-32
-295
-269
-14
-214
-353
-99
-139
-386
-174
-25
-311
-260
-17
-211
-296
-44
-123
-343
-137
-31
-272
-168
46
-162
-281
-67
-88
-277
-135
-54
-290
-216
22
-184
-314
-65
-113
-351
-161
-40
-305
-245
-9
-204
-301
-41
-102
-332
-144
-44
-294
-235
-31
-191
-267
-27
-109
-379
-179
0
-268
-237
34
-153
-204
104
38
-182
23
138
-84
-2
305
186
-27
175
132
-174
-20
45
-305
-292
-117
-299
-377
-178
-234
-468
-313
-147
-349
-342
-245
-498
-119
1267
2703
3998
4733
3893
2298
1438
1068
570
179
93
-135
-447
-340
-231
-510
-547
-353
-529
-607
-322
-356
-648
-475
-313
-558
-494
-270
-451
-532
-243
-295
-519
-340
-236
-416
-347
-159
-318
-393
-154
-177
-334
-98
22
-235
-174
95
-62
-154
118
87
-52
157
255
57
102
309
110
16
292
229
66
237
232
-35
18
153
-125
-254
-30
-119
-341
-172
-65
-294
-296
-53
-216
-400
-131
-158
-375
-174
-109
-359
-281
-53
-230
-338
-93
-142
-345
-137
-34
-297
-267
-35
-195
-286
-34
-125
-321
-133
-79
-302
-243
-13
-233
-362
-71
-159
-368
-154
-72
-323
-242
-26
-240
-337
-115
-152
-364
-187
-43
-301
-247
-20
-234
-358
-98
-116
-352
-175
-37
-311
-261
-18
-234
-304
32
-22
-220
46
136
-116
-1
251
129
94
343
272
-15
102
186
-82
-101
14
-226
-341
-111
-202
-392
-171
-87
-319
-276
-74
-208
-402
-342
-32
840
2494
4114
4567
3882
2755
1538
764
731
506
-44
-109
-111
-431
-399
-203
-416
-501
-269
-331
-536
-359
-273
-519
-432
-250
-417
-432
-151
-222
-484
-258
-118
-373
-312
-74
-237
-342
-104
-168
-335
-59
49
-209
-103
137
-59
-97
161
93
-46
154
246
17
77
310
141
76
335
230
57
330
367
74
142
291
30
-88
132
16
-228
-58
12
-295
-236
10
-201
-293
-53
-133
-326
-126
-48
-292
-213
22
-196
-317
-18
-86
-308
-88
3
-247
-200
19
-118
-164
63
-65
-253
-22
35
-223
-154
61
-140
-220
42
-62
-290
-97
2
-256
-178
79
-144
-278
-38
-63
-274
-155
-71
-300
-189
38
-211
-301
-29
-73
-306
-147
-13
-250
-214
7
-191
-306
-25
-113
-347
-98
6
-217
-65
173
-40
-120
99
57
-20
217
259
111
206
285
91
-16
118
2
-245
-121
-120
-328
-200
-91
-329
-369
-97
-200
-404
-139
-140
-545
-169
933
2014
3460
4771
4310
2884
2047
1230
558
510
349
-153
-364
-177
-296
-559
-357
-280
-544
-461
-248
-486
-601
-288
-337
-557
-328
-254
-485
-342
-189
-449
-425
-127
-240
-412
-179
-118
-392
-282
-58
-198
-222
-36
-109
-263
-8
74
-163
-4
228
35
-27
261
167
-32
246
365
77
124
386
222
115
285
172
15
177
141
-130
-37
125
-97
-176
38
-97
-300
-91
-47
-270
-179
-21
-242
-275
-5
-135
-347
-117
-38
-288
-212
-40
-252
-242
68
-68
-261
-35
9
-203
-119
49
-169
-216
43
-55
-259
-67
-5
-237
-127
38
-189
-252
-32
-128
-263
-90
-89
-308
-194
-5
-270
-346
-49
-148
-347
-128
-92
-299
-189
-39
-266
-333
-59
-157
-325
-83
-58
-299
-227
-64
-229
-256
-27
-121
-286
-27
103
-171
-79
112
-106
-49
259
162
58
329
297
-44
87
262
-80
-206
-16
-214
-410
-147
-96
-374
-294
-122
-305
-340
-96
-147
-468
-355
336
1302
2789
4369
4583
3596
2698
1587
588
652
562
-88
-182
-59
-359
-449
-221
-357
-537
-332
-300
-509
-401
-244
-465
-479
-203
-318
-475
-239
-214
-467
-346
-128
-332
-400
-157
-261
-425
-162
-125
-359
-157
19
-231
-204
87
-41
-194
87
130
-97
113
309
32
15
318
218
50
298
335
93
228
393
123
43
277
103
-141
61
40
-249
-131
20
-222
-259
-1
-125
-352
-101
-21
-308
-217
-52
-279
-295
1
-122
-368
-136
-99
-367
-168
18
-281
-286
-8
-137
-300
-51
-24
-296
-152
32
-240
-292
-15
-134
-313
-106
-117
-310
-169
-22
-240
-282
23
-117
-378
-134
-106
-342
-177
-12
-273
-319
-41
-165
-337
-100
-77
-288
-184
-48
-241
-242
-3
-142
-318
-71
-51
-332
-150
33
-248
-250
32
-33
-164
56
99
-182
-28
252
54
76
363
198
-15
205
218
-92
-36
78
-219
-312
-85
-210
-364
-150
-170
-373
-225
-106
-293
-336
-261
-194
532
2087
3607
4492
4422
3302
1872
1064
905
589
93
2
-97
-378
-273
-163
-475
-560
-312
-387
-525
-303
-269
-530
-451
-289
-462
-428
-230
-399
-483
-211
-175
-401
-308
-138
-325
-321
-64
-176
-321
-36
-26
-320
-94
144
-108
-130
138
35
-66
208
199
-23
173
355
115
115
381
246
106
332
306
88
254
328
-6
-50
175
-17
-211
35
-22
-313
-132
13
-275
-279
6
-118
-312
-113
-89
-303
-131
40
-277
-306
31
-132
-322
-65
-40
-281
-132
47
-174
-190
0
-138
-225
18
-13
-225
-52
8
-254
-184
-3
-197
-272
-27
-89
-313
-143
6
-230
-252
-22
-176
-333
-90
-56
-284
-197
-65
-296
-282
-30
-188
-324
-102
-101
-310
-124
-13
-303
-222
6
-212
-288
-17
-55
-213
-3
119
-123
-90
204
105
-8
282
332
68
156
243
-55
-68
117
-148
-303
-70
-104
-357
-278
-110
-334
-325
-77
-238
-321
-155
-310
-208
1023
2651
3925
4699
4218
2652
1478
1069
724
216
25
9
-310
-394
-200
-396
-527
-284
-357
-558
-364
-287
-536
-435
-209
-408
-504
-228
-256
-519
-275
-99
-366
-304
-97
-310
-402
-120
-108
-285
-112
-19
-293
-214
69
-126
-208
85
73
-119
78
243
-3
26
294
159
84
349
290
60
244
346
70
112
326
65
-81
138
33
-213
-51
35
-258
-248
-36
-196
-293
-96
-153
-325
-140
-76
-317
-195
-9
-250
-326
-59
-56
-299
-170
8
-230
-220
28
-136
-247
22
-11
-236
-47
52
-186
-146
44
-129
-249
-11
-48
-253
-75
27
-252
-255
10
-156
-287
-30
-84
-310
-124
-34
-285
-236
-15
-188
-307
-38
-113
-349
-123
-49
-309
-233
-1
-190
-305
31
3
-258
-8
141
-115
-62
212
69
-15
317
289
34
210
252
-76
-29
186
-144
-385
-103
-139
-406
-231
-122
-370
-312
-87
-301
-375
-131
-405
-570
406
1738
3004
4363
4595
3290
2033
1357
731
341
262
44
-304
-357
-240
-441
-610
-365
-423
-636
-415
-355
-582
-481
-271
-449
-572
-320
-334
-541
-354
-265
-481
-390
-195
-341
-396
-157
-247
-466
-183
-50
-296
-253
-44
-157
-267
17
57
-180
9
152
-72
36
270
86
46
312
257
88
321
380
54
137
348
81
-22
200
53
-199
-30
25
-287
-228
-2
-245
-316
-25
-105
-349
-146
-65
-354
-250
-21
-220
-295
-81
-198
-369
-134
-69
-312
-203
-4
-211
-244
-15
-113
-260
-78
-43
-231
-152
16
-147
-248
-13
-90
-331
-116
-19
-313
-272
-33
-237
-332
-62
-177
-374
-119
-107
-361
-218
-63
-283
-329
-104
-184
-332
-171
-159
-340
-237
-84
-272
-358
-120
-164
-386
-185
-70
-338
-250
-14
-205
-228
71
-9
-227
26
148
-80
70
323
124
4
216
96
-146
29
3
-356
-278
-83
-324
-387
-172
-259
-404
-214
-179
-389
-258
-242
-551
-40
1353
2692
3963
4697
3924
2546
1602
930
507
310
198
-145
-450
-281
-293
-606
-508
-300
-519
-605
-372
-446
-590
-373
-351
-589
-437
-254
-494
-463
-220
-404
-519
-287
-287
-513
-356
-157
-398
-391
-97
-218
-388
-106
-11
-270
-158
41
-111
-110
117
85
-59
187
262
6
172
357
140
139
403
324
101
232
258
-25
47
193
-104
-149
65
-110
-293
-104
-55
-317
-239
-31
-253
-288
-34
-155
-327
-108
-148
-388
-188
-65
-303
-316
-68
-157
-319
-92
-63
-305
-175
11
-211
-254
36
-87
-308
-82
-54
-273
-147
18
-188
-231
18
-104
-304
-53
-51
-346
-135
46
-227
-247
-34
-173
-315
-34
-54
-350
-173
-3
-261
-294
-31
-140
-312
-102
-92
-341
-218
-11
-219
-286
-48
-165
-339
-122
-58
-299
-182
51
-135
-135
120
-11
-155
133
207
-22
200
460
124
-14
253
126
-124
-21
-77
-344
-228
-50
-292
-348
-84
-209
-384
-117
-107
-336
-276
-277
-118
930
2512
3851
4520
4140
2942
1695
992
764
402
88
33
-233
-440
-243
-265
-543
-391
-250
-518
-526
-275
-400
-550
-299
-292
-521
-336
-205
-466
-435
-217
-371
-455
-188
-194
-427
-306
-155
-315
-282
-45
-177
-294
3
7
-235
-33
144
-84
-24
245
102
-4
264
281
49
266
459
146
169
449
269
67
237
225
-60
34
124
-183
-212
-22
-147
-296
-95
-111
-373
-202
-73
-317
-299
-86
-259
-393
-123
-148
-421
-240
-64
-327
-325
-69
-200
-342
-121
-151
-377
-193
-76
-263
-227
-44
-177
-347
-121
-84
-310
-174
-73
-349
-284
-6
-203
-324
-93
-143
-318
-170
-105
-326
-272
-4
-184
-361
-133
-133
-354
-190
-35
-331
-302
-30
-201
-327
-96
-105
-357
-243
-69
-289
-328
-64
-215
-371
-63
-37
-229
-47
72
-191
-148
168
27
-60
279
268
-12
92
145
-184
-180
2
-254
-374
-175
-250
-448
-289
-172
-368
-347
-205
-371
-400
-274
-398
-32
1294
2897
4140
4581
3788
2335
1273
862
631
202
5
-79
-425
-448
-272
-462
-558
-349
-401
-638
-446
-281
-558
-532
-287
-431
-558
-345
-305
-509
-386
-245
-449
-411
-157
-306
-439
-183
-180
-386
-201
-69
-291
-190
39
-156
-205
86
36
-153
81
194
-22
65
259
80
31
315
258
57
269
367
82
111
293
44
-95
68
-39
-212
-59
-18
-259
-243
-55
-210
-315
-83
-131
-377
-205
-89
-337
-273
-38
-229
-337
-88
-141
-352
-187
-81
-292
-229
-19
-201
-251
6
-98
-310
-110
2
-243
-218
-15
-185
-282
-63
-111
-288
-108
-42
-275
-238
-68
-246
-311
-57
-123
-336
-163
-58
-311
-270
-73
-254
-309
-64
-124
-364
-184
-51
-308
-257
-26
-227
-319
-69
-141
-333
-130
-46
-301
-173
101
-68
-143
61
8
-99
151
240
34
171
341
33
-60
193
58
-244
-163
-124
-364
-257
-68
-333
-381
-116
-232
-427
-217
-93
-421
-529
62
922
2247
4076
4777
3763
2663
1748
738
582
607
7
-273
-101
-251
-490
-352
-311
-543
-434
-259
-468
-519
-282
-336
-543
-359
-264
-450
-360
-197
-365
-425
-194
-260
-412
-189
-143
-387
-239
-14
-240
-266
13
-85
-241
27
78
-165
7
236
38
-26
240
192
8
220
291
87
202
373
144
82
323
224
44
226
252
-80
-48
157
-121
-217
45
-110
-317
-93
-50
-300
-178
29
-202
-264
4
-106
-318
-86
-26
-300
-169
54
-177
-247
-16
-87
-250
-50
30
-198
-86
90
-160
-183
97
-66
-278
-9
66
-214
-175
11
-161
-200
28
-78
-263
-80
-30
-242
-130
19
-217
-225
61
-90
-343
-99
-48
-283
-120
11
-265
-281
-1
-115
-277
-43
-30
-256
-133
11
-227
-262
6
-107
-296
-33
35
-209
-30
201
-32
-98
183
147
32
286
352
163
250
320
58
-9
167
-19
-277
-71
-18
-321
-213
-22
-279
-321
-48
-170
-312
-13
-160
-547
157
1472
2626
4044
4852
3891
2529
1748
986
546
509
240
-212
-277
-119
-299
-484
-290
-300
-547
-389
-216
-459
-469
-164
-294
-487
-201
-205
-515
-337
-106
-332
-358
-108
-246
-385
-120
-96
-330
-193
7
-195
-230
38
-19
-143
53
68
-108
72
226
46
56
266
199
66
290
314
80
270
455
198
136
359
208
-8
193
160
-150
-27
103
-159
-177
38
-100
-287
-49
-32
-335
-159
17
-241
-246
-20
-156
-280
-54
-73
-319
-160
24
-210
-202
21
-127
-265
-52
-28
-227
-68
63
-207
-217
37
-96
-250
14
-2
-286
-116
37
-218
-202
37
-173
-299
-36
-45
-251
-145
-27
-255
-208
27
-181
-300
-33
-75
-329
-149
6
-258
-274
-20
-139
-263
-50
-98
-365
-193
-4
-287
-268
2
-160
-269
-53
-69
-239
-61
110
-81
-79
173
51
-51
234
223
68
312
390
106
56
219
42
-156
7
-112
-320
-114
-40
-268
-283
-98
-191
-312
-107
-75
-385
-414
87
960
2358
4065
4768
3969
2936
1929
879
695
643
19
-139
1
-302
-442
-250
-335
-539
-388
-268
-479
-486
-241
-357
-537
-256
-258
-553
-328
-156
-431
-413
-105
-270
-476
-175
-159
-410
-201
-61
-348
-273
8
-158
-244
69
52
-234
-29
179
-66
8
271
80
-6
249
260
70
211
350
143
166
398
256
65
246
197
-54
92
130
-189
-163
96
-110
-282
0
-27
-291
-131
-44
-281
-191
33
-173
-306
-67
-106
-311
-110
12
-263
-208
55
-123
-241
-35
-36
-150
-9
66
-165
-130
83
-89
-137
109
4
-196
-1
36
-209
-177
3
-122
-222
27
-14
-271
-90
2
-233
-130
34
-165
-212
12
-58
-271
-67
47
-225
-171
69
-131
-228
37
-46
-272
-71
25
-238
-189
44
-129
-232
-7
-74
-287
-82
26
-227
-107
170
-23
-90
142
24
-129
163
294
45
172
433
183
46
280
150
-129
11
-14
-317
-226
-34
-276
-348
-93
-209
-366
-184
-133
-282
-364
-327
61
1158
2778
4144
4482
3784
2621
1391
763
767
360
-153
-100
-219
-500
-345
-278
-564
-523
-299
-496
-581
-309
-390
-560
-341
-307
-518
-393
-204
-431
-517
-226
-277
-482
-245
-180
-454
-335
-91
-257
-304
-79
-206
-338
-66
-2
-211
-95
94
-75
-77
197
116
-77
131
228
1
108
323
126
124
383
244
51
238
274
-2
-4
147
-37
-162
5
-88
-319
-136
-45
-307
-242
-42
-240
-294
-35
-137
-363
-137
-78
-364
-233
-36
-258
-315
-54
-139
-346
-83
-4
-289
-205
7
-220
-300
-35
-146
-289
-66
-104
-345
-196
-5
-249
-326
-55
-153
-368
-158
-90
-346
-227
-17
-272
-328
-85
-214
-343
-105
-94
-342
-220
-80
-281
-280
-46
-162
-379
-135
-67
-343
-225
-67
-273
-257
-33
-158
-323
-133
-93
-297
-139
82
-114
-134
122
25
-105
157
222
36
248
411
62
-36
212
64
-193
-53
-105
-398
-244
-85
-335
-303
-54
-217
-392
-172
-93
-309
-408
-205
436
1699
3431
4611
4401
3350
2184
1105
764
753
175
-146
-13
-213
-439
-267
-259
-512
-389
-219
-426
-415
-212
-330
-507
-300
-211
-467
-356
-176
-378
-385
-152
-268
-428
-220
-162
-337
-241
-103
-269
-276
-39
-128
-239
11
46
-191
-60
158
-60
-76
222
102
-79
150
208
31
186
348
128
79
335
227
38
222
187
-90
-23
80
-147
-183
-29
-186
-344
-124
-104
-357
-189
-40
-320
-282
-73
-241
-281
-41
-86
-314
-193
-48
-231
-226
-6
-127
-272
-44
-65
-289
-110
19
-227
-243
29
-88
-281
-35
-24
-287
-165
-24
-224
-258
-31
-134
-333
-119
-76
-291
-177
-47
-264
-284
-41
-171
-334
-103
-117
-352
-186
-50
-310
-280
-20
-205
-345
-93
-95
-335
-199
-13
-267
-301
-47
-176
-228
53
47
-173
-50
119
-43
15
264
139
62
280
164
-84
91
151
-171
-253
-86
-251
-381
-141
-185
-431
-243
-78
-358
-373
-87
-323
-627
-21
995
2206
3946
4829
3857
2540
1719
886
483
538
156
-328
-188
-118
-428
-385
-205
-441
-530
-317
-407
-593
-382
-280
-553
-493
-233
-411
-539
-251
-292
-554
-334
-159
-410
-368
-116
-305
-382
-90
-119
-295
-115
-14
-217
-146
101
-39
-159
133
170
-98
36
199
6
92
330
139
25
259
234
42
250
325
20
72
225
-13
-168
-2
-52
-285
-114
-26
-309
-242
-14
-187
-315
-89
-99
-364
-219
-69
-291
-228
-37
-238
-309
-50
-78
-284
-109
11
-209
-131
58
-125
-205
7
-62
-251
-83
-10
-214
-166
12
-162
-254
11
-21
-271
-124
4
-209
-187
-25
-207
-302
-60
-118
-349
-117
-20
-325
-262
-13
-189
-297
-57
-116
-331
-195
-89
-316
-282
-31
-204
-312
-86
-127
-327
-161
-64
-296
-182
97
-53
-160
35
-6
-145
117
244
24
144
322
68
-39
168
17
-249
-92
-76
-337
-286
-112
-307
-387
-139
-214
-425
-199
-40
-404
-487
24
726
2014
3783
4666
4054
3032
2081
925
544
653
86
-285
-134
-296
-516
-356
-327
-571
-484
-308
-512
-560
-299
-380
-636
-392
-271
-553
-388
-170
-432
-482
-176
-240
-471
-241
-157
-404
-292
-100
-244
-294
-91
-134
-288
-25
70
-178
-40
162
-21
-34
225
166
-19
183
284
96
179
316
121
117
383
247
14
201
216
-96
-6
163
-108
-185
27
-109
-250
-12
-30
-300
-205
-28
-228
-286
-27
-137
-358
-105
-29
-316
-193
10
-218
-272
-48
-111
-287
-113
-27
-244
-181
-8
-167
-205
6
-118
-316
-94
-24
-268
-178
-29
-239
-267
-58
-156
-290
-101
-138
-392
-214
-44
-313
-329
-37
-166
-353
-134
-121
-394
-293
-75
-276
-324
-84
-201
-371
-141
-100
-351
-254
-76
-257
-266
-48
-153
-313
-118
-19
-217
-95
141
-74
-145
139
80
-56
204
306
107
137
249
19
-63
116
-96
-347
-146
-137
-398
-301
-161
-371
-401
-174
-253
-379
-200
-292
-609
-6
1303
2473
3907
4816
3887
2463
1722
963
414
404
237
-222
-389
-204
-342
-562
-348
-357
-617
-465
-325
-523
-520
-328
-444
-579
-299
-280
-590
-425
-236
-453
-441
-178
-282
-495
-262
-159
-416
-228
-17
-299
-255
36
-138
-282
-22
12
-150
5
166
-6
-9
244
177
41
267
310
83
238
396
133
111
341
198
36
232
150
-151
-28
101
-159
-223
13
-139
-300
-29
-93
-346
-165
-51
-269
-278
-72
-158
-302
-79
-78
-303
-100
17
-278
-247
10
-120
-234
-24
-45
-252
-89
29
-198
-159
74
-95
-244
-3
7
-216
-97
26
-205
-212
26
-122
-255
-32
-81
-289
-122
12
-218
-201
6
-162
-254
-15
-34
-277
-142
27
-214
-230
19
-131
-282
-33
-57
-308
-123
18
-227
-216
-3
-122
-269
-76
-58
-265
-44
121
-128
-65
169
19
-64
218
223
12
256
451
54
-23
285
38
-193
-5
-100
-350
-206
-81
-312
-284
-60
-233
-349
-132
-97
-317
-394
-103
552
1872
3671
4648
4275
3301
2181
1076
737
791
235
-106
16
-215
-416
-246
-319
-542
-343
-237
-488
-452
-237
-374
-494
-281
-281
-456
-314
-156
-367
-372
-146
-308
-424
-205
-191
-368
-202
-67
-274
-222
6
-148
-215
110
42
-217
24
220
-39
-31
261
113
5
278
256
56
254
376
131
151
367
203
87
303
195
-51
117
138
-180
-166
32
-157
-286
-43
-80
-320
-122
-6
-262
-192
7
-200
-321
-55
-82
-277
-85
-37
-249
-171
48
-135
-244
35
-43
-271
-39
76
-191
-149
80
-111
-251
17
9
-197
-30
32
-252
-184
65
-150
-292
-43
-65
-298
-135
17
-259
-272
9
-160
-296
-39
-90
-294
-121
-24
-233
-192
0
-176
-258
3
-53
-277
-98
12
-218
-157
52
-68
-88
168
116
-117
85
236
35
169
447
287
150
260
172
-47
19
105
-183
-240
-29
-234
-352
-108
-174
-376
-196
-88
-291
-195
-95
-448
-54
1328
2725
4079
4852
4031
2424
1485
1056
596
289
194
-70
-385
-300
-222
-494
-442
-212
-458
-562
-235
-330
-582
-323
-229
-494
-422
-217
-403
-488
-210
-234
-454
-259
-138
-385
-302
-66
-210
-274
-81
-127
-271
-82
16
-152
-63
143
-22
-115
173
146
-35
203
265
-7
133
363
137
60
332
256
47
240
283
-19
1
188
-67
-221
3
-107
-346
-150
-92
-355
-255
-72
-278
-285
-28
-193
-395
-165
-126
-311
-184
-22
-242
-318
-79
-171
-338
-106
-39
-257
-126
32
-204
