2987
3412
3843
4279
4723
5173
5624
6071
6501
6899
7242
7509
7677
7726
7642
7424
7076
6618
6077
5486
4883
4303
3772
3310
2921
2598
2325
2078
1833
1568
1272
941
585
225
-113
-400
-611
-727
-742
-659
-495
-275
-28
213
420
573
658
673
622
518
379
221
62
-80
-194
-271
-309
-308
-274
-215
-143
-69
-7
32
38
6
-66
-173
-306
-451
-594
-719
-812
-862
-865
-823
-745
-644
-536
-436
-360
-316
-308
-333
-383
-445
-505
-549
-567
-552
-506
-434
-344
-250
-164
-98
-64
-65
-102
-172
-266
-373
-480
-574
-642
-676
-670
-624
-545
-443
-331
-224
-140
-92
-87
-130
-218
-340
-481
-624
-749
-843
-891
-888
-834
-735
-606
-463
-323
-203
-117
-74
-76
-120
-198
-297
-402
-499
-576
-623
-634
-612
-558
-483
-396
-311
-240
-192
-173
-186
-230
-297
-378
-458
-524
-564
-569
-536
-466
-369
-257
-149
-61
-9
-3
-47
-136
-260
-400
-536
-650
-724
-747
-718
-641
-530
-400
-271
-162
-86
-51
-58
-102
-174
-258
-340
-408
-449
-454
-423
-359
-270
-167
-63
28
93
121
108
54
-35
-148
-269
-379
-463
-506
-502
-450
-359
-244
-124
-20
48
68
35
-49
-171
-314
-455
-574
-653
-679
-652
-575
-457
-316
-169
-31
83
163
202
201
161
90
-5
-113
-223
-321
-397
-442
-447
-413
-343
-245
-135
-29
54
99
93
34
-73
-214
-370
-517
-634
-701
-708
-656
-550
-407
-248
-94
35
123
162
151
97
10
-95
-204
-302
-379
-427
-441
-421
-370
-293
-199
-100
-6
72
122
140
122
71
-5
-94
-183
-256
-302
-315
-292
-239
-166
-87
-18
31
51
40
1
-56
-121
-178
-216
-223
-197
-137
-48
62
180
294
391
461
497
495
455
383
288
181
77
-11
-71
-95
-82
-34
42
132
221
293
337
342
306
232
127
5
-117
-226
-308
-352
-353
-314
-239
-140
-30
77
169
235
268
265
226
157
66
-36
-137
-225
-290
-324
-321
-280
-204
-102
16
134
237
309
336
312
236
115
-37
-202
-357
-479
-552
-562
-510
-403
-257
-95
58
179
254
273
237
157
48
-69
-177
-259
-305
-311
-279
-214
-128
-32
62
144
205
237
235
195
118
6
-132
-283
-433
-565
-662
-712
-708
-648
-541
-403
-253
-112
2
75
104
90
45
-15
-72
-110
-116
-86
-22
66
165
257
327
363
358
311
230
123
5
-109
-206
-276
-310
-309
-274
-212
-133
-48
31
94
134
145
125
79
11
-69
-149
-219
-269
-290
-280
-239
-174
-95
-14
58
107
126
110
60
-18
-114
-216
-309
-381
-422
-427
-394
-327
-233
-123
-10
92
171
216
219
178
96
-20
-157
-298
-426
-523
-575
-575
-520
-419
-285
-137
4
119
192
216
190
119
15
-103
-220
-319
-387
-419
-413
-371
-303
-218
-130
-50
12
46
49
19
-39
-117
-204
-288
-355
-394
-398
-363
-293
-198
-91
10
89
132
130
81
-11
-132
-264
-390
-490
-550
-560
-518
-429
-306
-167
-30
87
168
202
186
123
23
-99
-227
-342
-428
-474
-475
-433
-356
-257
-151
-54
20
62
68
40
-17
-91
-171
-247
-307
-348
-367
-366
-347
-316
-278
-238
-201
-170
-147
-134
-133
-142
-162
-189
-220
-248
-267
-270
-252
-210
-145
-64
24
107
170
201
190
136
42
-82
-219
-350
-457
-522
-536
-494
-404
-278
-135
4
116
184
199
159
72
-48
-181
-306
-403
-458
-464
-422
-345
-245
-142
-54
3
22
0
-55
-133
-220
-300
-362
-397
-404
-384
-343
-290
-232
-178
-133
-99
-77
-66
-66
-76
-96
-125
-162
-205
-249
-290
-324
-342
-341
-319
-278
-221
-158
-99
-53
-28
-29
-57
-107
-169
-232
-284
-313
-313
-279
-216
-132
-41
43
104
132
119
64
-26
-141
-265
-379
-467
-516
-517
-470
-380
-256
-114
30
159
260
323
344
322
265
180
81
-19
-104
-163
-186
-170
-115
-27
82
198
307
393
446
459
434
375
293
202
115
45
1
-11
8
54
116
185
251
307
345
362
357
333
293
241
184
129
82
49
34
37
59
94
137
179
212
229
223
192
139
67
-15
-97
-169
-222
-250
-251
-225
-178
-118
-53
6
52
77
78
52
2
-64
-140
-214
-279
-325
-345
-335
-296
-234
-158
-79
-11
35
50
29
-27
-112
-215
-324
-421
-494
-531
-526
-479
-396
-285
-163
-45
50
110
124
92
17
-90
-213
-333
-432
-496
-514
-484
-410
-303
-181
-62
35
96
112
83
15
-80
-184
-279
-345
-366
-332
-237
-80
133
394
693
1015
1349
1685
2015
2336
2646
2951
3256
3570
3905
4267
4661
5090
5545
6017
6485
6923
7301
7589
7759
7787
7661
7377
6947
6393
5752
5065
4375
3726
3150
2671
2294
2012
1803
1636
1480
1304
1088
824
519
192
-126
-404
-611
-726
-739
-656
-494
-280
-46
175
356
477
528
510
431
308
159
4
-138
-253
-326
-353
-331
-267
-172
-62
43
123
159
140
62
-71
-244
-434
-616
-762
-851
-866
-806
-678
-501
-300
-105
57
165
205
173
76
-70
-245
-425
-587
-710
-781
-792
-743
-643
-503
-343
-182
-43
59
111
107
49
-54
-186
-330
-465
-572
-638
-655
-622
-545
-436
-311
-187
-81
-5
29
19
-34
-126
-244
-377
-506
-616
-694
-729
-715
-654
-551
-422
-282
-150
-44
23
42
13
-59
-159
-271
-375
-454
-496
-496
-453
-377
-281
-182
-96
-38
-18
-38
-94
-175
-268
-355
-423
-460
-460
-423
-355
-270
-182
-108
-58
-43
-66
-122
-205
-302
-397
-477
-528
-542
-518
-456
-363
-250
-129
-14
85
156
194
194
157
89
-3
-106
-209
-299
-364
-395
-389
-345
-269
-171
-65
34
112
157
163
127
53
-47
-161
-271
-363
-423
-441
-414
-345
-241
-113
26
157
267
342
376
364
310
223
115
2
-97
-168
-198
-182
-120
-25
90
201
286
324
302
215
69
-118
-322
-513
-660
-737
-730
-635
-460
-228
34
294
520
687
780
794
736
620
468
303
150
28
-50
-78
-58
3
93
196
297
383
440
462
447
396
317
219
115
16
-64
-118
-140
-126
-77
0
98
204
309
401
469
506
508
477
414
330
236
147
78
41
45
93
181
297
426
549
648
707
719
682
602
494
375
263
174
119
103
121
166
224
281
325
346
342
314
270
216
163
118
87
72
76
97
133
182
242
310
380
448
507
546
558
536
477
381
256
115
-27
-148
-233
-269
-248
-175
-60
76
212
325
395
410
366
269
135
-14
-156
-269
-337
-351
-313
-234
-129
-18
79
147
175
162
113
42
-38
-110
-159
-177
-161
-114
-45
35
111
173
212
224
209
170
113
46
-24
-89
-143
-181
-199
-195
-169
-121
-55
24
108
188
252
293
302
273
208
110
-11
-140
-262
-362
-428
-452
-430
-366
-268
-149
-26
86
171
221
228
194
127
38
-56
-139
-196
-216
-195
-133
-39
72
181
271
325
330
284
191
61
-88
-236
-363
-452
-490
-473
-403
-291
-152
-5
131
239
307
328
303
238
146
41
-61
-144
-198
-217
-201
-155
-91
-23
35
70
71
34
-38
-139
-255
-373
-475
-547
-579
-564
-499
-389
-246
-83
84
236
359
442
476
461
400
304
185
61
-53
-144
-201
-218
-196
-141
-62
27
111
175
208
203
157
74
-35
-157
-274
-370
-429
-444
-410
-334
-229
-111
-2
80
119
108
48
-53
-177
-305
-416
-491
-520
-499
-431
-327
-202
-72
48
144
206
229
214
164
86
-13
-123
-231
-327
-401
-442
-446
-410
-334
-227
-99
36
159
256
310
314
263
162
20
-147
-319
-475
-596
-665
-674
-622
-515
-365
-193
-20
131
240
296
294
237
138
16
-107
-209
-273
-288
-251
-172
-64
52
156
227
252
226
151
39
-96
-233
-353
-441
-487
-489
-449
-378
-289
-197
-115
-54
-20
-16
-41
-86
-145
-207
-262
-299
-311
-294
-249
-176
-84
18
119
204
261
280
257
192
91
-33
-165
-288
-386
-447
-465
-438
-373
-280
-172
-64
30
102
144
154
134
86
16
-69
-163
-257
-342
-410
-454
-469
-451
-403
-331
-244
-155
-79
-27
-8
-25
-71
-137
-207
-267
-300
-296
-253
-173
-68
48
156
242
292
299
264
192
95
-12
-115
-202
-263
-292
-287
-252
-193
-121
-46
23
76
106
109
84
35
-32
-107
-180
-240
-277
-286
-266
-219
-153
-77
-2
60
100
115
102
65
11
-48
-102
-137
-147
-125
-69
15
121
235
344
433
489
504
475
405
303
185
66
-34
-101
-123
-96
-24
83
210
337
445
518
547
528
467
376
272
173
98
58
63
112
196
302
412
510
581
612
597
538
442
320
185
53
-65
-157
-216
-241
-230
-185
-113
-21
81
180
262
314
322
278
178
26
-164
-372
-573
-737
-841
-866
-806
-664
-460
-222
17
224
371
442
432
349
214
52
-109
-246
-339
-380
-370
-317
-233
-135
-40
39
93
114
101
57
-14
-105
-204
-300
-382
-438
-458
-438
-375
-277
-156
-29
87
174
219
214
163
75
-31
-133
-209
-239
-208
-110
50
264
515
787
1062
1330
1586
1830
2070
2321
2597
2911
3272
3687
4154
4665
5207
5760
6300
6803
7245
7601
7851
7977
7968
7821
7538
7131
6621
6035
5404
4761
4140
3565
3054
2617
2249
1940
1671
1421
1172
910
632
342
57
-204
-417
-563
-626
-600
-491
-315
-97
135
352
526
641
686
661
575
444
290
133
-7
-115
-180
-201
-180
-127
-56
18
79
114
112
68
-16
-135
-275
-421
-555
-660
-721
-731
-685
-590
-456
-299
-136
10
121
185
196
153
67
-49
-179
-304
-410
-484
-519
-515
-478
-415
-337
-255
-179
-118
-75
-56
-62
-94
-152
-236
-340
-458
-581
-697
-793
-855
-874
-843
-763
-643
-498
-349
-214
-111
-53
-43
-74
-133
-202
-262
-295
-292
-251
-179
-88
5
79
122
125
85
9
-90
-199
-300
-379
-425
-435
-408
-353
-277
-196
-122
-66
-38
-42
-78
-143
-230
-327
-421
-499
-548
-562
-535
-471
-375
-259
-135
-22
68
121
135
106
41
-50
-154
-256
-340
-397
-419
-404
-356
-281
-190
-96
-9
58
98
104
75
11
-84
-202
-335
-470
-594
-696
-762
-785
-760
-686
-571
-426
-266
-109
30
136
202
225
213
176
130
89
68
75
111
172
247
322
381
410
401
352
267
157
37
-76
-167
-225
-244
-223
-168
-90
-3
78
143
184
193
172
124
55
-24
-103
-171
-218
-238
-228
-187
-123
-41
47
131
199
245
262
250
212
153
82
10
-55
-107
-140
-152
-145
-121
-87
-49
-12
18
35
36
18
-18
-71
-132
-194
-249
-285
-293
-266
-204
-108
14
149
282
397
481
523
519
470
383
270
144
20
-89
-170
-219
-230
-206
-151
-75
14
104
185
248
289
305
300
279
251
227
218
231
270
334
416
507
594
661
698
696
654
574
467
347
228
126
53
17
19
55
116
191
264
321
353
352
316
248
158
58
-38
-117
-167
-180
-155
-93
-2
106
215
311
380
413
405
359
280
181
75
-24
-103
-152
-163
-138
-79
3
99
194
275
331
354
337
283
196
85
-36
-154
-253
-323
-356
-348
-302
-227
-134
-39
42
99
122
109
63
-7
-92
-177
-248
-293
-306
-281
-220
-130
-20
97
204
289
337
338
289
191
54
-108
-276
-426
-540
-600
-595
-526
-400
-235
-52
122
265
360
397
376
305
200
80
-36
-131
-195
-222
-213
-172
-106
-27
57
134
196
234
240
209
135
19
-133
-310
-493
-661
-788
-855
-844
-751
-581
-352
-94
159
373
518
576
545
435
270
84
-89
-220
-285
-276
-200
-74
75
216
322
371
356
277
147
-11
-175
-319
-424
-477
-473
-418
-322
-200
-70
52
152
219
248
235
182
95
-16
-141
-264
-370
-446
-481
-468
-409
-309
-182
-46
78
171
217
208
145
38
-95
-233
-352
-435
-468
-447
-376
-267
-139
-10
101
180
221
220
181
113
25
-72
-167
-251
-319
-363
-383
-376
-345
-296
-234
-168
-108
-65
-47
-58
-97
-159
-233
-306
-364
-395
-391
-350
-276
-181
-79
13
80
110
98
45
-43
-153
-272
-384
-475
-536
-560
-545
-496
-419
-324
-223
-128
-49
5
28
20
-18
-81
-160
-243
-315
-363
-376
-351
-290
-198
-90
16
102
152
155
110
24
-89
-209
-314
-386
-413
-392
-331
-247
-161
-94
-65
-86
-158
-271
-411
-553
-676
-761
-797
-778
-708
-598
-461
-314
-170
-41
68
152
210
241
245
224
177
106
17
-84
-185
-274
-340
-373
-368
-325
-253
-163
-71
6
56
71
49
-8
-87
-175
-257
-321
-359
-369
-352
-313
-263
-210
-165
-134
-122
-132
-162
-211
-274
-347
-422
-492
-549
-584
-591
-566
-507
-416
-301
-175
-52
53
125
157
143
87
-3
-113
-225
-325
-399
-439
-444
-416
-364
-300
-236
-183
-149
-141
-158
-199
-257
-327
-398
-461
-508
-530
-523
-486
-419
-330
-227
-122
-28
43
82
86
56
-4
-83
-169
-248
-310
-346
-353
-331
-284
-222
-152
-83
-23
23
54
68
67
57
42
26
15
12
21
43
76
120
170
222
269
305
326
328
310
275
227
171
116
68
35
22
33
67
121
191
269
344
406
445
452
424
362
271
162
49
-52
-124
-155
-140
-78
22
143
266
369
433
445
399
301
163
3
-155
-292
-388
-434
-425
-369
-276
-163
-49
50
119
147
128
63
-42
-178
-331
-486
-626
-734
-797
-804
-751
-644
-495
-323
-152
-5
94
132
101
7
-132
-293
-447
-568
-636
-641
-583
-477
-342
-205
-91
-18
4
-25
-95
-189
-287
-371
-428
-450
-439
-403
-352
-298
-253
-221
-206
-204
-210
-218
-225
-224
-215
-196
-170
-135
-90
-30
50
159
302
487
719
997
1318
1676
2062
2467
2882
3300
3715
4124
4529
4931
5333
5735
6135
6525
6891
7215
7473
7641
7693
7613
7392
7034
6554
5980
5347
4696
4064
3486
2983
2567
2233
1969
1754
1565
1381
1188
977
747
507
269
48
-141
-287
-380
-419
-406
-347
-253
-135
-8
113
216
288
322
314
265
181
74
-41
-150
-238
-296
-317
-306
-269
-219
-170
-137
-131
-157
-215
-300
-400
-504
-596
-666
-707
-715
-693
-645
-580
-507
-435
-372
-323
-293
-281
-289
-313
-350
-395
-442
-484
-515
-529
-522
-492
-442
-375
-301
-229
-171
-137
-133
-162
-222
-308
-409
-514
-608
-681
-725
-735
-714
-665
-598
-522
-449
-387
-344
-325
-331
-359
-405
-461
-518
-569
-606
-624
-619
-591
-543
-484
-421
-364
-320
-295
-294
-315
-356
-407
-462
-508
-537
-542
-518
-466
-390
-298
-203
-118
-57
-33
-56
-129
-249
-407
-584
-761
-913
-1019
-1060
-1029
-924
-759
-553
-334
-132
26
119
137
80
-38
-195
-363
-515
-627
-683
-678
-615
-507
-374
-237
-116
-27
20
20
-23
-101
-204
-319
-434
-538
-620
-672
-690
-672
-620
-537
-431
-315
-201
-103
-35
-2
-7
-48
-113
-190
-265
-323
-353
-350
-314
-254
-180
-105
-42
-1
12
-5
-46
-104
-171
-239
-299
-346
-380
-400
-407
-405
-397
-384
-370
-356
-345
-337
-334
-335
-340
-347
-352
-351
-337
-308
-262
-198
-121
-39
39
102
139
144
113
44
-55
-174
-300
-417
-508
-559
-563
-516
-423
-299
-161
-33
60
97
64
-42
-216
-438
-680
-908
-1089
-1194
-1203
-1112
-931
-683
-400
-118
125
303
396
401
327
194
30
-138
-281
-380
-423
-408
-344
-244
-126
-9
92
165
205
210
185
139
79
16
-43
-93
-132
-160
-178
-189
-195
-199
-201
-200
-197
-191
-180
-166
-148
-127
-103
-77
-46
-11
32
83
143
209
276
339
389
419
421
392
332
246
142
33
-69
-151
-205
-224
-209
-164
-99
-24
50
110
148
160
142
96
23
-69
-174
-285
-394
-491
-569
-621
-641
-627
-580
-502
-404
-295
-187
-92
-20
26
43
37
16
-10
-30
-35
-22
11
56
105
146
168
163
128
62
-26
-127
-227
-312
-370
-393
-378
-327
-247
-149
-46
48
117
153
148
103
22
-85
-202
-314
-404
-458
-467
-429
-349
-237
-110
13
112
173
187
150
68
-47
-176
-301
-402
-466
-484
-454
-382
-279
-163
-50
46
113
145
140
104
44
-28
-103
-172
-230
-273
-302
-319
-328
-332
-333
-332
-329
-324
-314
-301
-284
-265
-247
-230
-215
-201
-186
-167
-139
-101
-51
9
73
133
181
207
204
169
105
18
-84
-187
-275
-336
-359
-342
-285
-197
-90
20
117
185
212
194
131
31
-92
-220
-334
-417
-454
-439
-373
-265
-133
1
114
183
192
134
11
-165
-372
-584
-770
-905
-968
-950
-851
-684
-468
-233
-5
187
323
391
390
325
212
72
-75
-208
-311
-372
-388
-358
-292
-201
-99
-2
77
124
134
103
33
-67
-185
-304
-406
-477
-506
-489
-426
-328
-212
-99
-7
44
43
-15
-125
-271
-434
-592
-724
-812
-845
-820
-742
-620
-471
-310
-155
-19
87
157
187
177
131
54
-47
-161
-277
-386
-474
-534
-558
-545
-497
-423
-335
-246
-170
-118
-96
-106
-142
-194
-249
-294
-316
-308
-271
-206
-125
-40
34
84
102
85
37
-37
-128
-223
-313
-387
-439
-464
-460
-427
-367
-283
-182
-72
32
118
169
169
110
-14
-196
-420
-658
-880
-1051
-1143
-1137
-1028
-826
-559
-263
20
250
399
450
405
281
109
-78
-243
-359
-408
-387
-307
-189
-57
61
144
177
157
90
-10
-127
-241
-335
-396
-419
-402
-352
-277
-190
-106
-35
11
25
3
-57
-152
-273
-407
-543
-663
-752
-798
-790
-726
-610
-452
-270
-83
84
211
283
291
238
135
0
-144
-274
-368
-413
-405
-348
-255
-144
-36
51
101
107
68
-10
-114
-231
-344
-438
-502
-530
-518
-468
-382
-268
-136
2
134
247
332
377
379
338
261
162
57
-34
-93
-106
-67
21
145
282
409
497
526
483
368
193
-19
-236
-424
-553
-600
-556
-424
-221
27
287
526
718
840
885
852
753
607
434
258
99
-28
-110
-145
-134
-84
-6
85
175
247
289
292
252
171
56
-78
-214
-337
-430
-479
-480
-436
-357
-260
-164
-88
-48
-54
-109
-207
-334
-472
-599
-697
-750
-749
-693
-589
-449
-292
-136
0
102
160
169
133
58
-45
-162
-277
-378
-453
-495
-499
-466
-401
-312
-209
-106
-15
52
85
81
39
-37
-138
-252
-363
-459
-526
-558
-547
-497
-411
-300
-175
-49
69
170
255
326
396
481
600
775
1023
1359
1788
2305
2896
3538
4203
4857
5468
6012
6467
6824
7082
7245
7322
7325
7263
7143
6971
6747
6472
6145
5770
5354
4909
4445
3976
3514
3066
2641
2239
1862
1510
1184
888
629
413
250
145
97
101
144
208
274
320
331
300
226
121
0
-116
-208
-257
-257
-209
-122
-14
96
187
241
246
200
108
-17
-160
-300
-420
-506
-549
-546
-500
-420
-319
-215
-124
-61
-41
-71
-153
-283
-448
-631
-809
-958
-1057
-1090
-1051
-941
-772
-567
-352
-155
-3
87
106
55
-51
-192
-342
-476
-574
-622
-618
-566
-481
-379
-280
-201
-152
-138
-158
-205
-268
-338
-407
-468
-522
-568
-612
-655
-700
-743
-778
-799
-799
-772
-717
-636
-539
-436
-340
-264
-215
-194
-198
-215
-235
-247
-242
-216
-171
-115
-57
-13
6
-9
-57
-136
-235
-339
-432
-499
-527
-511
-450
-351
-227
-97
21
105
140
114
27
-116
-300
-504
-704
-873
-988
-1033
-1003
-901
-741
-546
-340
-151
1
100
140
125
65
-23
-119
-204
-264
-290
-277
-229
-155
-68
18
86
125
125
83
-1
-117
-255
-395
-521
-614
-660
-652
-588
-474
-324
-159
-1
127
207
231
197
113
-6
-138
-261
-356
-407
-406
-355
-262
-140
-10
111
207
265
282
256
195
107
5
-99
-193
-268
-315
-333
-319
-278
-216
-139
-58
19
80
118
124
97
37
-50
-154
-264
-365
-444
-490
-495
-456
-380
-275
-156
-39
57
119
138
113
48
-45
-151
-251
-330
-373
-375
-338
-268
-180
-88
-9
45
65
48
0
-70
-149
-225
-286
-322
-328
-305
-254
-186
-107
-30
39
89
116
117
93
47
-12
-76
-134
-176
-195
-184
-143
-76
10
105
196
271
319
336
319
272
203
122
41
-29
-78
-99
-88
-48
16
95
181
259
320
355
357
325
263
178
83
-10
-85
-132
-143
-118
-61
20
111
199
272
321
340
330
292
234
162
86
14
-50
-99
-129
-140
-130
-101
-56
-2
54
103
135
145
126
80
11
-73
-156
-226
-269
-277
-246
-179
-84
25
132
221
279
296
271
206
110
-3
-119
-222
-301
-347
-357
-331
-277
-204
-124
-49
10
45
53
33
-8
-61
-118
-166
-198
-208
-194
-159
-108
-46
16
72
114
135
133
106
57
-13
-97
-189
-279
-357
-414
-442
-433
-387
-305
-196
-74
48
151
221
246
222
153
50
-73
-195
-297
-360
-375
-338
-253
-133
3
133
236
295
300
249
148
12
-139
-281
-393
-456
-462
-407
-301
-158
0
151
272
349
370
336
253
136
1
-132
-247
-331
-377
-384
-356
-302
-232
-158
-91
-39
-7
4
-9
-42
-90
-149
-211
-267
-306
-322
-308
-264
-192
-99
3
100
177
223
230
195
121
20
-95
-207
-300
-361
-381
-359
-300
-215
-118
-24
49
88
83
31
-63
-191
-337
-486
-617
-715
-763
-754
-687
-566
-404
-218
-27
146
283
370
398
365
275
142
-18
-183
-333
-451
-520
-534
-492
-401
-276
-135
0
109
176
192
156
74
-39
-162
-276
-364
-411
-412
-367
-286
-182
-74
23
94
128
121
76
-1
-99
-205
-307
-392
-452
-480
-476
-441
-380
-304
-224
-152
-99
-71
-73
-106
-165
-240
-320
-391
-442
-467
-459
-420
-355
-272
-184
-101
-37
0
3
-32
-102
-201
-319
-444
-562
-658
-719
-736
-707
-632
-520
-383
-236
-100
11
85
115
101
49
-28
-117
-203
-272
-314
-325
-307
-265
-211
-155
-109
-82
-80
-105
-156
-227
-311
-397
-477
-542
-584
-598
-582
-537
-469
-384
-292
-203
-128
-77
-56
-69
-110
-174
-252
-329
-393
-433
-442
-418
-366
-293
-211
-132
-69
-32
-26
-51
-103
-174
-254
-333
-402
-453
-486
-499
-496
-482
-465
-450
-443
-446
-461
-488
-522
-560
-596
-622
-633
-622
-589
-532
-454
-362
-263
-167
-84
-25
4
0
-37
-103
-190
-286
-382
-465
-525
-556
-554
-520
-456
-372
-277
-183
-105
-54
-42
-72
-149
-268
-418
-582
-739
-866
-945
-958
-899
-769
-581
-354
-117
102
280
396
442
419
341
227
103
-9
-89
-124
-112
-59
21
113
197
258
285
273
225
146
48
-57
-158
-244
-308
-344
-351
-328
-280
-210
-129
-44
35
98
136
141
111
47
-45
-153
-264
-363
-437
-478
-480
-445
-382
-305
-230
-173
-148
-163
-219
-311
-425
-545
-654
-736
-779
-777
-735
-659
-567
-475
-399
-355
-348
-383
-452
-543
-642
-731
-796
-827
-816
-765
-681
-574
-459
-350
-260
-200
-175
-188
-234
-307
-399
-498
-594
-677
-740
-778
-786
-767
-724
-663
-594
-527
-473
-439
-434
-459
-513
-589
-675
-757
-820
-851
-837
-770
-652
-485
-282
-57
173
394
595
771
923
1061
1199
1356
1553
1808
2136
2543
3027
3578
4175
4791
5397
5959
6447
6834
7102
7240
7246
7128
6902
6589
6213
5802
5377
4958
4559
4185
3835
3501
3175
2846
2503
2141
1762
1369
975
596
248
-52
-291
-463
-563
-599
-580
-522
-442
-360
-290
-244
-230
-249
-296
-362
-434
-498
-543
-560
-545
-498
-426
-340
-254
-183
-141
-137
-178
-263
-382
-523
-669
-801
-902
-957
-958
-904
-802
-667
-521
-387
-291
-253
-287
-396
-572
-795
-1039
-1271
-1458
-1572
-1597
-1525
-1366
-1142
-881
-619
-389
-218
-124
-112
-174
-294
-447
-608
-753
-862
-925
-938
-905
-836
-743
-641
-543
-459
-398
-366
-366
-399
-462
-552
-664
-788
-916
-1035
-1131
-1196
-1219
-1200
-1138
-1042
-923
-797
-680
-587
-528
-507
-522
-566
-624
-681
-723
-739
-723
-676
-605
-522
-442
-380
-349
-357
-405
-490
-600
-720
-836
-932
-994
-1016
-995
-937
-849
-744
-636
-541
-470
-431
-425
-450
-498
-561
-625
-679
-715
-726
-711
-670
-609
-537
-462
-394
-341
-311
-308
-336
-394
-482
-593
-720
-850
-970
-1067
-1126
-1138
-1098
-1006
-871
-708
-538
-381
-258
-184
-169
-212
-302
-419
-542
-647
-712
-726
-683
-590
-462
-321
-189
-89
-38
-44
-106
-214
-352
-498
-630
-730
-784
-788
-744
-660
-552
-438
-334
-254
-210
-205
-239
-303
-387
-479
-563
-627
-661
-662
-629
-565
-480
-383
-287
-203
-143
-114
-120
-159
-228
-318
-419
-518
-606
-672
-710
-719
-698
-653
-595
-531
-472
-428
-404
-401
-419
-451
-489
-523
-544
-546
-523
-476
-407
-324
-236
-154
-88
-46
-32
-47
-90
-154
-229
-306
-374
-424
-449
-449
-423
-378
-323
-266
-219
-191
-187
-209
-256
-321
-395
-465
-519
-547
-541
-499
-422
-317
-196
-71
44
137
201
230
224
188
128
53
-28
-105
-173
-227
-265
-288
-295
-290
-275
-252
-224
-194
-167
-146
-137
-141
-162
-197
-243
-293
-340
-375
-390
-381
-346
-288
-216
-140
-73
-27
-10
-28
-81
-163
-265
-375
-477
-562
-619
-642
-630
-589
-526
-452
-378
-318
-282
-275
-300
-355
-432
-520
-605
-672
-707
-702
-656
-572
-461
-339
-224
-133
-79
-69
-100
-164
-246
-330
-403
-451
-472
-468
-447
-424
-410
-416
-449
-505
-580
-660
-730
-779
-798
-784
-739
-672
-591
-506
-425
-353
-290
-238
-193
-154
-122
-98
-89
-99
-132
-189
-267
-359
-455
-543
-611
-651
-661
-642
-601
-548
-495
-450
-422
-414
-425
-451
-484
-518
-543
-553
-546
-519
-474
-416
-348
-277
-211
-157
-123
-115
-135
-182
-254
-343
-438
-528
-602
-648
-659
-632
-570
-479
-372
-264
-170
-105
-81
-104
-174
-283
-420
-566
-701
-806
-865
-869
-818
-719
-585
-436
-293
-176
-102
-79
-106
-176
-276
-387
-492
-576
-628
-645
-627
-582
-520
-454
-394
-353
-337
-350
-392
-460
-547
-642
-733
-807
-852
-858
-820
-738
-620
-477
-329
-194
-91
-35
-32
-83
-181
-309
-450
-583
-689
-754
-772
-745
-679
-587
-485
-386
-304
-249
-227
-239
-281
-348
-430
-519
-602
-670
-713
-725
-701
-644
-557
-450
-338
-238
-165
-135
-156
-231
-354
-512
-685
-847
-977
-1052
-1062
-1003
-880
-710
-515
-321
-153
-33
25
17
-52
-169
-314
-465
-598
-697
-747
-744
-691
-598
-481
-363
-262
-196
-179
-216
-303
-429
-577
-727
-855
-944
-979
-956
-878
-755
-603
-442
-295
-177
-101
-72
-89
-145
-230
-330
-430
-519
-586
-624
-630
-604
-551
-477
-394
-314
-250
-214
-214
-257
-342
-462
-606
-755
-893
-1000
-1061
-1066
-1011
-903
-752
-578
-402
-244
-123
-52
-33
-65
-138
-238
-347
-448
-527
-573
-583
-558
-505
-434
-357
-287
-233
-203
-201
-227
-280
-354
-441
-533
-620
-696
-751
-779
-778
-748
-690
-613
-526
-441
-369
-319
-298
-308
-345
-402
-465
-520
-555
-561
-535
-476
-394
-300
-208
-135
-92
-85
-117
-181
-267
-362
-454
-530
-582
-607
-604
-579
-541
-497
-458
-427
-409
-402
-405
-413
-421
-424
-418
-398
-363
-312
-246
-168
-81
10
97
175
235
269
273
242
180
92
-12
-117
-208
-272
-298
-282
-225
-136
-29
80
173
236
258
236
173
78
-35
-150
-252
-329
-374
-384
-359
-307
-239
-166
-101
-55
-38
-54
-106
-190
-300
-424
-550
-662
-746
-791
-791
-744
-656
-538
-405
-273
-161
-82
-47
-60
-117
-210
-326
-449
-564
-657
-719
-742
-729
-683
-613
-531
-449
-380
-334
-319
-336
-383
-452
-532
-609
-668
-699
-695
-654
-582
-491
-397
-316
-265
-256
-290
-367
-476
-601
-725
-830
-899
-924
-900
-832
-729
-602
-468
-340
-228
-140
-78
-39
-17
0
22
61
129
236
388
589
838
1134
1472
1842
2238
2651
3072
3493
3909
4315
4708
5086
5447
5790
6113
6408
6669
6884
7040
7121
7112
6997
6768
6421
5961
5401
4766
4084
3390
2720
2104
1567
1124
778
526
351
235
156
94
33
-38
-123
-224
-334
-445
-548
-632
-691
-718
-711
-669
-595
-498
-387
-274
-172
-95
-53
-52
-93
-173
-281
-406
-531
-641
-724
-769
-774
-740
-674
-587
-492
-403
-331
-285
-270
-287
-331
-396
-471
-547
-613
-660
-681
-675
-644
-593
-531
-468
-416
-385
-382
-411
-471
-557
-657
-761
-852
-919
-951
-941
-889
-801
-685
-555
-430
-324
-254
-229
-255
-327
-438
-572
-712
-837
-930
-974
-961
-893
-777
-630
-472
-327
-216
-155
-152
-207
-307
-436
-570
-686
-765
-795
-773
-706
-610
-505
-416
-361
-356
-405
-503
-635
-781
-918
-1022
-1076
-1069
-1002
-881
-721
-541
-363
-207
-90
-22
-7
-42
-119
-226
-347
-467
-571
-649
-694
-703
-680
-631
-564
-493
-428
-379
-351
-349
-371
-411
-463
-517
-563
-593
-601
-583
-539
-473
-392
-302
-215
-137
-75
-35
-19
-27
-57
-106
-167
-236
-304
-367
-418
-453
-470
-467
-444
-405
-354
-297
-241
-196
-167
-161
-180
-223
-285
-358
-430
-486
-513
-503
-453
-365
-248
-116
14
121
189
209
178
101
-7
-128
-241
-327
-372
-369
-321
-241
-144
-54
12
36
12
-60
-171
-305
-441
-558
-637
-666
-638
-555
-425
-263
-87
86
236
351
421
440
411
340
240
123
4
-101
-181
-227
-235
-205
-145
-65
21
100
155
177
157
95
-4
-132
-273
-409
-520
-590
-607
-566
-466
-315
-129
70
260
418
524
569
550
475
357
219
85
-23
-88
-99
-55
34
154
284
402
490
535
529
474
378
254
118
-12
-122
-200
-242
-246
-215
-157
-81
1
79
145
192
216
218
199
164
118
67
19
-24
-57
-81
-97
-108
-117
-128
-144
-168
-199
-237
-279
-320
-355
-381
-391
-381
-350
-296
-222
-134
-41
48
122
172
191
175
125
48
-48
-149
-245
-324
-380
-411
-419
-412
-396
-381
-374
-378
-393
-417
-443
-467
-483
-487
-477
-453
-420
-377
-326
-268
-205
-136
-65
6
68
115
137
129
86
11
-90
-204
-314
-404
-461
-474
-443
-374
-281
-182
-96
-40
-27
-59
-133
-240
-362
-481
-579
-642
-662
-636
-569
-470
-352
-227
-111
-15
54
90
93
66
14
-55
-134
-214
-288
-350
-395
-423
-431
-424
-403
-373
-340
-309
-283
-267
-263
-271
-290
-314
-337
-353
-354
-335
-293
-231
-153
-68
11
74
112
117
87
27
-57
-152
-246
-330
-393
-431
-445
-437
-413
-380
-344
-311
-283
-263
-251
-245
-244
-248
-257
-269
-282
-292
-298
-293
-277
-246
-205
-157
-110
-75
-62
-79
-131
-218
-330
-455
-577
-677
-738
-749
-707
-615
-485
-335
-185
-56
36
78
69
14
-75
-184
-293
-388
-457
-494
-496
-469
-419
-357
-292
-234
-190
-166
-165
-186
-227
-286
-357
-433
-505
-565
-605
-617
-598
-547
-467
-369
-262
-161
-78
-24
-6
-28
-83
-162
-250
-330
-388
-415
-404
-357
-283
-194
-106
-35
6
9
-24
-86
-167
-253
-330
-388
-421
-432
-426
-414
-405
-409
-431
-469
-520
-573
-619
-650
-658
-642
-607
-560
-506
-452
-401
-353
-308
-260
-208
-151
-91
-36
5
24
13
-32
-106
-201
-304
-400
-474
-516
-523
-499
-453
-401
-358
-338
-350
-398
-477
-575
-675
-761
-816
-828
-793
-712
-591
-443
-284
-131
0
96
149
157
121
47
-55
-171
-290
-397
-481
-535
-552
-533
-480
-400
-303
-203
-113
-45
-10
-14
-57
-136
-241
-356
-466
-553
-606
-615
-580
-506
-403
-287
-176
-85
-25
-4
-20
-68
-139
-220
-300
-370
-422
-455
-470
-469
-458
-440
-422
-404
-388
-377
-371
-372
-380
-395
-416
-437
-456
-465
-458
-431
-380
-307
-217
-119
-24
55
106
123
101
43
-46
-154
-268
-375
-462
-520
-543
-531
-486
-416
-328
-234
-144
-67
-12
17
18
-3
-42
-87
-128
-151
-146
-107
-33
70
189
309
412
480
503
474
397
281
144
5
-115
-200
-240
-234
-188
-114
-28
55
118
154
158
132
87
31
-23
-66
-91
-97
-83
-54
-14
31
76
119
158
189
212
221
213
183
128
45
-63
-190
-327
-462
-580
-668
-716
-720
-682
-609
-514
-414
-323
-257
-223
-224
-257
-312
-375
-433
-471
-479
-454
-395
-311
-213
-116
-36
12
17
-26
-116
-244
-395
-551
-690
-793
-845
-837
-768
-648
-493
-324
-165
-38
41
63
29
-52
-164
-286
-397
-480
-521
-516
-466
-382
-276
-162
-54
38
106
151
175
184
191
209
252
336
473
675
952
1307
1736
2233
2781
3362
3954
4534
5082
5580
6017
6386
6687
6920
7090
7195
7234
7203
7096
6907
6629
6264
5817
5302
4736
4146
3555
2987
2462
1994
1591
1253
978
758
585
451
348
269
207
156
109
61
8
-54
-125
-201
-276
-340
-384
-398
-378
-324
-240
-137
-31
63
129
156
136
69
-38
-170
-313
-448
-557
-628
-651
-628
-567
-479
-383
-296
-235
-209
-222
-271
-344
-427
-503
-559
-588
-590
-570
-543
-523
-524
-556
-620
-710
-812
-908
-979
-1011
-995
-932
-830
-704
-573
-453
-355
-287
-247
-230
-228
-233
-240
-247
-255
-268
-291
-328
-379
-440
-503
-558
-595
-606
-588
-540
-471
-389
-307
-240
-198
-192
-224
-296
-401
-531
-673
-813
-932
-1018
-1058
-1044
-976
-859
-706
-534
-362
-212
-101
-41
-34
-76
-155
-253
-353
-435
-485
-493
-459
-388
-294
-190
-97
-28
1
-16
-80
-187
-324
-475
-621
-742
-822
-849
-821
-739
-616
-469
-318
-185
-85
-33
-35
-84
-170
-276
-382
-470
-524
-535
-502
-430
-330
-217
-108
-16
47
75
66
26
-41
-123
-210
-294
-367
-425
-466
-491
-502
-503
-495
-483
-471
-459
-451
-446
-443
-442
-439
-432
-416
-389
-345
-285
-209
-120
-23
71
156
221
259
264
236
179
98
4
-91
-176
-242
-282
-295
-283
-250
-204
-156
-113
-87
-82
-102
-144
-205
-277
-349
-410
-447
-453
-423
-356
-259
-140
-13
107
205
268
290
268
205
111
-1
-118
-224
-305
-352
-359
-325
-255
-157
-45
66
158
217
232
197
113
-11
-160
-313
-447
-541
-579
-550
-456
-308
-124
70
250
389
471
486
434
326
180
18
-137
-264
-347
-378
-355
-283
-172
-37
105
238
349
426
463
458
414
340
247
151
66
6
-19
-4
52
140
247
354
444
498
503
451
343
189
5
-186
-363
-502
-586
-604
-555
-445
-291
-112
67
223
338
398
400
347
251
128
-2
-118
-205
-250
-250
-207
-129
-30
73
164
230
259
246
192
102
-13
-141
-268
-379
-464
-513
-523
-496
-439
-363
-282
-209
-157
-137
-151
-197
-268
-348
-422
-473
-486
-453
-375
-258
-113
43
193
317
400
433
416
350
245
116
-21
-150
-254
-321
-342
-316
-248
-147
-30
84
173
220
210
137
6
-173
-379
-585
-764
-891
-949
-927
-828
-664
-453
-223
-1
189
326
399
405
351
248
115
-27
-157
-257
-313
-320
-277
-193
-83
34
138
209
230
194
101
-43
-219
-406
-577
-709
-783
-788
-719
-585
-404
-200
0
172
296
358
354
291
181
44
-98
-224
-317
-367
-373
-337
-270
-187
-102
-30
20
41
32
-3
-60
-129
-204
-275
-334
-377
-400
-400
-375
-330
-268
-194
-118
-48
7
38
40
14
-37
-104
-177
-244
-295
-321
-321
-298
-259
-215
-178
-158
-161
-190
-242
-309
-380
-443
-488
-506
-495
-453
-385
-297
-197
-95
-1
79
137
166
164
132
72
-9
-103
-197
-281
-344
-380
-384
-358
-309
-244
-176
-115
-69
-44
-43
-65
-107
-165
-234
-310
-391
-472
-549
-618
-671
-702
-705
-675
-614
-525
-418
-306
-203
-122
-72
-56
-71
-107
-150
-186
-201
-187
-143
-76
3
76
129
148
125
62
-35
-152
-273
-381
-459
-499
-495
-452
-376
-280
-180
-90
-23
14
15
-17
-77
-157
-244
-329
-399
-447
-469
-467
-444
-407
-367
-331
-309
-304
-319
-351
-395
-444
-489
-523
-538
-530
-498
-444
-372
-288
-198
-110
-31
31
70
82
64
17
-54
-144
-240
-329
-397
-432
-427
-376
-286
-167
-39
76
155
179
135
24
-144
-350
-565
-756
-895
-958
-935
-829
-654
-436
-207
-2
153
238
243
172
43
-121
-292
-443
-552
-603
-591
-521
-407
-267
-122
8
109
170
190
172
125
59
-15
-88
-155
-214
-266
-315
-359
-401
-437
-464
-476
-468
-439
-390
-327
-260
-202
-165
-157
-180
-229
-293
-356
-400
-412
-381
-306
-195
-63
70
181
253
274
240
158
46
-77
-184
-256
-276
-237
-145
-14
133
273
376
421
394
295
131
-77
-300
-504
-657
-733
-716
-604
-407
-149
140
422
663
835
923
923
842
698
516
326
153
18
-65
-91
-64
8
109
222
330
418
472
484
450
368
246
93
-78
-250
-405
-530
-609
-634
-603
-522
-403
-264
-123
-1
83
119
104
40
-60
-179
-297
-395
-460
-482
-458
-392
-297
-189
-86
-3
45
52
16
-55
-152
-257
-354
-428
-468
-468
-430
-360
-273
-188
-122
-88
-98
-154
-250
-374
-506
-626
-714
-756
-742
-674
-562
-422
-274
-138
-33
31
49
25
-32
-108
-188
-258
-305
-323
-310
-265
-192
-95
24
162
322
506
717
960
1238
1554
1909
2301
2728
3187
3670
4170
4679
5187
5684
6157
6591
6971
7283
7510
7641
7664
7574
7367
7050
6633
6136
5580
4991
4399
3827
3295
2820
2405
2050
1745
1478
1235
1001
769
535
303
84
-108
-258
-351
-381
-345
-250
-107
64
240
397
515
578
580
519
405
253
83
-84
-227
-329
-381
-381
-334
-254
-161
-77
-22
-12
-57
-156
-297
-466
-639
-790
-900
-950
-934
-855
-724
-559
-384
-222
-93
-13
9
-25
-111
-234
-379
-527
-661
-766
-829
-845
-813
-737
-630
-504
-376
-263
-181
-141
-147
-200
-292
-410
-538
-657
-752
-812
-827
-797
-729
-633
-525
-422
-338
-287
-276
-311
-387
-495
-623
-753
-867
-948
-983
-962
-886
-762
-601
-424
-252
-106
-3
43
30
-37
-145
-277
-411
-527
-606
-639
-623
-562
-469
-362
-259
-177
-129
-124
-160
-231
-326
-429
-525
-602
-649
-665
-651
-616
-568
-519
-478
-453
-447
-461
-490
-529
-572
-611
-641
-658
-659
-644
-610
-560
-495
-418
-333
-246
-164
-97
-51
-32
-44
-90
-164
-257
-358
-450
-521
-556
-549
-497
-404
-281
-146
-20
76
125
113
36
-103
-290
-502
-714
-899
-1032
-1096
-1082
-992
-840
-645
-432
-229
-58
62
124
127
81
-1
-101
-201
-286
-345
-369
-359
-317
-251
-170
-85
-10
45
68
54
-1
-96
-224
-373
-527
-668
-776
-837
-841
-784
-672
-520
-344
-168
-15
96
153
152
99
6
-110
-227
-327
-395
-421
-404
-349
-267
-174
-87
-20
14
7
-41
-126
-239
-366
-492
-603
-684
-726
-725
-683
-604
-501
-389
-285
-202
-151
-138
-163
-220
-297
-378
-447
-489
-495
-459
-384
-278
-154
-28
85
171
221
228
194
124
30
-76
-178
-263
-315
-327
-292
-213
-94
50
203
341
442
487
459
351
169
-74
-351
-631
-878
-1059
-1147
-1127
-1000
-779
-491
-173
137
402
595
698
708
638
506
343
177
35
-62
-105
-92
-32
59
161
254
320
347
328
263
163
38
-94
-215
-310
-366
-377
-342
-266
-162
-45
69
162
220
235
204
132
29
-90
-207
-306
-373
-400
-384
-328
-241
-138
-31
64
133
166
158
109
20
-98
-235
-378
-510
-617
-687
-710
-680
-599
-475
-322
-160
-8
112
184
199
155
63
-61
-195
-313
-393
-421
-392
-310
-192
-57
67
159
202
190
126
22
-103
-227
-330
-397
-420
-401
-347
-271
-189
-114
-56
-21
-10
-19
-40
-68
-95
-118
-133
-139
-137
-128
-115
-95
-71
-41
-6
30
63
87
97
88
55
-3
-81
-173
-268
-353
-415
-445
-437
-390
-311
-211
-106
-12
55
82
63
0
-96
-212
-328
-426
-487
-503
-468
-388
-273
-141
-11
97
168
190
161
86
-25
-155
-287
-402
-486
-528
-522
-471
-381
-265
-138
-15
88
158
186
172
115
26
-85
-203
-313
-401
-455
-468
-438
-369
-270
-154
-37
66
140
175
164
109
14
-108
-241
-368
-473
-540
-561
-532
-459
-354
-232
-111
-10
57
80
56
-11
-111
-226
-339
-431
-488
-501
-468
-393
-290
-175
-64
25
82
100
80
29
-44
-124
-200
-263
-308
-337
-353
-364
-375
-391
-416
-446
-476
-501
-514
-511
-492
-458
-415
-367
-320
-278
-241
-206
-173
-136
-93
-45
5
52
85
96
77
26
-56
-161
-275
-383
-468
-513
-509
-453
-351
-214
-64
76
182
233
216
127
-26
-224
-442
-650
-817
-919
-940
-876
-736
-541
-318
-100
85
214
274
261
187
69
-71
-209
-326
-406
-442
-432
-383
-305
-211
-115
-31
32
64
60
17
-65
-181
-324
-481
-639
-780
-890
-953
-958
-902
-787
-625
-432
-232
-45
107
209
253
240
180
90
-12
-104
-169
-198
-185
-137
-62
21
96
146
158
126
54
-52
-178
-306
-421
-505
-550
-550
-507
-427
-324
-213
-109
-29
14
15
-27
-109
-218
-340
-457
-552
-610
-623
-587
-506
-391
-256
-119
2
93
143
148
108
32
-71
-185
-297
-393
-463
-499
-498
-460
-392
-300
-197
-95
-6
56
84
74
25
-53
-151
-251
-336
-389
-399
-358
-269
-140
11
165
299
395
441
431
369
267
145
23
-76
-135
-145
-104
-20
92
209
310
374
386
341
242
102
-57
-212
-338
-413
-423
-366
-246
-78
118
317
497
636
721
744
708
621
497
351
200
62
-52
-130
-168
-166
-129
-66
10
86
148
184
188
157
93
5
-99
-205
-302
-380
-434
-465
-475
-470
-458
-446
-438
-439
-447
-461
-478
-494
-506
-512
-510
-498
-474
-438
-390
-329
-259
-184
-112
-51
-8
10
0
-37
-97
-170
-248
-318
-371
-402
-410
-396
-368
-333
-299
-275
-263
-267
-286
-318
-361
-411
-465
-519
-568
-604
-620
-608
-559
-470
-338
-167
35
255
478
691
882
1050
1199
1344
1506
1707
1973
2321
2758
3283
3878
4516
5159
5767
6303
6736
7044
7220
7267
7203
7050
6836
6584
6317
6050
5792
5542
5292
5032
4748
4431
4071
3666
3219
2741
2248
1760
1301
893
554
298
130
47
36
76
144
214
263
272
234
150
29
-111
-250
-366
-443
-468
-439
-360
-243
-105
37
163
257
309
313
270
185
70
-64
-202
-329
-432
-502
-533
-525
-481
-410
-327
-246
-181
-146
-150
-195
-279
-392
-521
-649
-758
-834
-865
-847
-783
-680
-550
-409
-276
-165
-90
-58
-73
-132
-229
-353
-489
-622
-740
-829
-880
-887
-850
-771
-661
-531
-399
-283
-199
-163
-183
-260
-386
-546
-718
-876
-996
-1056
-1045
-959
-810
-615
-402
-200
-38
62
89
45
-60
-202
-356
-493
-592
-638
-625
-559
-454
-329
-208
-113
-57
-50
-91
-173
-280
-395
-499
-577
-617
-615
-574
-501
-413
-327
-260
-227
-236
-292
-390
-518
-660
-796
-905
-972
-985
-938
-836
-689
-512
-325
-146
5
115
176
186
149
73
-28
-143
-254
-350
-419
-454
-453
-419
-359
-283
-204
-137
-95
-87
-116
-180
-272
-380
-487
-576
-635
-654
-629
-562
-462
-344
-223
-115
-33
16
28
3
-51
-127
-216
-310
-401
-483
-551
-603
-636
-648
-640
-611
-564
-503
-434
-366
-306
-264
-244
-249
-275
-316
-360
-397
-411
-395
-343
-258
-148
-30
80
164
207
200
142
40
-89
-229
-356
-454
-509
-517
-479
-406
-315
-224
-149
-104
-96
-126
-188
-271
-360
-442
-505
-541
-544
-516
-463
-392
-312
-232
-162
-107
-72
-60
-72
-108
-165
-237
-317
-397
-464
-509
-521
-495
-427
-323
-194
-56
69
160
196
167
69
-88
-286
-495
-684
-820
-877
-842
-714
-507
-248
30
290
500
636
685
649
542
387
214
50
-80
-162
-186
-156
-83
17
125
223
296
334
333
294
225
136
36
-63
-150
-219
-270
-302
-317
-319
-313
-303
-290
-276
-261
-243
-223
-199
-174
-149
-126
-106
-90
-75
-59
-38
-9
31
79
130
178
213
227
213
168
95
3
-96
-185
-248
-276
-262
-209
-126
-27
69
145
186
184
141
65
-29
-125
-208
-265
-289
-283
-255
-220
-191
-181
-196
-238
-301
-373
-442
-494
-519
-514
-478
-419
-345
-264
-185
-112
-47
12
67
120
171
214
244
252
233
182
101
-3
-115
-222
-308
-358
-364
-326
-249
-147
-35
69
148
190
187
140
57
-51
-167
-275
-360
-410
-416
-378
-301
-195
-79
27
105
137
114
32
-100
-268
-450
-621
-755
-833
-842
-777
-645
-462
-249
-34
159
306
392
411
363
259
115
-46
-202
-333
-423
-459
-441
-370
-260
-126
11
135
227
276
277
230
141
23
-108
-239
-353
-439
-489
-500
-474
-414
-331
-235
-140
-55
8
44
48
22
-30
-97
-167
-229
-270
-284
-266
-218
-146
-62
22
92
137
150
130
78
1
-89
-183
-270
-341
-392
-420
-426
-413
-386
-350
-312
-275
-245
-225
-218
-222
-237
-259
-285
-308
-322
-322
-301
-259
-198
-124
-43
32
89
116
106
56
-30
-143
-266
-381
-468
-513
-507
-453
-361
-252
-150
-81
-67
-121
-243
-421
-630
-839
-1013
-1121
-1142
-1066
-900
-662
-382
-96
162
364
489
532
498
401
262
105
-48
-179
-275
-332
-350
-332
-288
-225
-154
-82
-16
38
74
89
80
45
-14
-94
-191
-294
-392
-472
-525
-544
-525
-468
-380
-275
-168
-77
-19
-5
-40
-122
-237
-368
-492
-587
-633
-618
-542
-411
-245
-67
94
215
277
271
201
78
-77
-238
-381
-487
-543
-546
-503
-429
-342
-261
-204
-181
-196
-247
-322
-407
-489
-553
-589
-591
-558
-495
-409
-309
-204
-105
-20
45
86
101
91
57
5
-60
-129
-195
-249
-286
-303
-299
-277
-242
-204
-169
-144
-136
-146
-173
-212
-258
-304
-343
-371
-385
-384
-368
-339
-299
-252
-200
-149
-100
-59
-27
-12
-14
-35
-72
-124
-182
-236
-276
-293
-281
-237
-168
-84
1
70
110
110
64
-23
-141
-270
-390
-481
-527
-517
-452
-340
-196
-42
101
213
279
294
259
184
85
-19
-110
-171
-191
-165
-96
9
137
273
400
503
571
597
578
520
429
319
202
94
7
-51
-75
-63
-23
36
102
164
208
228
217
176
111
31
-55
-133
-193
-224
-221
-183
-117
-30
65
157
230
275
284
253
184
85
-34
-159
-278
-379
-453
-494
-501
-478
-431
-368
-300
-236
-185
-154
-148
-168
-214
-281
-359
-440
-512
-563
-582
-562
-501
-404
-281
-145
-13
97
169
194
167
90
-26
-166
-311
-441
-537
-585
-577
-515
-404
-262
-108
34
140
192
178
92
-59
-258
-479
-692
-866
-976
-1002
-934
-779
-551
-277
15
296
544
747
906
1032
1149
1283
1463
1716
2058
2492
3013
3599
4225
4857
5462
6012
6483
6861
7140
7320
7408
7414
7347
7215
7023
6775
6472
6115
5708
5257
4771
4261
3740
3224
2726
2257
1825
1433
1084
777
514
293
118
-10
-88
-116
-98
-41
41
133
217
276
299
279
218
123
8
-109
-213
-288
-325
-321
-278
-207
-122
-38
28
66
66
25
-54
-163
-288
-416
-530
-618
-669
-679
-651
-590
-510
-426
-355
-309
-299
-327
-387
-471
-562
-646
-707
-734
-720
-667
-582
-477
-367
-267
-188
-141
-130
-155
-210
-288
-379
-474
-564
-640
-698
-734
-748
-740
-713
-671
-621
-567
-517
-477
-452
-446
-458
-487
-529
-574
-614
-639
-641
-615
-559
-478
-380
-278
-187
-121
-92
-107
-165
-261
-379
-502
-611
-688
-722
-707
-650
-560
-456
-358
-283
-247
-254
-304
-390
-498
-610
-711
-784
-821
-816
-771
-692
-587
-468
-347
-236
-146
-84
-56
-63
-104
-173
-263
-360
-453
-529
-578
-593
-573
-520
-443
-355
-270
-201
-159
-150
-175
-231
-308
-396
-479
-546
-585
-591
-557
-486
-385
-262
-133
-11
88
151
166
130
43
-86
-241
-402
-549
-660
-720
-719
-659
-550
-408
-256
-118
-16
36
30
-29
-130
-252
-376
-479
-545
-564
-535
-465
-368
-260
-159
-79
-33
-26
-56
-117
-199
-290
-377
-448
-496
-513
-497
-448
-370
-270
-158
-43
60
140
187
192
153
72
-42
-175
-312
-433
-522
-564
-554
-490
-380
-239
-87
55
168
233
240
189
86
-55
-215
-371
-499
-584
-612
-582
-499
-377
-234
-92
30
114
153
145
95
17
-76
-166
-240
-289
-308
-300
-272
-232
-189
-151
-126
-114
-114
-121
-132
-141
-144
-139
-124
-96
-58
-9
48
114
184
256
323
378
415
428
413
370
304
223
137
59
-2
-38
-47
-30
4
46
83
106
108
86
44
-12
-74
-132
-177
-204
-210
-197
-167
-123
-69
-9
55
121
186
244
290
316
313
276
202
92
-44
-194
-338
-457
-534
-556
-519
-428
-298
-149
-6
109
174
180
127
25
-108
-250
-375
-461
-495
-471
-392
-271
-129
12
130
207
230
197
112
-9
-149
-287
-401
-477
-505
-483
-415
-314
-199
-85
9
70
90
65
1
-92
-199
-307
-401
-468
-500
-496
-456
-388
-302
-211
-128
-64
-29
-26
-56
-114
-191
-273
-349
-405
-432
-424
-382
-311
-219
-117
-19
64
122
147
137
93
20
-73
-176
-277
-363
-426
-456
-449
-407
-336
-245
-151
-67
-10
10
-15
-83
-186
-308
-433
-539
-609
-630
-599
-517
-395
-250
-102
32
135
196
211
181
115
22
-83
-189
-282
-355
-401
-419
-410
-379
-330
-272
-212
-159
-119
-98
-96
-114
-149
-194
-243
-286
-316
-327
-315
-280
-227
-162
-95
-36
5
20
7
-35
-101
-186
-278
-364
-434
-477
-488
-464
-409
-330
-240
-152
-79
-35
-28
-61
-132
-235
-356
-478
-584
-657
-684
-660
-585
-469
-328
-183
-56
32
65
37
-51
-186
-350
-517
-662
-762
-800
-770
-675
-527
-346
-158
14
146
223
237
189
87
-52
-211
-367
-503
-601
-653
-653
-603
-512
-394
-265
-142
-42
22
41
11
-62
-169
-292
-413
-514
-580
-598
-567
-491
-380
-251
-124
-18
48
67
33
-48
-166
-302
-437
-553
-634
-666
-647
-578
-469
-333
-189
-56
49
112
124
84
-3
-127
-272
-418
-548
-644
-695
-695
-642
-546
-418
-276
-139
-26
50
78
56
-13
-119
-246
-376
-492
-577
-621
-618
-571
-488
-380
-265
-161
-81
-40
-42
-88
-171
-280
-400
-516
-612
-677
-703
-688
-636
-554
-454
-348
-247
-162
-99
-63
-54
-70
-108
-161
-226
-298
-371
-440
-502
-553
-588
-605
-602
-579
-538
-485
-427
-371
-323
-288
-268
-261
-262
-264
-257
-236
-195
-137
-66
7
71
113
123
95
31
-63
-174
-287
-385
-457
-490
-483
-438
-363
-273
-181
-102
-46
-22
-32
-74
-142
-227
-316
-398
-461
-496
-498
-465
-400
-309
-202
-92
8
86
131
139
108
46
-39
-133
-221
-290
-329
-332
-297
-230
-140
-39
59
141
195
216
201
154
81
-6
-93
-168
-216
-227
-197
-125
-18
113
253
384
486
545
550
498
392
244
71
-107
-269
-397
-476
-500
-469
-393
-285
-161
-41
59
126
150
127
62
-38
-159
-287
-404
-493
-543
-545
-498
-410
-293
-167
-55
22
46
6
-98
-257
-450
-652
-832
-963
-1024
-1004
-905
-741
-535
-319
-121
29
115
126
68
-45
-191
-345
-480
-578
-625
-618
-563
-471
-358
-244
-143
-68
-25
-16
-37
-82
-142
-209
-276
-338
-392
-437
-472
-498
-513
-517
-509
-487
-451
-404
-345
-276
-198
-111
-13
99
230
389
581
814
1090
1410
1770
2163
2579
3007
3437
3861
4273
4670
5052
5419
5772
6109
6422
6703
6936
7103
7188
7173
7045
6799
6439
5974
5426
4819
4183
3549
2944
2393
1913
1512
1193
949
768
637
536
451
368
277
172
53
-76
-205
-323
-417
-476
-492
-463
-391
-285
-161
-34
74
149
177
152
75
-45
-193
-351
-501
-624
-707
-742
-730
-676
-589
-484
-375
-276
-199
-152
-139
-161
-215
-297
-396
-503
-606
-693
-752
-773
-752
-687
-586
-461
-329
-212
-131
-106
-146
-254
-421
-627
-845
-1043
-1192
-1270
-1263
-1171
-1009
-799
-572
-360
-191
-83
-47
-78
-164
-283
-414
-532
-620
-667
-668
-627
-554
-460
-362
-273
-205
-166
-160
-189
-247
-328
-422
-517
-601
-662
-693
-686
-642
-564
-463
-351
-245
-160
-110
-103
-140
-215
-319
-432
-539
-620
-664
-663
-619
-541
-443
-345
-266
-223
-227
-282
-382
-515
-664
-808
-928
-1008
-1037
-1013
-936
-818
-670
-508
-348
-204
-91
-15
18
10
-35
-111
-204
-303
-392
-459
-495
-494
-455
-385
-292
-192
-100
-31
4
-2
-51
-138
-253
-380
-504
-609
-681
-711
-695
-635
-536
-411
-274
-141
-27
54
92
85
35
-49
-152
-256
-345
-402
-416
-383
-307
-202
-83
28
112
155
148
93
0
-115
-231
-327
-386
-396
-356
-275
-165
-47
59
134
165
147
83
-17
-139
-264
-374
-455
-496
-494
-448
-366
-258
-135
-12
98
188
250
280
278
244
184
102
7
-93
-186
-262
-311
-324
-294
-221
-110
28
176
313
415
465
448
361
209
12
-205
-410
-570
-660
-663
-578
-416
-200
39
266
451
573
618
591
502
373
230
99
3
-46
-42
11
103
218
338
446
527
569
568
525
448
346
236
134
55
11
8
43
109
189
266
320
334
296
205
68
-99
-274
-432
-551
-615
-617
-559
-451
-310
-157
-10
114
206
263
287
283
261
228
191
153
115
80
45
14
-13
-31
-37
-29
-6
27
66
100
120
117
85
24
-63
-165
-270
-365
-437
-474
-472
-433
-362
-271
-176
-89
-25
7
4
-36
-107
-198
-296
-386
-454
-489
-484
-439
-360
-258
-148
-47
30
69
67
23
-53
-147
-244
-327
-384
-408
-400
-367
-319
-269
-231
-213
-219
-245
-286
-331
-372
-399
-408
-397
-369
-329
-284
-237
-190
-145
-100
-57
-16
20
46
57
45
9
-51
-128
-213
-290
-345
-365
-345
-286
-197
-95
-1
63
77
32
-75
-236
-430
-632
-814
-949
-1015
-1000
-904
-734
-511
-262
-13
207
375
475
500
453
343
189
12
-166
-324
-445
-516
-534
-498
-419
-307
-180
-55
51
125
157
145
90
2
-108
-224
-329
-409
-452
-452
-410
-332
-231
-120
-17
63
108
110
69
-10
-114
-228
-338
-427
-485
-505
-488
-440
-369
-289
-213
-153
-119
-116
-142
-193
-263
-342
-417
-479
-518
-530
-512
-467
-398
-313
-220
-133
-61
-16
-2
-23
-78
-159
-256
-355
-441
-502
-530
-522
-481
-417
-344
-278
-235
-223
-247
-303
-384
-474
-555
-614
-638
-621
-566
-478
-369
-253
-144
-52
13
49
54
31
-17
-84
-162
-245
-324
-393
-443
-466
-459
-420
-351
-261
-159
-60
23
78
96
71
8
-86
-199
-316
-423
-507
-559
-572
-548
-491
-412
-321
-231
-155
-103
-82
-96
-142
-212
-298
-384
-457
-505
-517
-492
-432
-347
-250
-159
-90
-56
-65
-120
-212
-329
-453
-565
-648
-688
-679
-621
-521
-391
-249
-113
0
79
116
107
54
-35
-148
-271
-391
-492
-561
-589
-570
-506
-401
-267
-123
10
112
162
148
62
-88
-289
-517
-740
-927
-1052
-1093
-1044
-909
-705
-459
-205
26
205
311
337
285
170
12
-162
-325
-455
-534
-555
-516
-429
-308
-174
-50
45
95
91
33
-73
-211
-362
-505
-619
-690
-710
-679
-604
-498
-379
-262
-164
-96
-63
-66
-99
-153
-218
-283
-339
-380
-399
-393
-363
-310
-238
-154
-66
17
85
130
146
129
81
8
-81
-174
-259
-323
-358
-357
-321
-257
-170
-73
21
100
156
183
180
150
99
40
-18
-63
-85
-80
-44
18
100
190
276
346
389
398
371
312
228
130
29
-63
-134
-179
-196
-187
-157
-115
-69
-28
0
11
2
-28
-73
-130
-191
-247
-290
-313
-311
-283
-230
-160
-82
-10
41
58
31
-43
-163
-318
-489
-655
-793
-884
-912
-872
-768
-613
-428
-238
-67
63
137
150
104
11
-113
-250
-382
-493
-573
-617
-625
-602
-552
-486
-410
-333
-263
-205
-165
-145
-148
-172
-213
-267
-325
-377
-414
-429
-419
-384
-329
-265
-202
-152
-126
-128
-155
-203
-256
-299
-315
-289
-210
-75
116
353
626
923
1231
1544
1859
2177
2504
2847
3213
3609
4035
4491
4969
5459
5947
6415
6844
7214
7501
7686
7750
7677
7460
7100
6608
6005
5324
4603
3886
3214
2619
2126
1742
1461
1264
1125
1012
896
755
580
372
143
-87
-291
-447
-538
-556
-503
-392
-246
-89
53
156
205
195
127
11
-134
-287
-428
-539
-606
-624
-591
-517
-411
-289
-166
-58
22
66
68
28
-50
-157
-281
-408
-524
-618
-678
-698
-680
-627
-552
-466
-388
-331
-307
-321
-373
-456
-558
-662
-750
-805
-819
-784
-707
-594
-461
-325
-202
-108
-55
-47
-82
-152
-247
-352
-453
-536
-593
-618
-613
-581
-531
-475
-424
-388
-374
-385
-422
-480
-552
-628
-701
-761
-801
-816
-803
-763
-697
-611
-513
-410
-314
-235
-181
-159
-172
-219
-294
-385
-479
-563
-622
-648
-636
-588
-513
-422
-330
-253
-204
-192
-218
-281
-371
-477
-584
-678
-747
-784
-781
-740
-664
-560
-439
-313
-195
-96
-25
9
5
-37
-112
-209
-316
-419
-503
-557
-573
-550
-491
-406
-308
-213
-135
-87
-75
-101
-158
-236
-320
-396
-449
-470
-454
-405
-332
-247
-164
-97
-58
-52
-79
-136
-212
-294
-370
-428
-460
-461
-431
-375
-301
-220
-142
-79
-38
-24
-39
-79
-138
-207
-275
-332
-369
-378
-356
-306
-231
-137
-37
60
141
197
219
205
154
70
-40
-163
-287
-398
-483
-532
-538
-502
-428
-329
-219
-117
-38
4
5
-37
-114
-210
-308
-390
-439
-446
-408
-330
-221
-96
29
138
221
271
286
268
223
157
76
-13
-105
-195
-277
-347
-399
-427
-427
-397
-341
-264
-177
-91
-18
29
44
27
-13
-66
-117
-150
-152
-116
-43
60
178
294
388
447
460
426
349
242
124
13
-73
-124
-132
-99
-32
55
146
226
281
304
290
243
172
89
10
-53
-87
-89
-58
0
71
141
194
217
203
148
57
-57
-179
-290
-376
-424
-427
-385
-303
-193
-68
55
164
248
301
320
306
263
197
115
25
-64
-144
-209
-254
-275
-272
-245
-199
-141
-82
-32
1
9
-11
-59
-131
-216
-302
-376
-427
-445
-425
-365
-274
-159
-36
80
174
234
251
220
147
39
-90
-222
-342
-433
-483
-488
-448
-370
-268
-157
-55
20
58
52
1
-89
-206
-333
-450
-540
-592
-597
-555
-472
-360
-234
-111
-5
72
115
123
100
55
-4
-67
-127
-180
-224
-256
-279
-292
-296
-288
-269
-239
-200
-156
-113
-78
-58
-57
-77
-114
-160
-206
-239
-249
-229
-180
-106
-18
70
142
185
192
160
93
1
-101
-198
-276
-325
-340
-323
-279
-218
-151
-89
-43
-20
-22
-48
-93
-151
-214
-273
-321
-351
-361
-347
-313
-260
-195
-125
-57
-1
37
51
34
-13
-90
-191
-306
-424
-531
-612
-656
-656
-610
-523
-407
-280
-159
-64
-8
2
-33
-106
-201
-300
-381
-429
-433
-390
-306
-195
-73
38
122
166
164
116
30
-80
-198
-307
-391
-441
-452
-425
-366
-288
-204
-130
-79
-63
-86
-150
-249
-373
-506
-631
-732
-794
-806
-763
-666
-525
-354
-171
5
155
262
317
315
259
158
27
-114
-247
-354
-421
-440
-412
-341
-243
-133
-31
48
89
85
37
-51
-166
-293
-415
-515
-580
-603
-580
-515
-415
-292
-164
-45
49
104
113
73
-11
-131
-270
-410
-533
-622
-663
-652
-590
-486
-356
-219
-95
-2
49
50
5
-79
-187
-302
-405
-483
-524
-524
-485
-413
-321
-221
-128
-54
-7
8
-9
-54
-121
-199
-278
-349
-405
-439
-449
-435
-400
-346
-281
-212
-146
-92
-54
-39
-50
-86
-143
-215
-292
-364
-420
-450
-449
-418
-360
-287
-212
-150
-114
-112
-146
-213
-299
-390
-468
-517
-524
-486
-406
-294
-165
-39
66
135
159
133
62
-46
-177
-310
-431
-523
-575
-580
-541
-463
-358
-239
-124
-26
44
79
79
46
-11
-83
-161
-237
-307
-370
-424
-472
-513
-549
-576
-590
-586
-562
-516
-451
-373
-291
-216
-156
-116
-97
-93
-98
-101
-91
-62
-13
52
123
188
234
249
230
179
105
22
-54
-107
-126
-104
-46
39
136
227
294
324
309
249
151
29
-99
-215
-302
-346
-340
-283
-180
-43
112
268
406
513
577
593
561
489
387
268
148
41
-40
-87
-94
-63
1
88
186
278
351
391
388
337
239
101
-65
-243
-412
-556
-659
-709
-703
-644
-541
-411
-274
-148
-52
1
5
-35
-110
-206
-304
-384
-434
-443
-413
-348
-260
-166
-80
-17
16
16
-15
-69
-137
-209
-278
-339
-393
-442
-489
-536
-584
-630
-668
-693
-697
-675
-627
-556
-469
-376
-289
-216
-163
-130
-115
-110
-108
-103
-89
-67
-39
-14
1
0
-17
-49
-87
-117
-125
-96
-17
120
317
573
879
1223
1595
1980
2368
2754
3134
3508
3876
4243
4613
4987
5367
5750
6129
6491
6822
7100
7304
7413
7408
7278
7021
6642
6161
5602
4999
4387
3800
3266
2803
2418
2108
1860
1654
1470
1285
1086
865
622
367
114
-120
-315
-457
-536
-549
-499
-397
-259
-103
52
189
293
353
365
332
259
157
38
-83
-193
-280
-339
-364
-357
-325
-274
-215
-160
-118
-100
-110
-151
-221
-316
-425
-539
-644
-728
-781
-797
-773
-712
-622
-514
-403
-306
-236
-202
-213
-263
-345
-446
-550
-640
-698
-715
-686
-615
-512
-392
-275
-177
-115
-97
-127
-197
-299
-414
-527
-623
-690
-723
-722
-694
-648
-597
-553
-524
-516
-530
-561
-605
-653
-695
-725
-735
-723
-687
-630
-554
-465
-369
-275
-189
-119
-71
-51
-63
-105
-175
-266
-368
-468
-554
-614
-641
-629
-582
-506
-414
-324
-250
-208
-208
-253
-339
-456
-588
-714
-815
-873
-879
-828
-726
-585
-424
-260
-115
-6
58
69
31
-49
-159
-283
-405
-509
-581
-612
-596
-534
-433
-305
-167
-38
59
106
91
7
-140
-337
-561
-783
-972
-1103
-1155
-1121
-1004
-820
-592
-353
-133
42
153
193
165
79
-43
-179
-307
-409
-470
-485
-455
-386
-293
-191
-96
-23
18
20
-16
-86
-177
-276
-366
-435
-469
-466
-427
-358
-274
-189
-122
-84
-86
-128
-206
-308
-417
-519
-598
-642
-644
-603
-526
-420
-298
-174
-61
30
92
118
107
63
-11
-106
-211
-315
-406
-474
-510
-511
-475
-410
-324
-231
-145
-80
-44
-42
-75
-137
-219
-310
-398
-472
-522
-544
-535
-495
-426
-334
-227
-113
-8
75
120
112
42
-91
-280
-508
-748
-967
-1133
-1215
-1195
-1068
-846
-553
-228
89
356
543
633
625
535
389
222
68
-46
-101
-93
-29
75
195
307
391
433
428
377
291
183
70
-31
-108
-152
-160
-132
-75
2
85
164
228
266
271
240
176
84
-25
-139
-246
-332
-388
-408
-388
-334
-251
-151
-48
46
117
158
162
130
68
-17
-111
-202
-277
-326
-343
-325
-275
-200
-108
-13
72
137
171
169
129
54
-48
-165
-283
-387
-463
-502
-497
-451
-372
-270
-161
-61
16
61
73
55
14
-39
-89
-126
-141
-130
-95
-38
32
106
176
233
269
278
258
205
121
8
-124
-265
-400
-513
-589
-614
-585
-503
-377
-226
-71
64
157
197
177
105
-3
-125
-237
-316
-347
-321
-243
-124
17
157
274
350
374
344
263
143
1
-143
-271
-365
-415
-414
-362
-268
-146
-14
109
201
247
238
170
49
-109
-283
-448
-582
-666
-688
-644
-541
-393
-221
-49
101
212
270
273
224
132
13
-115
-235
-329
-386
-398
-366
-293
-190
-74
37
125
174
172
114
4
-147
-320
-494
-645
-750
-794
-767
-669
-511
-313
-98
108
280
397
447
427
344
214
58
-102
-241
-340
-386
-375
-312
-209
-87
35
133
191
196
147
49
-86
-237
-387
-513
-602
-642
-629
-568
-470
-347
-215
-92
10
79
110
103
62
-6
-88
-172
-245
-297
-319
-307
-263
-192
-104
-12
71
133
163
155
110
32
-70
-184
-294
-390
-457
-489
-485
-446
-379
-292
-198
-110
-39
5
16
-8
-65
-147
-245
-343
-427
-485
-506
-484
-422
-328
-216
-104
-12
43
49
0
-97
-230
-378
-519
-629
-690
-690
-628
-511
-355
-182
-16
123
217
256
239
173
69
-55
-180
-289
-367
-405
-398
-351
-271
-171
-67
22
83
101
70
-9
-129
-276
-433
-577
-689
-751
-753
-691
-572
-408
-219
-29
141
273
351
371
333
247
125
-14
-150
-268
-351
-392
-387
-338
-255
-150
-40
57
126
154
134
66
-44
-183
-335
-481
-601
-678
-703
-672
-590
-466
-316
-161
-18
95
166
188
160
90
-9
-123
-234
-326
-386
-405
-381
-318
-222
-109
5
103
169
191
163
85
-35
-184
-342
-491
-611
-685
-705
-669
-582
-455
-306
-154
-18
84
143
154
119
46
-52
-158
-255
-327
-361
-350
-292
-193
-63
77
209
311
364
355
280
145
-35
-235
-429
-587
-684
-702
-637
-493
-288
-49
195
413
579
676
698
648
543
403
254
120
21
-28
-23
31
124
238
356
460
534
571
567
525
456
372
287
212
156
124
116
126
146
167
181
179
159
120
67
5
-58
-116
-161
-188
-195
-181
-146
-94
-27
48
126
199
259
298
309
288
234
149
41
-80
-204
-315
-401
-453
-466
-440
-380
-295
-195
-94
-5
63
99
99
63
-10
-113
-239
-377
-514
-640
-740
-805
-827
-804
-740
-643
-526
-402
-288
-196
-132
-101
-97
-113
-135
-151
-149
-122
-68
6
91
173
237
269
261
209
117
-6
-145
-283
-401
-482
-516
-494
-417
-288
-118
81
296
514
726
931
1130
1331
1548
1796
2092
2449
2875
3370
3925
4524
5143
5751
6318
6811
7204
7477
7620
7630
7515
7290
6976
6599
6183
5752
5327
4923
4546
4198
3876
3568
3263
2948
2616
2262
1887
1500
1113
746
418
147
-54
-177
-220
-192
-105
21
167
309
429
509
537
507
420
282
106
-92
-294
-477
-623
-716
-747
-716
-628
-498
-346
-194
-65
23
61
47
-13
-103
-203
-294
-356
-378
-356
-296
-210
-115
-31
25
40
8
-67
-176
-302
-426
-531
-602
-628
-610
-552
-467
-372
-288
-231
-214
-244
-321
-436
-575
-719
-846
-937
-979
-964
-891
-768
-611
-436
-264
-115
-5
53
56
6
-88
-211
-347
-476
-581
-646
-663
-630
-550
-436
-303
-171
-60
13
34
-1
-92
-229
-398
-577
-747
-886
-978
-1013
-988
-907
-779
-619
-446
-278
-134
-26
35
46
9
-66
-169
-283
-391
-476
-527
-536
-505
-438
-348
-251
-164
-101
-71
-81
-126
-198
-282
-365
-433
-478
-496
-490
-466
-436
-410
-398
-403
-426
-462
-503
-542
-570
-582
-576
-549
-505
-446
-377
-300
-219
-135
-53
25
91
139
163
157
118
49
-44
-150
-255
-344
-404
-425
-404
-343
-253
-147
-44
41
92
100
61
-19
-132
-265
-400
-520
-612
-665
-674
-639
-565
-461
-339
-215
-102
-13
44
63
45
-4
-75
-158
-238
-303
-341
-347
-317
-255
-169
-71
24
101
148
153
113
31
-84
-219
-356
-477
-566
-609
-603
-548
-451
-328
-198
-77
16
68
74
34
-44
-147
-259
-363
-443
-488
-493
-456
-385
-289
-183
-83
-2
49
62
37
-22
-106
-203
-297
-375
-424
-435
-404
-333
-228
-103
28
150
246
306
322
294
228
132
23
-83
-169
-222
-233
-200
-125
-19
106
231
340
419
456
446
391
299
182
58
-55
-142
-191
-195
-152
-71
37
156
270
362
419
434
405
338
240
127
13
-88
-163
-206
-211
-183
-129
-58
19
89
144
174
174
144
90
22
-47
-106
-142
-150
-125
-72
1
82
159
219
254
263
246
210
161
110
60
13
-32
-80
-136
-203
-279
-357
-428
-478
-496
-476
-416
-324
-212
-99
-1
65
94
86
51
5
-33
-47
-25
32
117
214
303
366
386
355
276
158
20
-118
-235
-314
-345
-327
-267
-176
-72
27
105
149
152
114
42
-55
-165
-275
-369
-436
-466
-456
-406
-324
-218
-102
13
112
185
225
229
197
135
52
-40
-126
-195
-235
-240
-206
-139
-46
57
155
232
273
268
215
118
-14
-165
-315
-447
-542
-591
-588
-537
-446
-329
-201
-79
22
91
124
120
86
30
-35
-100
-151
-179
-179
-149
-92
-17
66
145
207
242
241
204
132
35
-77
-188
-283
-350
-383
-377
-338
-274
-196
-118
-54
-15
-6
-28
-78
-146
-223
-295
-354
-388
-392
-363
-305
-223
-127
-28
64
137
183
196
175
122
43
-52
-153
-247
-321
-366
-376
-347
-282
-189
-78
34
132
201
228
206
133
17
-132
-295
-449
-575
-654
-675
-634
-537
-397
-233
-69
72
171
215
199
129
15
-123
-265
-389
-479
-520
-506
-440
-330
-191
-43
93
196
250
244
176
50
-119
-311
-499
-659
-769
-814
-788
-694
-547
-369
-186
-24
94
155
154
94
-9
-135
-261
-366
-432
-450
-419
-345
-242
-128
-20
67
120
135
113
60
-14
-99
-183
-260
-324
-373
-408
-431
-445
-450
-448
-437
-416
-386
-347
-303
-258
-219
-192
-179
-180
-191
-205
-213
-206
-178
-127
-59
18
90
140
157
132
64
-39
-165
-293
-405
-483
-516
-500
-441
-351
-246
-147
-69
-26
-24
-61
-131
-221
-316
-402
-466
-499
-495
-456
-385
-292
-188
-85
4
68
100
96
57
-13
-103
-201
-297
-376
-431
-457
-454
-425
-378
-323
-268
-223
-194
-184
-194
-222
-263
-311
-359
-401
-431
-443
-433
-398
-340
-261
-168
-72
18
90
132
138
106
36
-62
-178
-296
-402
-483
-529
-538
-509
-448
-364
-270
-177
-96
-36
-1
8
-8
-43
-88
-135
-172
-190
-182
-145
-78
13
120
229
327
401
437
431
380
291
174
46
-76
-176
-238
-254
-220
-140
-25
111
249
370
459
505
501
450
362
251
136
36
-32
-56
-31
40
143
263
377
465
511
502
439
327
181
21
-132
-259
-342
-376
-361
-302
-213
-111
-12
67
116
129
103
43
-44
-147
-255
-356
-437
-491
-512
-497
-449
-374
-284
-192
-112
-59
-43
-72
-144
-252
-385
-524
-649
-741
-783
-768
-695
-573
-416
-246
-87
40
120
142
108
25
-90
-216
-334
-424
-473
-477
-436
-360
-263
-162
-72
-7
22
12
-36
-115
-215
-325
-430
-517
-576
-597
-575
-504
-388
-231
-39
178
409
644
875
1098
1313
1525
1744
1981
2248
2557
2915
3325
3784
4282
4806
5337
5857
6344
6777
7139
7413
7585
7647
7594
7426
7151
6783
6339
5842
5316
4785
4269
3782
3331
2917
2534
2172
1824
1480
1139
804
484
193
-55
-246
-373
-432
-429
-377
-292
-194
-100
-25
22
39
29
1
-37
-73
-100
-114
-114
-105
-92
-83
-83
-98
-130
-178
-239
-307
-374
-435
-482
-511
-521
-509
-478
-429
-367
-296
-223
-154
-98
-61
-49
-67
-116
-195
-297
-412
-528
-631
-709
-751
-752
-711
-633
-531
-419
-314
-232
-186
-184
-227
-307
-414
-531
-639
-722
-767
-765
-716
-625
-508
-383
-268
-181
-137
-144
-201
-301
-428
-564
-688
-782
-831
-829
-776
-679
-551
-412
-279
-170
-97
-69
-86
-145
-235
-344
-455
-554
-628
-670
-675
-646
-588
-510
-424
-341
-270
-219
-191
-187
-204
-238
-284
-334
-383
-427
-461
-483
-490
-482
-459
-423
-379
-331
-285
-249
-229
-230
-253
-298
-358
-423
-481
-520
-530
-507
-451
-365
-261
-153
-56
15
50
45
1
-75
-169
-266
-351
-410
-433
-416
-364
-284
-190
-97
-21
25
31
-5
-79
-180
-293
-402
-490
-543
-554
-519
-443
-336
-211
-86
25
110
161
175
153
103
34
-45
-122
-190
-242
-275
-287
-282
-262
-234
-204
-176
-156
-147
-151
-165
-188
-214
-236
-246
-240
-213
-164
-96
-13
77
163
235
284
304
291
248
179
93
0
-90
-166
-221
-251
-255
-235
-195
-143
-88
-36
7
35
45
38
17
-15
-54
-92
-124
-143
-143
-121
-77
-15
61
142
218
278
312
313
278
210
115
7
-98
-185
-241
-255
-224
-151
-45
78
204
316
400
448
456
428
369
292
207
127
62
19
4
17
56
116
189
265
335
389
416
412
373
303
210
108
10
-68
-114
-118
-80
-5
95
204
304
376
409
397
339
244
124
-5
-127
-227
-294
-325
-318
-277
-210
-126
-37
47
117
167
190
184
150
92
19
-62
-140
-205
-248
-263
-249
-207
-144
-68
9
75
122
142
132
93
29
-50
-136
-217
-283
-328
-344
-333
-295
-237
-168
-98
-38
2
15
-1
-45
-111
-188
-264
-324
-356
-354
-314
-239
-138
-26
81
167
219
227
191
115
9
-111
-229
-327
-394
-420
-402
-344
-257
-155
-51
37
97
118
98
39
-49
-156
-264
-358
-423
-448
-430
-370
-278
-167
-55
42
107
132
114
56
-34
-139
-243
-330
-388
-406
-383
-323
-235
-133
-31
56
116
142
131
84
10
-81
-177
-266
-336
-379
-392
-374
-328
-263
-187
-111
-46
1
24
20
-11
-65
-135
-212
-285
-346
-384
-393
-371
-318
-240
-146
-51
34
94
118
101
41
-54
-173
-299
-412
-496
-537
-528
-470
-371
-243
-105
25
128
193
209
174
95
-19
-152
-290
-414
-508
-561
-565
-518
-425
-299
-156
-16
98
169
183
134
25
-131
-314
-498
-657
-769
-818
-797
-710
-571
-401
-225
-68
51
118
129
89
7
-100
-217
-327
-416
-474
-496
-480
-429
-349
-248
-137
-30
60
117
128
85
-12
-160
-344
-542
-728
-876
-963
-971
-895
-741
-531
-291
-56
142
275
329
299
194
35
-149
-325
-466
-549
-564
-512
-405
-265
-119
8
91
115
75
-23
-164
-329
-491
-627
-718
-750
-719
-632
-501
-347
-189
-50
54
110
112
62
-32
-156
-292
-421
-526
-594
-616
-589
-517
-410
-285
-157
-47
31
64
48
-16
-117
-239
-365
-474
-550
-582
-563
-495
-389
-260
-127
-9
79
125
124
76
-9
-121
-241
-352
-440
-494
-507
-479
-418
-334
-242
-158
-96
-65
-71
-112
-182
-271
-365
-451
-518
-559
-568
-546
-496
-423
-337
-245
-155
-76
-14
24
34
15
-33
-105
-195
-290
-378
-445
-479
-473
-426
-341
-232
-115
-11
63
91
63
-18
-144
-295
-450
-585
-677
-709
-675
-576
-425
-239
-41
146
300
407
457
450
393
299
183
64
-42
-122
-168
-174
-143
-80
4
98
188
261
307
320
297
241
160
67
-24
-99
-145
-155
-127
-64
25
128
229
314
373
399
390
346
275
184
81
-26
-131
-230
-317
-389
-442
-472
-477
-454
-406
-337
-256
-174
-102
-55
-39
-58
-107
-177
-252
-318
-359
-367
-339
-279
-200
-121
-58
-27
-37
-89
-175
-280
-386
-474
-530
-545
-519
-459
-378
-294
-222
-178
-167
-192
-246
-320
-400
-475
-533
-567
-574
-552
-508
-446
-373
-298
-228
-170
-130
-110
-114
-142
-190
-254
-327
-399
-459
-498
-504
-471
-395
-277
-123
59
257
459
656
840
1007
1162
1319
1492
1698
1952
2267
2647
3090
3587
4119
4665
5205
5716
6182
6587
6922
7176
7341
7409
7367
7210
6932
6535
6032
5445
4804
4148
3516
2944
2456
2064
1763
1536
1356
1193
1022
827
604
364
125
-87
-248
-342
-363
-321
-231
-122
-19
54
81
59
-7
-100
-202
-290
-349
-368
-345
-285
-202
-109
-23
41
72
64
19
-57
-156
-268
-382
-486
-570
-626
-651
-643
-605
-541
-460
-371
-287
-219
-177
-171
-206
-282
-394
-533
-683
-827
-946
-1022
-1044
-1006
-912
-774
-611
-445
-300
-195
-144
-150
-210
-310
-427
-540
-627
-673
-671
-623
-538
-435
-331
-245
-191
-176
-197
-249
-317
-390
-454
-501
-530
-542
-545
-549
-560
-584
-622
-670
-720
-763
-789
-796
-780
-745
-695
-638
-580
-527
-478
-434
-391
-343
-289
-229
-167
-111
-72
-57
-74
-126
-209
-312
-423
-525
-603
-645
-645
-604
-530
-434
-332
-241
-173
-140
-147
-193
-268
-360
-455
-540
-604
-637
-636
-602
-540
-458
-367
-276
-196
-132
-90
-73
-83
-120
-185
-274
-385
-512
-644
-770
-875
-943
-963
-927
-834
-691
-515
-326
-148
-3
92
129
109
44
-49
-147
-228
-276
-281
-242
-168
-75
17
89
127
121
70
-19
-134
-257
-370
-457
-506
-511
-471
-393
-290
-174
-64
26
84
102
80
20
-68
-171
-273
-357
-411
-424
-393
-320
-215
-91
35
146
227
267
260
210
123
14
-101
-206
-284
-323
-318
-270
-186
-79
34
136
213
254
254
213
139
46
-54
-143
-209
-244
-243
-211
-154
-87
-21
29
55
52
18
-41
-117
-198
-270
-322
-344
-330
-280
-196
-86
41
172
295
398
472
510
509
471
399
304
196
89
-3
-69
-98
-87
-36
50
158
276
386
472
519
517
461
353
200
16
-179
-364
-519
-626
-673
-654
-571
-436
-265
-81
94
238
335
376
360
296
200
90
-11
-87
-124
-116
-67
14
110
204
277
313
304
248
151
25
-113
-244
-352
-422
-447
-427
-367
-280
-184
-93
-25
7
-2
-53
-140
-249
-366
-473
-555
-600
-602
-561
-482
-374
-250
-126
-14
71
122
135
107
43
-49
-159
-272
-374
-450
-489
-484
-433
-341
-220
-88
33
122
162
142
59
-77
-248
-430
-595
-718
-779
-769
-690
-551
-374
-186
-13
123
205
226
187
99
-22
-157
-286
-393
-465
-496
-486
-440
-367
-276
-182
-96
-28
14
24
0
-56
-140
-243
-355
-464
-556
-619
-643
-622
-557
-451
-317
-169
-27
92
171
200
174
97
-16
-149
-281
-391
-462
-483
-451
-374
-265
-142
-26
65
118
126
89
14
-88
-202
-314
-410
-482
-526
-540
-529
-501
-463
-425
-394
-375
-372
-383
-405
-431
-454
-465
-457
-424
-363
-279
-176
-65
40
129
188
209
190
130
37
-80
-207
-332
-442
-526
-578
-595
-578
-534
-468
-392
-314
-244
-191
-161
-158
-180
-224
-283
-348
-407
-451
-468
-454
-408
-332
-236
-131
-31
49
99
109
78
7
-95
-214
-337
-447
-531
-580
-588
-554
-485
-393
-291
-195
-122
-84
-89
-137
-226
-342
-471
-592
-686
-739
-740
-686
-583
-445
-291
-142
-19
59
80
41
-54
-191
-352
-516
-662
-771
-831
-834
-782
-683
-549
-398
-247
-116
-18
34
37
-11
-103
-227
-366
-504
-621
-704
-740
-725
-658
-547
-408
-260
-122
-14
49
58
12
-79
-201
-333
-452
-536
-570
-547
-471
-356
-222
-96
-4
34
6
-89
-241
-427
-620
-791
-911
-960
-931
-828
-665
-465
-257
-67
81
170
193
153
61
-66
-209
-348
-467
-554
-601
-608
-576
-515
-435
-349
-268
-205
-166
-158
-181
-234
-307
-391
-474
-545
-593
-611
-598
-555
-490
-412
-335
-269
-223
-205
-215
-253
-312
-384
-460
-529
-582
-613
-617
-593
-544
-473
-389
-301
-217
-146
-96
-71
-74
-104
-157
-226
-301
-369
-419
-440
-424
-366
-270
-142
2
143
261
335
348
294
172
-5
-214
-428
-613
-741
-788
-744
-610
-403
-150
112
349
528
626
637
566
431
259
84
-64
-162
-196
-167
-85
30
150
250
309
313
257
149
2
-161
-316
-443
-524
-548
-515
-428
-303
-157
-10
120
218
275
285
250
177
75
-42
-162
-275
-371
-446
-496
-522
-526
-510
-478
-437
-389
-341
-296
-259
-234
-225
-232
-257
-297
-347
-401
-449
-483
-497
-485
-448
-390
-319
-247
-188
-153
-154
-192
-266
-367
-480
-589
-676
-728
-734
-693
-611
-500
-374
-253
-155
-94
-76
-104
-171
-268
-379
-489
-581
-645
-672
-656
-599
-507
-387
-251
-108
30
155
260
344
410
464
519
591
697
855
1082
1387
1774
2238
2766
3339
3931
4514
5062
5554
5978
6327
6601
6807
6951
7041
7081
7069
7001
6867
6659
6369
5996
5544
5025
4456
3861
3263
2687
2153
1677
1270
933
665
461
309
199
118
54
-4
-65
-135
-214
-303
-393
-476
-540
-575
-571
-524
-435
-312
-169
-20
115
219
279
287
241
149
22
-123
-269
-400
-504
-571
-599
-590
-552
-494
-427
-360
-302
-259
-236
-234
-255
-299
-365
-452
-555
-670
-787
-897
-986
-1042
-1057
-1023
-943
-823
-678
-527
-390
-287
-233
-232
-282
-370
-475
-576
-650
-681
-664
-601
-504
-394
-295
-227
-206
-237
-318
-434
-565
-689
-783
-833
-831
-781
-694
-588
-483
-399
-351
-345
-381
-451
-541
-637
-721
-781
-807
-796
-751
-679
-587
-486
-386
-295
-221
-170
-146
-149
-180
-235
-310
-397
-486
-567
-627
-660
-660
-627
-565
-483
-394
-312
-250
-220
-228
-276
-359
-466
-581
-689
-775
-825
-832
-792
-709
-592
-454
-313
-186
-90
-37
-38
-92
-195
-337
-501
-669
-821
-939
-1008
-1021
-977
-880
-743
-582
-417
-265
-145
-68
-38
-53
-106
-182
-269
-351
-411
-439
-430
-384
-307
-213
-115
-32
23
37
6
-68
-173
-293
-406
-491
-530
-513
-441
-325
-186
-52
48
88
53
-61
-241
-462
-692
-896
-1041
-1103
-1073
-954
-762
-525
-274
-39
154
289
359
367
321
237
128
9
-108
-214
-301
-364
-399
-404
-381
-331
-261
-180
-100
-33
9
17
-13
-78
-170
-278
-386
-478
-542
-568
-555
-505
-427
-332
-232
-142
-71
-29
-19
-40
-89
-160
-245
-336
-423
-499
-557
-592
-602
-585
-545
-488
-420
-350
-285
-234
-201
-190
-199
-224
-257
-290
-312
-314
-290
-235
-152
-47
72
191
296
374
414
408
354
258
130
-15
-158
-278
-360
-390
-362
-281
-157
-8
144
274
365
402
381
307
192
56
-77
-187
-255
-273
-238
-160
-55
58
159
229
255
232
162
54
-76
-209
-328
-414
-458
-453
-401
-310
-193
-68
49
140
192
197
150
58
-69
-215
-363
-492
-584
-629
-618
-553
-441
-301
-151
-12
97
162
175
136
52
-62
-187
-305
-396
-450
-460
-426
-355
-258
-149
-44
43
103
127
112
58
-33
-154
-296
-448
-598
-732
-838
-905
-924
-890
-805
-675
-514
-337
-164
-13
101
167
185
158
100
26
-44
-95
-113
-94
-39
41
131
214
270
287
257
179
62
-78
-223
-352
-445
-489
-479
-417
-313
-185
-52
63
142
170
141
60
-61
-204
-349
-473
-556
-587
-561
-481
-359
-214
-66
62
152
192
177
110
3
-129
-268
-395
-492
-549
-558
-519
-438
-327
-200
-73
39
121
163
160
111
20
-103
-244
-389
-520
-623
-686
-700
-666
-586
-471
-336
-197
-71
27
87
104
80
23
-55
-140
-215
-268
-291
-281
-243
-185
-119
-59
-14
9
7
-17
-59
-110
-161
-208
-247
-279
-307
-336
-370
-411
-459
-508
-553
-587
-601
-593
-563
-513
-451
-383
-318
-261
-215
-182
-155
-130
-102
-71
-37
-5
18
23
2
-46
-122
-217
-321
-416
-489
-527
-523
-478
-399
-301
-204
-125
-83
-87
-140
-233
-355
-487
-608
-699
-748
-745
-690
-590
-459
-312
-165
-34
69
133
154
134
78
-7
-108
-215
-314
-395
-448
-468
-455
-413
-348
-273
-200
-142
-108
-105
-135
-195
-279
-376
-473
-559
-623
-658
-659
-627
-564
-479
-380
-278
-184
-107
-56
-36
-47
-86
-146
-216
-285
-339
-371
-374
-347
-293
-219
-136
-58
4
38
38
0
-72
-172
-286
-401
-500
-569
-595
-574
-504
-393
-257
-118
2
80
98
47
-73
-249
-459
-672
-857
-984
-1033
-991
-865
-669
-432
-185
37
207
305
323
266
149
-4
-169
-320
-437
-507
-523
-490
-417
-318
-209
-106
-24
27
40
15
-44
-131
-233
-337
-430
-500
-540
-542
-507
-439
-348
-248
-154
-79
-36
-33
-72
-150
-258
-384
-511
-622
-699
-733
-714
-642
-523
-368
-192
-16
143
269
348
375
352
287
192
85
-16
-95
-140
-145
-111
-44
44
138
222
282
308
294
243
162
66
-31
-112
-164
-178
-152
-90
1
106
209
297
356
382
371
326
254
165
68
-27
-111
-179
-228
-256
-261
-245
-209
-156
-91
-22
44
96
124
120
81
8
-92
-207
-323
-424
-494
-523
-506
-446
-355
-249
-148
-69
-27
-32
-84
-177
-296
-422
-535
-615
-650
-633
-567
-461
-334
-210
-109
-52
-53
-114
-229
-384
-557
-721
-852
-928
-937
-875
-752
-582
-391
-204
-44
68
122
116
56
-44
-167
-293
-406
-490
-538
-548
-520
-464
-387
-300
-213
-134
-67
-16
23
52
79
112
164
245
367
539
773
1072
1440
1871
2359
2889
3447
4011
4562
5078
5544
5947
6279
6537
6723
6842
6899
6900
6848
6746
6593
6390
6135
5828
5473
5075
4643
4187
3720
3256
2807
2384
1995
1646
1341
1081
863
684
540
424
330
251
180
112
44
-25
-93
-154
-202
-231
-233
-207
-153
-78
5
84
141
162
135
57
-69
-231
-412
-590
-743
-849
-897
-880
-802
-675
-518
-353
-203
-88
-21
-9
-52
-142
-266
-407
-547
-671
-763
-814
-819
-779
-701
-596
-480
-371
-287
-243
-248
-308
-416
-561
-723
-880
-1008
-1088
-1105
-1056
-946
-791
-611
-433
-281
-176
-131
-148
-221
-335
-469
-602
-711
-779
-797
-762
-681
-566
-436
-310
-208
-145
-130
-166
-249
-367
-504
-644
-766
-855
-901
-897
-845
-754
-634
-501
-372
-263
-187
-152
-162
-213
-298
-404
-515
-616
-690
-727
-721
-672
-588
-482
-372
-274
-207
-185
-215
-295
-416
-561
-711
-845
-944
-995
-991
-934
-832
-698
-548
-398
-261
-149
-66
-17
-2
-20
-66
-138
-230
-336
-448
-557
-650
-717
-747
-736
-683
-592
-476
-349
-231
-137
-81
-68
-97
-159
-239
-319
-381
-412
-405
-361
-288
-201
-116
-52
-20
-29
-78
-161
-265
-373
-469
-539
-571
-561
-513
-434
-336
-235
-146
-83
-58
-75
-135
-233
-358
-498
-634
-749
-828
-858
-832
-749
-619
-455
-275
-101
45
145
188
168
92
-28
-173
-320
-447
-534
-570
-550
-480
-375
-254
-141
-57
-21
-44
-126
-260
-431
-615
-789
-928
-1012
-1030
-978
-864
-702
-511
-319
-149
-21
51
62
14
-81
-208
-344
-472
-574
-638
-659
-636
-574
-485
-379
-269
-169
-89
-37
-20
-39
-94
-181
-293
-418
-543
-653
-732
-769
-754
-687
-571
-420
-252
-86
58
161
214
211
160
74
-28
-124
-196
-229
-214
-153
-57
60
178
276
337
352
316
233
116
-21
-160
-282
-375
-428
-438
-408
-346
-265
-175
-92
-24
19
31
15
-27
-87
-155
-221
-272
-302
-303
-274
-217
-141
-54
30
99
142
153
128
72
-10
-105
-203
-292
-363
-410
-433
-433
-415
-385
-349
-312
-278
-249
-227
-212
-205
-206
-213
-224
-238
-247
-247
-231
-196
-141
-68
16
99
168
211
215
178
98
-15
-148
-285
-407
-500
-554
-563
-531
-467
-383
-295
-216
-156
-121
-114
-130
-162
-203
-242
-272
-286
-281
-255
-209
-146
-72
4
75
132
167
172
144
81
-11
-125
-249
-369
-472
-544
-576
-565
-512
-427
-323
-215
-118
-45
-7
-8
-46
-110
-189
-265
-324
-356
-353
-313
-243
-153
-55
35
105
147
156
132
81
11
-69
-150
-226
-291
-342
-378
-401
-409
-405
-387
-357
-319
-275
-231
-194
-171
-166
-182
-216
-260
-304
-336
-344
-321
-266
-182
-81
22
109
165
179
149
78
-22
-135
-245
-336
-398
-425
-422
-394
-353
-310
-274
-252
-246
-256
-277
-303
-328
-349
-360
-361
-348
-322
-282
-231
-169
-102
-36
22
63
80
69
27
-41
-129
-225
-318
-395
-446
-466
-454
-414
-356
-293
-235
-192
-169
-170
-190
-224
-267
-310
-345
-368
-377
-371
-352
-322
-284
-239
-192
-146
-105
-73
-54
-52
-72
-115
-181
-268
-371
-480
-588
-682
-754
-796
-802
-772
-707
-617
-511
-401
-300
-220
-166
-141
-142
-164
-197
-229
-249
-248
-223
-176
-112
-45
12
48
52
20
-45
-136
-240
-341
-424
-477
-494
-474
-425
-356
-282
-216
-173
-159
-177
-225
-294
-373
-449
-510
-548
-558
-537
-487
-412
-321
-222
-125
-41
21
54
54
19
-49
-141
-248
-355
-448
-513
-540
-523
-464
-372
-259
-146
-50
12
26
-11
-96
-216
-354
-490
-605
-681
-706
-678
-602
-489
-357
-225
-111
-27
15
15
-25
-95
-183
-275
-360
-427
-469
-486
-479
-454
-418
-381
-347
-324
-313
-316
-330
-354
-384
-415
-444
-468
-481
-480
-463
-428
-374
-305
-224
-139
-57
10
54
68
48
-3
-80
-172
-266
-348
-404
-427
-411
-358
-275
-175
-70
25
97
139
147
121
68
-3
-80
-151
-204
-232
-227
-191
-125
-39
58
154
237
297
327
322
284
219
136
47
-33
-94
-125
-120
-78
-3
94
201
302
383
430
433
390
304
184
44
-96
-215
-297
-328
-304
-227
-111
27
164
278
349
365
322
227
94
-58
-207
-334
-424
-471
-475
-446
-396
-340
-292
-263
-258
-278
-320
-377
-439
-497
-544
-576
-588
-578
-546
-494
-425
-342
-250
-158
-75
-11
27
30
-3
-72
-169
-284
-402
-508
-588
-631
-634
-596
-526
-433
-334
-243
-172
-131
-123
-147
-198
-265
-336
-401
-449
-473
-471
-442
-391
-324
-252
-183
-127
-88
-71
-71
-85
-101
-106
-88
-34
68
226
443
721
1053
1433
1853
2302
2768
3242
3715
4180
4632
5068
5486
5883
6258
6606
6918
7185
7391
7523
7560
7490
7300
6989
6562
6036
5435
4790
4137
3508
2932
2430
2010
1671
1404
1193
1018
864
715
564
408
249
96
-44
-161
-248
-300
-316
-296
-243
-163
-62
50
161
260
336
377
376
329
237
108
-47
-213
-371
-505
-601
-653
-659
-622
-554
-468
-379
-303
-249
-226
-235
-272
-330
-400
-471
-533
-578
-602
-602
-578
-536
-482
-423
-367
-323
-297
-295
-319
-368
-438
-519
-602
-673
-723
-741
-724
-671
-590
-493
-395
-312
-258
-242
-267
-329
-419
-523
-625
-711
-769
-792
-779
-734
-664
-581
-492
-408
-337
-285
-255
-250
-269
-307
-361
-423
-486
-541
-580
-596
-587
-552
-496
-427
-356
-294
-252
-237
-254
-301
-371
-455
-540
-615
-668
-691
-681
-639
-570
-484
-390
-303
-231
-185
-169
-184
-226
-288
-360
-431
-490
-528
-540
-524
-485
-429
-366
-308
-264
-243
-248
-279
-334
-403
-475
-538
-581
-595
-575
-520
-435
-329
-213
-102
-11
48
68
44
-21
-119
-238
-363
-476
-565
-617
-627
-593
-523
-424
-311
-200
-104
-35
-4
-12
-59
-136
-233
-336
-431
-506
-550
-556
-523
-455
-359
-247
-135
-37
32
61
45
-16
-116
-241
-374
-493
-579
-616
-594
-512
-377
-210
-35
122
234
282
257
161
10
-174
-360
-520
-631
-677
-655
-574
-451
-312
-179
-75
-15
-4
-40
-113
-207
-305
-392
-456
-491
-492
-463
-407
-331
-243
-151
-62
16
75
111
117
91
33
-53
-158
-271
-379
-468
-524
-542
-517
-453
-360
-251
-142
-49
16
47
41
3
-56
-124
-185
-229
-246
-230
-184
-114
-31
55
130
184
210
202
162
94
7
-88
-178
-252
-299
-311
-283
-218
-121
-2
126
250
354
428
463
456
409
328
226
116
16
-62
-107
-113
-79
-12
78
173
257
313
329
298
218
99
-46
-195
-328
-425
-471
-461
-394
-280
-138
10
142
239
288
283
225
125
0
-133
-255
-348
-402
-411
-377
-305
-209
-101
3
88
143
160
137
77
-15
-124
-238
-338
-413
-450
-444
-395
-310
-200
-80
33
122
178
192
164
100
12
-87
-184
-265
-321
-348
-345
-316
-267
-208
-146
-88
-40
-7
11
12
-1
-27
-64
-105
-148
-186
-212
-222
-210
-176
-122
-54
20
88
139
162
152
107
32
-64
-165
-258
-326
-358
-348
-296
-208
-97
21
130
213
255
250
198
105
-18
-154
-285
-395
-469
-496
-474
-406
-304
-182
-61
42
110
132
104
32
-73
-194
-312
-405
-460
-465
-419
-330
-210
-79
43
137
188
190
144
57
-55
-173
-279
-354
-389
-376
-320
-228
-115
4
113
196
243
250
218
151
61
-42
-144
-235
-305
-348
-359
-340
-293
-227
-151
-73
-2
50
76
73
41
-17
-95
-182
-268
-339
-387
-404
-388
-339
-264
-173
-78
9
75
112
116
86
23
-63
-165
-268
-362
-434
-477
-485
-457
-399
-317
-224
-132
-56
-6
9
-11
-65
-141
-228
-310
-373
-405
-400
-358
-283
-188
-85
9
81
121
121
80
3
-102
-225
-352
-471
-570
-640
-674
-670
-627
-550
-446
-327
-207
-99
-14
39
54
31
-24
-100
-184
-262
-321
-352
-351
-320
-265
-198
-131
-77
-48
-49
-82
-140
-215
-293
-362
-408
-424
-406
-353
-273
-175
-72
21
92
132
134
98
29
-66
-174
-280
-372
-434
-461
-446
-393
-309
-206
-99
-5
62
90
73
11
-88
-210
-339
-456
-544
-591
-589
-541
-454
-341
-220
-106
-15
45
67
52
6
-61
-141
-222
-296
-357
-401
-426
-434
-426
-406
-376
-341
-305
-271
-246
-231
-230
-245
-273
-307
-341
-364
-366
-339
-282
-195
-88
27
133
212
252
244
186
86
-42
-181
-309
-410
-470
-483
-451
-384
-296
-202
-119
-57
-25
-23
-48
-91
-145
-198
-240
-266
-270
-252
-211
-151
-76
7
90
166
226
262
269
245
191
114
24
-67
-144
-194
-206
-175
-99
15
155
303
442
553
620
633
590
496
363
211
60
-69
-157
-191
-166
-87
35
181
327
451
534
561
528
438
303
143
-19
-161
-263
-313
-308
-252
-159
-45
69
164
225
246
224
167
85
-10
-103
-186
-251
-297
-326
-341
-348
-350
-348
-343
-331
-311
-282
-247
-208
-172
-145
-134
-142
-166
-200
-235
-260
-266
-248
-203
-137
-62
6
53
65
35
-37
-143
-272
-403
-517
-594
-623
-597
-518
-397
-249
-94
47
157
221
232
190
103
-16
-149
-278
-384
-453
-475
-448
-375
-266
-135
4
137
252
346
417
473
526
593
692
840
1052
1338
1702
2139
2640
3189
3764
4342
4901
5420
5885
6285
6615
6875
7069
7200
7271
7286
7243
7139
6969
6727
6412
6022
5564
5046
4482
3890
3290
2702
2147
1641
1197
825
530
310
159
69
25
11
8
1
-23
-71
-143
-235
-334
-424
-487
-511
-485
-407
-283
-127
39
193
312
378
381
320
201
39
-143
-324
-479
-592
-648
-646
-587
-483
-350
-205
-67
44
118
144
122
55
-46
-169
-297
-416
-511
-571
-589
-568
-511
-430
-335
-240
-161
-107
-87
-101
-147
-219
-307
-398
-480
-541
-573
-574
-543
-485
-409
-324
-241
-170
-120
-98
-106
-143
-204
-280
-363
-441
-503
-538
-538
-503
-432
-334
-219
-103
-1
70
98
75
1
-116
-261
-417
-561
-673
-737
-743
-689
-584
-442
-283
-130
-2
85
120
102
34
-69
-191
-310
-408
-471
-490
-462
-392
-292
-179
-69
20
78
96
74
18
-62
-153
-243
-320
-378
-415
-431
-430
-417
-396
-373
-350
-328
-307
-287
-269
-254
-245
-243
-246
-252
-256
-250
-227
-182
-112
-22
80
183
270
329
348
324
259
163
52
-55
-143
-196
-207
-178
-115
-32
54
128
176
189
162
100
10
-93
-195
-282
-345
-374
-365
-317
-236
-130
-11
109
216
297
344
352
322
260
174
78
-15
-93
-145
-166
-155
-117
-60
5
67
114
140
141
118
74
18
-41
-93
-130
-143
-129
-87
-21
66
165
268
364
443
496
516
501
452
374
277
173
75
-1
-47
-57
-29
29
109
193
268
316
328
299
230
129
9
-113
-219
-293
-323
-304
-235
-122
24
187
350
500
620
701
737
728
677
595
495
391
299
232
201
211
262
348
458
576
686
770
815
813
761
664
532
383
233
102
5
-46
-47
1
85
191
299
391
448
458
419
333
210
69
-69
-184
-258
-279
-242
-153
-24
126
275
401
487
521
500
427
315
181
45
-76
-166
-214
-218
-179
-108
-18
77
161
222
252
245
205
136
47
-50
-146
-231
-297
-339
-355
-346
-314
-262
-195
-118
-38
38
102
150
176
178
157
117
67
16
-26
-50
-49
-23
25
88
154
211
246
252
225
167
87
-6
-98
-176
-228
-246
-229
-181
-108
-21
68
147
203
230
222
182
116
32
-57
-137
-195
-221
-208
-158
-75
29
140
241
317
356
353
305
219
108
-16
-136
-237
-307
-339
-330
-283
-206
-110
-8
87
163
210
222
198
138
52
-53
-163
-266
-349
-402
-418
-397
-341
-257
-156
-51
47
126
177
197
185
145
87
19
-46
-98
-128
-131
-105
-55
15
93
169
231
270
280
258
206
133
49
-34
-101
-141
-147
-113
-43
57
174
296
408
497
555
580
573
541
496
450
416
408
432
494
593
725
879
1046
1212
1364
1491
1586
1645
1671
1670
1657
1648
1659
1706
1799
1944
2136
2365
2611
2854
3071
3247
3372
3445
3477
3484
3488
3514
3583
3710
3903
4156
4461
4799
5151
5495
5814
6093
6325
6505
6639
6733
6798
6848
6895
6955
7036
7147
7291
7464
7657
7859
8052
8220
8347
8423
8442
8406
8322
8202
8060
7911
7764
7625
7493
7362
7221
7055
6853
6602
6296
5934
5518
5056
4564
4057
3553
3070
2624
2227
1886
1605
1380
1203
1063
945
835
721
592
443
273
86
-112
-310
-498
-666
-807
-913
-984
-1019
-1021
-996
-951
-897
-845
-806
-789
-800
-843
-915
-1009
-1114
-1214
-1295
-1342
-1347
-1311
-1237
-1141
-1042
-962
-918
-925
-986
-1097
-1243
-1400
-1544
-1651
-1702
-1689
-1612
-1484
-1323
-1154
-1001
-885
-819
-810
-851
-934
-1042
-1159
-1267
-1354
-1410
-1432
-1419
-1374
-1305
-1222
-1134
-1052
-987
-949
-944
-978
-1051
-1156
-1285
-1422
-1552
-1657
-1723
-1738
-1701
-1615
-1491
-1348
-1205
-1084
-999
-962
-977
-1039
-1139
-1259
-1384
-1493
-1571
-1610
-1605
-1559
-1480
-1379
-1271
-1173
-1100
-1063
-1069
-1118
-1204
-1318
-1445
-1567
-1667
-1732
-1752
-1727
-1660
-1565
-1457
-1355
-1274
-1230
-1231
-1277
-1364
-1479
-1606
-1728
-1828
-1893
-1916
-1893
-1829
-1733
-1618
-1500
-1397
-1325
-1295
-1313
-1379
-1489
-1629
-1782
-1927
-2046
-2120
-2141
-2106
-2019
-1896
-1754
-1614
-1499
-1424
-1401
-1433
-1513
-1631
-1770
-1913
-2043
-2146
-2215
-2246
-2240
-2204
-2147
-2080
-2013
-1956
-1918
-1904
-1918
-1962
-2031
-2119
-2216
-2312
-2397
-2459
-2493
-2495
-2466
-2410
-2336
-2257
-2185
-2129
-2097
-2093
-2117
-2162
-2222
-2285
-2340
-2378
-2393
-2379
-2337
-2273
-2193
-2110
-2034
-1977
-1948
-1951
-1987
-2050
-2129
-2212
-2284
-2332
-2344
-2315
-2243
-2134
-1998
-1849
-1702
-1574
-1478
-1420
-1404
-1427
-1485
-1564
-1649
-1725
-1778
-1795
-1767
-1691
-1568
-1409
-1229
-1044
-875
-742
-658
-631
-660
-737
-847
-968
-1078
-1156
-1186
-1156
-1068
-929
-757
-572
-396
-252
-156
-117
-138
-211
-323
-455
-585
-692
-760
-777
-740
-653
-529
-385
-240
-112
-16
36
43
9
-55
-137
-218
-285
-325
-331
-301
-239
-155
-59
35
114
164
178
150
80
-27
-161
-308
-452
-574
-658
-693
-675
-604
-489
-343
-184
-33
92
178
215
200
138
39
-83
-209
-322
-405
-445
-437
-379
-279
-152
-16
105
189
217
179
73
-92
-294
-507
-698
-840
-908
-892
-792
-623
-409
-180
31
194
291
314
266
161
17
-140
-290
-412
-494
-529
-518
-465
-379
-273
-159
-51
39
99
118
92
17
-102
-255
-426
-596
-744
-849
-895
-872
-783
-639
-460
-271
-97
38
117
134
90
-1
-122
-249
-363
-443
-478
-466
-410
-321
-213
-103
-6
67
107
110
77
13
-76
-181
-292
-399
-493
-565
-608
-619
-597
-547
-474
-391
-307
-235
-182
-153
-149
-166
-196
-230
-257
-271
-264
-235
-187
-125
-57
9
62
94
98
70
8
-85
-204
-341
-482
-612
-717
-783
-800
-764
-677
-548
-393
-235
-93
12
68
69
17
-73
-184
-293
-379
-426
-424
-374
-286
-177
-67
22
72
73
23
-70
-192
-322
-440
-525
-566
-557
-501
-410
-301
-195
-110
-61
-57
-99
-181
-291
-411
-525
-616
-672
-685
-655
-586
-487
-369
-247
-134
-42
22
52
46
7
-61
-149
-248
-344
-428
-488
-519
-515
-476
-405
-312
-206
-102
-12
49
73
52
-12
-116
-249
-394
-535
-653
-731
-760
-734
-656
-538
-395
-248
-117
-21
29
29
-18
-98
-196
-291
-365
-403
-398
-349
-264
-155
-40
64
142
181
176
129
46
-60
-174
-280
-363
-413
-424
-398
-341
-265
-186
-116
-71
-59
-86
-148
-236
-338
-438
-519
-570
-583
-554
-488
-394
-283
-172
-73
3
48
57
33
-21
-99
-191
-289
-382
-462
-521
-553
-554
-523
-460
-372
-267
-156
-51
34
89
107
86
29
-55
-152
-247
-325
-374
-386
-360
-303
-224
-141
-67
-20
-8
-37
-103
-198
-306
-411
-494
-542
-545
-500
-413
-295
-161
-29
84
164
203
199
155
80
-13
-108
-193
-256
-291
-295
-270
-224
-164
-100
-43
-1
20
17
-10
-58
-122
-194
-267
-333
-383
-411
-413
-387
-334
-261
-173
-81
5
73
114
122
94
32
-56
-161
-266
-359
-424
-450
-433
-372
-275
-157
-36
67
134
150
108
7
-140
-317
-499
-659
-774
-826
-808
-721
-574
-386
-181
14
176
288
339
329
263
154
21
-115
-233
-317
-354
-339
-272
-164
-31
107
226
304
325
279
167
0
-201
-408
-593
-727
-788
-768
-667
-499
-286
-58
154
323
431
467
433
340
205
51
-100
-228
-320
-365
-363
-316
-234
-128
-14
92
177
229
239
205
131
25
-97
-218
-318
-383
-403
-372
-299
-197
-88
8
68
80
36
-57
-187
-332
-468
-572
-627
-622
-557
-442
-291
-127
32
167
265
320
330
301
241
160
67
-28
-115
-186
-233
-252
-240
-195
-124
-34
63
151
215
244
231
175
84
-27
-142
-242
-311
-340
-326
-276
-205
-129
-66
-30
-28
-63
-128
-213
-302
-382
-441
-470
-466
-428
-362
-274
-170
-59
51
154
241
307
344
349
320
260
175
73
-32
-128
-199
-238
-239
-203
-136
-48
46
133
201
240
245
217
158
78
-15
-110
-198
-273
-328
-360
-367
-350
-311
-258
-198
-137
-83
-44
-24
-26
-48
-84
-128
-171
-201
-212
-197
-157
-94
-16
64
135
183
198
175
115
23
-89
-208
-317
-400
-446
-447
-402
-316
-198
-64
71
189
277
324
326
283
202
96
-20
-128
-215
-268
-279
-250
-185
-97
0
87
150
176
160
100
5
-113
-239
-355
-445
-497
-503
-462
-379
-264
-131
4
127
223
282
298
272
210
122
21
-78
-159
-211
-226
-203
-144
-59
39
133
209
256
267
239
177
92
-5
-98
-173
-219
-228
-197
-129
-32
86
209
323
416
477
496
472
404
299
169
28
-104
-212
-279
-295
-256
-164
-31
128
292
440
555
621
634
595
516
412
305
214
156
143
177
252
358
476
586
671
716
714
665
576
460
334
217
125
69
56
86
151
239
334
420
480
503
480
413
306
171
25
-116
-235
-319
-361
-358
-317
-246
-161
-78
-10
33
43
21
-29
-97
-173
-244
-301
-335
-342
-320
-273
-204
-120
-29
60
139
200
237
245
221
166
85
-13
-118
-216
-292
-334
-334
-288
-200
-80
57
190
298
364
374
321
210
52
-134
-324
-492
-616
-680
-673
-595
-453
-262
-40
193
419
628
811
971
1116
1259
1417
1609
1851
2154
2526
2965
3463
4007
4578
5153
5709
6223
6674
7044
7323
7502
7577
7549
7421
7200
6894
6514
6071
5581
5058
4518
3977
3449
2947
2480
2055
1676
1343
1055
810
608
446
323
239
193
181
198
232
276
318
347
356
340
301
242
171
99
35
-11
-34
-33
-9
32
82
130
167
184
173
130
55
-50
-176
-312
-445
-561
-647
-691
-689
-641
-553
-440
-317
-203
-114
-62
-54
-90
-162
-257
-358
-451
-520
-555
-552
-513
-444
-358
-268
-188
-128
-100
-106
-147
-220
-316
-423
-529
-619
-682
-709
-696
-643
-558
-452
-338
-233
-152
-108
-106
-149
-229
-336
-451
-556
-637
-680
-677
-630
-544
-432
-312
-200
-114
-65
-59
-96
-168
-263
-366
-460
-533
-573
-578
-550
-496
-427
-357
-298
-262
-256
-282
-335
-407
-488
-563
-622
-654
-654
-620
-554
-466
-363
-258
-162
-84
-32
-10
-20
-60
-123
-204
-293
-380
-457
-513
-541
-535
-495
-422
-323
-207
-90
15
93
133
127
76
-13
-127
-250
-364
-452
-501
-503
-459
-378
-274
-162
-61
12
48
42
-5
-83
-182
-286
-380
-450
-489
-490
-455
-389
-300
-201
-105
-24
33
58
49
6
-64
-151
-241
-321
-378
-401
-386
-332
-248
-144
-37
56
121
149
135
84
6
-85
-171
-239
-281
-295
-285
-262
-240
-232
-247
-288
-351
-425
-495
-545
-563
-541
-477
-377
-254
-120
10
127
224
298
352
387
407
415
408
387
349
292
219
137
55
-15
-62
-76
-53
5
90
189
284
361
406
411
375
306
215
119
33
-26
-49
-31
26
115
228
349
466
565
639
680
688
665
617
552
482
417
367
340
342
374
432
509
596
682
754
803
821
805
759
687
600
510
431
376
352
365
411
486
577
672
757
821
853
850
813
746
660
567
477
400
342
304
285
279
279
279
272
257
234
204
174
145
123
110
107
113
128
149
180
221
273
334
403
475
542
592
613
599
543
449
325
186
50
-62
-134
-157
-127
-53
51
164
265
336
362
341
274
174
58
-57
-155
-221
-249
-238
-192
-118
-27
70
162
240
296
324
323
292
235
157
67
-24
-106
-165
-194
-186
-141
-65
33
139
237
313
356
360
325
255
164
62
-33
-109
-157
-173
-160
-122
-68
-8
47
89
114
119
106
77
35
-15
-69
-125
-177
-222
-256
-273
-270
-244
-196
-128
-46
39
117
176
206
202
162
93
5
-89
-171
-229
-252
-238
-188
-113
-26
56
119
148
136
82
-9
-125
-250
-368
-461
-517
-526
-486
-401
-282
-144
-4
118
207
253
252
206
126
24
-82
-175
-242
-274
-268
-227
-160
-77
8
81
133
157
148
107
38
-53
-156
-260
-355
-430
-477
-489
-464
-406
-321
-222
-124
-40
16
36
17
-36
-113
-199
-277
-331
-350
-328
-266
-173
-61
51
147
211
233
208
138
30
-102
-241
-370
-473
-536
-554
-522
-446
-337
-210
-83
27
102
132
111
41
-68
-201
-336
-455
-539
-577
-562
-499
-398
-276
-154
-49
21
47
26
-38
-134
-249
-364
-464
-534
-565
-551
-494
-399
-276
-140
-6
111
194
233
220
153
39
-110
-276
-437
-572
-661
-690
-655
-561
-421
-258
-96
40
131
163
135
56
-61
-194
-323
-427
-492
-511
-482
-411
-312
-197
-83
15
85
117
106
52
-42
-165
-304
-444
-568
-659
-702
-691
-626
-515
-373
-219
-76
38
106
121
84
3
-106
-224
-332
-413
-457
-456
-412
-333
-229
-117
-12
72
122
129
90
7
-113
-258
-409
-548
-658
-722
-730
-680
-576
-434
-271
-111
26
121
162
147
81
-23
-146
-268
-371
-441
-472
-462
-416
-346
-264
-185
-121
-82
-74
-98
-151
-225
-311
-396
-468
-516
-533
-512
-454
-364
-251
-127
-7
94
162
190
172
111
14
-105
-231
-345
-434
-485
-492
-455
-383
-287
-183
-88
-16
24
27
-5
-63
-132
-197
-244
-260
-238
-179
-87
26
145
254
339
391
402
372
306
214
107
0
-95
-167
-206
-209
-175
-105
-9
105
223
331
419
475
492
468
408
320
215
109
17
-47
-74
-60
-7
76
175
276
363
420
439
414
346
244
118
-17
-146
-256
-337
-383
-394
-371
-325
-264
-198
-139
-96
-73
-74
-96
-137
-192
-251
-307
-354
-384
-393
-381
-346
-294
-229
-162
-101
-58
-41
-56
-107
-190
-298
-419
-538
-637
-702
-721
-691
-613
-496
-355
-211
-83
11
58
53
-3
-97
-216
-338
-446
-520
-551
-533
-472
-376
-262
-148
-54
7
24
-6
-80
-185
-306
-422
-514
-562
-553
-480
-343
-148
95
371
667
971
1275
1575
1873
2176
2492
2833
3206
3619
4072
4562
5078
5606
6125
6612
7041
7385
7622
7731
7702
7534
7233
6818
6315
5757
5180
4616
4093
3628
3230
2893
2604
2343
2091
1827
1542
1232
903
571
256
-18
-233
-371
-429
-408
-321
-185
-24
138
280
384
442
448
407
327
220
102
-14
-116
-195
-246
-270
-268
-246
-213
-178
-147
-128
-127
-145
-184
-240
-309
-384
-458
-525
-579
-614
-624
-611
-574
-519
-454
-384
-321
-272
-247
-249
-282
-343
-426
-520
-614
-696
-752
-774
-759
-709
-631
-538
-445
-369
-325
-323
-365
-444
-548
-658
-754
-816
-828
-785
-689
-552
-393
-235
-101
-11
23
-2
-80
-200
-342
-488
-619
-722
-788
-814
-801
-755
-686
-604
-517
-438
-373
-330
-312
-321
-355
-409
-474
-538
-590
-618
-615
-579
-511
-419
-318
-222
-147
-106
-107
-149
-229
-334
-448
-557
-643
-696
-708
-678
-612
-519
-412
-305
-211
-146
-114
-118
-155
-218
-299
-385
-464
-527
-566
-578
-561
-521
-462
-392
-319
-253
-199
-165
-155
-171
-216
-285
-373
-473
-573
-660
-719
-740
-714
-640
-524
-377
-219
-68
52
128
149
114
33
-81
-206
-319
-401
-440
-431
-376
-286
-180
-75
10
59
65
24
-57
-168
-294
-417
-521
-592
-618
-595
-526
-418
-286
-147
-21
75
128
128
76
-21
-148
-287
-415
-513
-565
-563
-507
-404
-269
-122
15
122
183
189
137
34
-107
-269
-428
-563
-657
-696
-675
-597
-474
-322
-164
-21
86
145
147
94
-5
-136
-280
-417
-529
-605
-635
-619
-561
-471
-362
-250
-151
-79
-46
-59
-119
-222
-356
-506
-651
-769
-840
-849
-791
-669
-494
-287
-75
117
264
348
364
314
213
82
-54
-170
-246
-272
-245
-172
-66
54
170
263
319
332
302
232
133
19
-96
-197
-272
-312
-313
-275
-204
-108
1
107
196
255
275
251
184
82
-45
-180
-305
-403
-460
-467
-421
-327
-195
-44
107
237
327
365
343
263
135
-25
-195
-351
-473
-544
-555
-504
-399
-256
-94
63
194
281
313
289
212
96
-42
-180
-301
-388
-427
-414
-354
-256
-135
-10
101
180
217
204
144
44
-81
-216
-340
-438
-498
-511
-477
-402
-299
-184
-71
24
89
116
104
56
-19
-109
-201
-280
-337
-363
-354
-309
-237
-144
-43
53
132
181
193
164
98
2
-111
-224
-319
-380
-395
-361
-278
-158
-17
122
237
307
320
270
162
10
-166
-339
-487
-587
-626
-601
-517
-387
-229
-67
80
196
267
290
265
199
102
-14
-137
-253
-352
-426
-468
-474
-445
-384
-298
-198
-97
-8
54
80
67
16
-65
-164
-263
-346
-396
-407
-373
-299
-196
-79
35
128
188
207
182
119
25
-88
-206
-316
-405
-466
-491
-479
-433
-360
-268
-168
-72
5
54
66
39
-24
-116
-222
-326
-411
-459
-461
-412
-318
-190
-48
89
197
259
265
213
109
-31
-186
-331
-444
-508
-512
-457
-350
-209
-54
90
201
263
266
209
100
-46
-207
-362
-488
-569
-595
-561
-476
-352
-209
-68
49
124
147
114
30
-91
-231
-368
-481
-552
-569
-529
-438
-307
-154
-1
129
218
252
226
143
17
-135
-290
-426
-522
-565
-549
-479
-366
-230
-94
20
92
111
75
-12
-134
-272
-402
-505
-565
-573
-529
-438
-313
-171
-31
94
189
246
262
238
178
92
-10
-117
-218
-302
-362
-391
-387
-352
-292
-216
-136
-65
-14
9
-3
-47
-117
-205
-295
-373
-426
-445
-426
-368
-278
-171
-59
41
115
154
151
107
27
-78
-192
-299
-384
-433
-440
-402
-327
-224
-112
-6
76
119
115
62
-34
-160
-301
-436
-547
-616
-632
-592
-501
-367
-208
-41
114
237
317
346
325
260
163
49
-64
-163
-234
-272
-275
-247
-196
-133
-69
-16
17
26
9
-34
-97
-174
-255
-331
-393
-434
-446
-426
-377
-301
-207
-103
-3
80
135
155
137
82
-1
-100
-200
-287
-346
-367
-348
-290
-202
-99
5
93
149
166
140
73
-23
-136
-246
-334
-386
-389
-338
-235
-88
85
264
429
561
643
668
637
556
440
310
183
80
15
-5
20
83
173
274
369
443
486
491
457
389
294
186
77
-18
-88
-123
-118
-72
12
126
257
390
508
596
644
644
595
503
377
235
93
-30
-121
-169
-171
-130
-56
39
136
219
272
284
250
172
55
-86
-235
-374
-486
-559
-584
-561
-494
-394
-276
-157
-53
22
60
57
17
-51
-136
-223
-298
-350
-371
-358
-314
-245
-161
-75
1
57
82
74
33
-36
-122
-212
-293
-353
-380
-370
-323
-243
-142
-33
68
145
187
186
141
56
-56
-181
-299
-391
-439
-433
-365
-237
-55
168
416
673
924
1160
1380
1587
1794
2018
2279
2592
2971
3421
3939
4513
5119
5729
6313
6837
7274
7600
7799
7865
7798
7607
7309
6923
6472
5982
5474
4970
4485
4030
3608
3220
2861
2522
2194
1871
1549
1231
923
635
379
168
15
-73
-95
-57
30
151
285
414
519
586
606
575
497
381
237
83
-66
-196
-293
-349
-362
-334
-274
-192
-102
-21
37
61
44
-14
-108
-227
-354
-473
-566
-619
-622
-574
-480
-354
-214
-84
16
66
56
-15
-140
-302
-477
-637
-758
-820
-812
-734
-597
-422
-233
-59
76
155
169
119
16
-123
-275
-421
-539
-618
-650
-634
-578
-492
-388
-283
-190
-120
-81
-79
-115
-182
-274
-378
-482
-570
-632
-660
-650
-605
-531
-440
-347
-266
-207
-179
-184
-216
-270
-334
-395
-443
-469
-468
-441
-390
-321
-244
-168
-103
-56
-34
-42
-78
-141
-224
-317
-409
-485
-535
-548
-520
-454
-355
-239
-121
-19
50
75
53
-15
-117
-239
-362
-469
-545
-582
-576
-531
-455
-361
-263
-175
-106
-65
-56
-77
-124
-189
-263
-336
-398
-440
-457
-444
-403
-338
-256
-166
-80
-9
40
60
49
11
-49
-122
-196
-259
-303
-320
-306
-263
-196
-113
-26
53
113
146
148
118
59
-20
-108
-191
-258
-298
-305
-277
-218
-137
-45
45
118
164
175
149
88
0
-103
-208
-300
-368
-402
-400
-362
-295
-209
-116
-30
36
73
74
40
-25
-111
-206
-295
-363
-399
-396
-352
-273
-169
-56
49
127
164
151
87
-21
-158
-305
-440
-541
-592
-585
-518
-399
-242
-69
101
245
349
401
400
348
255
136
5
-119
-222
-293
-323
-311
-257
-169
-57
66
184
282
349
376
358
300
208
98
-15
-113
-183
-211
-192
-126
-22
108
245
370
463
511
505
446
340
203
55
-81
-182
-234
-226
-159
-45
99
249
379
468
500
469
378
241
78
-88
-234
-340
-393
-390
-336
-241
-122
5
121
212
269
288
269
218
141
50
-44
-132
-205
-254
-276
-268
-231
-170
-95
-13
62
119
149
145
106
35
-59
-163
-263
-342
-388
-391
-348
-266
-154
-29
90
185
241
250
210
126
11
-117
-240
-340
-401
-417
-387
-318
-220
-109
-1
89
148
172
159
112
40
-45
-132
-209
-266
-298
-301
-277
-232
-174
-114
-61
-24
-11
-24
-64
-125
-200
-280
-352
-406
-434
-430
-392
-324
-234
-132
-30
58
123
157
156
121
58
-25
-117
-206
-282
-337
-366
-368
-346
-305
-254
-200
-151
-114
-93
-91
-106
-137
-177
-220
-259
-289
-306
-308
-292
-261
-218
-168
-114
-62
-17
19
40
44
29
-4
-56
-121
-194
-266
-327
-367
-378
-356
-302
-221
-126
-33
41
80
75
23
-68
-185
-306
-409
-473
-483
-435
-333
-194
-39
104
212
267
258
188
66
-86
-247
-392
-502
-562
-569
-524
-438
-324
-200
-83
14
78
105
94
47
-28
-121
-221
-314
-389
-435
-448
-424
-366
-281
-181
-79
7
64
85
62
-1
-97
-214
-336
-447
-530
-576
-578
-537
-461
-360
-250
-148
-66
-16
-3
-29
-87
-169
-262
-354
-432
-486
-508
-496
-452
-381
-293
-199
-112
-44
-5
-3
-40
-115
-221
-346
-477
-597
-687
-735
-729
-668
-555
-403
-233
-69
65
147
164
110
-7
-168
-350
-522
-657
-732
-736
-669
-544
-384
-216
-71
29
67
39
-48
-178
-328
-471
-586
-656
-673
-636
-555
-442
-317
-195
-93
-19
20
25
-2
-53
-120
-194
-266
-328
-375
-402
-406
-387
-347
-289
-220
-147
-79
-26
5
8
-19
-74
-151
-241
-332
-411
-469
-498
-495
-463
-408
-339
-270
-212
-174
-163
-180
-223
-286
-356
-424
-477
-507
-509
-480
-424
-349
-263
-179
-107
-60
-43
-60
-108
-181
-270
-364
-449
-514
-549
-550
-517
-455
-374
-283
-196
-125
-80
-68
-89
-140
-216
-306
-398
-481
-543
-576
-575
-540
-475
-389
-294
-202
-126
-79
-67
-91
-150
-233
-328
-420
-494
-536
-538
-498
-419
-309
-184
-58
53
134
179
183
151
91
15
-61
-124
-162
-167
-137
-76
9
107
204
287
345
371
361
316
241
146
42
-58
-140
-194
-212
-193
-137
-50
58
172
279
363
414
424
392
320
218
98
-24
-134
-217
-266
-277
-250
-192
-116
-33
42
95
116
99
43
-47
-161
-287
-409
-511
-581
-610
-595
-540
-453
-350
-248
-164
-110
-97
-126
-196
-293
-405
-513
-602
-658
-673
-646
-582
-492
-387
-283
-195
-134
-107
-118
-164
-238
-329
-425
-514
-583
-624
-629
-597
-531
-438
-328
-213
-107
-23
28
39
6
-67
-172
-297
-427
-545
-634
-683
-682
-631
-536
-409
-264
-119
9
110
179
216
232
245
275
344
472
672
953
1313
1744
2231
2754
3292
3823
4330
4801
5226
5603
5933
6221
6470
6682
6856
6989
7072
7094
7043
6907
6674
6342
5914
5399
4815
4186
3539
2901
2300
1756
1286
898
593
364
201
93
24
-19
-47
-69
-93
-122
-158
-202
-251
-304
-355
-399
-430
-444
-436
-406
-354
-286
-210
-137
-79
-46
-46
-82
-151
-245
-353
-460
-550
-610
-631
-610
-554
-472
-379
-292
-229
-203
-219
-280
-379
-503
-635
-758
-854
-908
-914
-870
-783
-665
-533
-406
-299
-227
-198
-216
-275
-367
-478
-592
-695
-775
-822
-833
-810
-756
-682
-598
-515
-444
-393
-368
-369
-395
-440
-498
-558
-609
-642
-652
-635
-593
-531
-460
-391
-339
-314
-324
-369
-446
-544
-650
-747
-819
-854
-845
-792
-702
-586
-459
-338
-240
-175
-153
-173
-233
-325
-435
-553
-662
-750
-807
-827
-806
-746
-653
-537
-411
-290
-190
-127
-110
-146
-232
-359
-513
-673
-817
-923
-976
-966
-891
-762
-595
-413
-239
-96
-1
34
8
-70
-186
-321
-455
-568
-645
-677
-663
-604
-512
-400
-283
-177
-95
-48
-41
-75
-145
-242
-353
-461
-551
-611
-630
-605
-540
-442
-327
-210
-111
-43
-19
-41
-107
-206
-323
-440
-538
-601
-619
-589
-515
-408
-284
-164
-65
-5
10
-26
-106
-217
-343
-461
-554
-603
-600
-541
-433
-288
-124
37
177
278
326
318
255
147
8
-143
-288
-408
-490
-525
-509
-446
-346
-224
-95
21
110
160
163
121
40
-67
-184
-293
-377
-423
-423
-376
-289
-174
-47
71
165
220
228
188
105
-7
-133
-253
-348
-405
-416
-380
-302
-194
-74
43
139
204
229
213
163
88
3
-79
-146
-187
-199
-182
-137
-73
5
87
166
235
286
317
325
308
268
207
131
47
-34
-104
-152
-172
-161
-118
-52
29
109
176
215
218
181
108
7
-107
-219
-312
-372
-392
-370
-309
-219
-115
-11
78
139
164
151
102
26
-67
-164
-250
-314
-346
-341
-300
-228
-136
-40
46
105
126
101
32
-76
-207
-344
-467
-558
-602
-592
-528
-420
-285
-142
-10
91
147
154
111
26
-88
-215
-336
-437
-503
-527
-506
-445
-351
-237
-118
-9
75
126
135
102
30
-70
-188
-308
-416
-500
-551
-566
-544
-492
-419
-337
-256
-188
-142
-122
-132
-167
-224
-294
-367
-432
-478
-496
-482
-434
-356
-257
-147
-42
42
93
100
61
-22
-139
-274
-409
-524
-602
-631
-609
-536
-425
-292
-158
-41
41
79
68
11
-80
-192
-308
-412
-490
-534
-540
-510
-451
-372
-286
-202
-132
-85
-64
-72
-106
-161
-231
-304
-370
-419
-445
-440
-404
-340
-256
-162
-74
-7
28
20
-31
-122
-241
-372
-493
-586
-632
-624
-561
-450
-310
-162
-32
57
89
60
-28
-162
-321
-479
-613
-702
-736
-713
-638
-527
-397
-268
-158
-77
-33
-27
-54
-107
-178
-257
-336
-408
-467
-509
-532
-533
-512
-470
-412
-342
-271
-207
-158
-132
-131
-156
-202
-261
-323
-379
-421
-441
-438
-416
-379
-336
-293
-260
-241
-241
-260
-298
-351
-415
-485
-553
-613
-659
-684
-685
-658
-607
-535
-449
-360
-279
-218
-187
-189
-223
-284
-361
-441
-509
-550
-556
-523
-454
-360
-254
-152
-71
-23
-16
-51
-124
-222
-334
-444
-539
-607
-643
-645
-615
-560
-490
-414
-343
-285
-246
-231
-241
-275
-328
-391
-456
-510
-546
-556
-536
-486
-412
-323
-231
-153
-99
-79
-97
-150
-233
-333
-437
-531
-603
-644
-649
-619
-559
-477
-383
-290
-210
-154
-130
-141
-189
-269
-375
-492
-606
-700
-761
-777
-744
-663
-545
-404
-260
-135
-46
-5
-16
-77
-175
-293
-410
-506
-565
-578
-544
-468
-363
-246
-134
-46
4
9
-35
-122
-240
-374
-506
-621
-703
-741
-733
-680
-592
-482
-369
-267
-192
-152
-152
-188
-254
-338
-426
-504
-563
-595
-599
-575
-529
-470
-405
-344
-292
-255
-236
-236
-253
-283
-319
-356
-385
-400
-395
-369
-323
-262
-190
-117
-52
-4
23
25
4
-38
-93
-152
-207
-249
-273
-274
-251
-206
-142
-68
8
78
130
157
151
110
37
-62
-174
-282
-368
-415
-411
-351
-238
-85
87
253
387
468
483
427
310
152
-24
-189
-318
-394
-412
-371
-285
-172
-52
55
131
167
162
118
43
-50
-150
-246
-327
-389
-427
-439
-428
-395
-347
-294
-246
-214
-207
-233
-294
-389
-507
-636
-756
-850
-902
-900
-841
-729
-578
-405
-232
-81
26
78
69
3
-111
-253
-405
-543
-649
-708
-713
-665
-572
-448
-313
-187
-92
-43
-49
-111
-222
-369
-531
-689
-821
-911
-948
-927
-851
-734
-590
-438
-298
-185
-111
-82
-97
-146
-217
-292
-352
-377
-352
-265
-111
109
387
713
1074
1454
1843
2232
2615
2993
3366
3741
4122
4512
4913
5321
5729
6126
6497
6822
7081
7254
7323
7276
7105
6810
6401
5897
5321
4705
4080
3479
2927
2443
2039
1712
1454
1246
1070
907
742
563
369
163
-43
-237
-402
-526
-598
-614
-575
-491
-373
-239
-108
0
71
91
54
-39
-178
-350
-533
-704
-842
-926
-944
-894
-781
-619
-430
-238
-69
56
120
119
57
-55
-199
-353
-497
-613
-688
-717
-703
-652
-577
-492
-412
-347
-308
-300
-324
-379
-460
-560
-670
-781
-881
-961
-1010
-1022
-993
-923
-817
-684
-540
-402
-289
-216
-193
-221
-295
-403
-526
-643
-736
-788
-793
-749
-666
-558
-445
-347
-280
-257
-281
-350
-454
-577
-699
-804
-875
-901
-876
-803
-691
-556
-420
-304
-227
-203
-240
-337
-483
-661
-843
-1005
-1123
-1178
-1163
-1078
-935
-754
-559
-376
-228
-131
-95
-119
-194
-303
-426
-544
-639
-697
-712
-682
-614
-518
-408
-299
-207
-144
-118
-134
-191
-285
-405
-540
-675
-797
-893
-950
-962
-925
-844
-728
-589
-445
-310
-202
-134
-113
-135
-196
-280
-372
-451
-501
-512
-479
-408
-309
-200
-98
-21
19
13
-35
-118
-222
-330
-428
-502
-543
-549
-523
-473
-408
-339
-277
-230
-204
-199
-214
-244
-286
-334
-379
-418
-443
-450
-436
-401
-347
-278
-201
-126
-61
-16
2
-12
-59
-135
-232
-336
-432
-506
-546
-545
-503
-426
-325
-217
-119
-46
-11
-16
-61
-137
-232
-332
-424
-499
-553
-586
-604
-611
-617
-625
-636
-649
-658
-658
-644
-612
-564
-502
-433
-363
-298
-242
-198
-162
-131
-100
-65
-26
14
50
72
75
51
-1
-77
-167
-258
-335
-383
-392
-357
-283
-179
-64
44
126
167
157
98
0
-121
-243
-346
-410
-424
-382
-289
-156
-1
155
291
392
446
450
404
319
207
82
-39
-144
-222
-265
-272
-244
-186
-106
-14
77
156
211
233
216
160
69
-45
-168
-284
-375
-427
-429
-381
-289
-169
-41
71
145
163
115
3
-162
-359
-563
-743
-876
-942
-930
-843
-693
-499
-289
-87
82
201
260
257
200
103
-17
-140
-248
-327
-368
-368
-330
-262
-179
-94
-20
28
45
26
-25
-103
-198
-297
-390
-467
-521
-549
-550
-527
-485
-431
-370
-311
-258
-217
-190
-180
-187
-209
-243
-280
-315
-337
-340
-317
-266
-192
-101
-7
78
138
161
139
72
-35
-170
-315
-451
-559
-624
-634
-590
-495
-365
-216
-69
55
139
172
153
84
-22
-149
-281
-397
-481
-524
-520
-473
-390
-285
-173
-73
3
43
43
4
-68
-163
-267
-365
-445
-497
-514
-496
-446
-370
-278
-182
-92
-18
32
50
33
-18
-101
-212
-340
-475
-603
-711
-787
-823
-812
-757
-664
-546
-418
-297
-199
-135
-108
-117
-155
-206
-257
-291
-299
-274
-217
-137
-47
40
108
143
140
96
15
-92
-213
-333
-435
-508
-543
-536
-488
-405
-300
-184
-73
18
74
86
48
-40
-172
-335
-513
-684
-828
-927
-967
-940
-850
-705
-525
-334
-157
-20
61
75
22
-86
-231
-387
-529
-633
-683
-672
-601
-485
-342
-195
-67
22
60
41
-30
-141
-275
-411
-532
-621
-667
-665
-618
-534
-425
-307
-196
-106
-47
-27
-46
-100
-181
-277
-376
-465
-535
-579
-593
-577
-536
-478
-411
-344
-289
-250
-233
-240
-268
-312
-364
-415
-455
-479
-480
-458
-414
-353
-286
-222
-170
-138
-133
-154
-199
-261
-330
-398
-453
-487
-496
-478
-436
-377
-310
-247
-199
-176
-186
-230
-307
-407
-521
-632
-725
-788
-807
-777
-700
-582
-437
-282
-136
-17
59
83
55
-21
-131
-259
-385
-490
-559
-582
-557
-488
-388
-273
-164
-77
-29
-27
-74
-165
-286
-422
-554
-664
-738
-769
-751
-688
-589
-467
-337
-214
-111
-37
0
1
-33
-96
-179
-273
-366
-448
-510
-544
-546
-514
-450
-359
-252
-142
-42
30
62
44
-29
-153
-319
-506
-692
-853
-966
-1015
-993
-900
-750
-564
-369
-192
-57
19
29
-22
-121
-246
-371
-474
-534
-541
-494
-400
-276
-142
-19
73
120
115
61
-34
-156
-288
-410
-508
-569
-590
-569
-513
-432
-337
-240
-152
-81
-32
-6
-2
-16
-41
-69
-94
-110
-110
-90
-51
7
80
160
238
305
352
370
356
308
232
136
34
-62
-137
-180
-185
-149
-77
19
127
229
309
354
354
308
219
97
-42
-181
-302
-391
-437
-434
-386
-300
-190
-72
37
121
170
177
142
70
-28
-137
-244
-335
-397
-425
-417
-376
-310
-232
-155
-94
-59
-59
-99
-176
-280
-400
-520
-624
-696
-726
-711
-651
-556
-439
-315
-203
-117
-68
-61
-94
-161
-249
-346
-438
-510
-553
-562
-538
-484
-409
-324
-242
-176
-136
-130
-161
-228
-325
-441
-561
-669
-751
-794
-789
-737
-640
-509
-359
-205
-63
56
145
205
242
266
294
342
425
559
753
1013
1341
1733
2181
2674
3197
3733
4266
4779
5258
5692
6071
6394
6658
6866
7020
7122
7170
7161
7088
6944
6720
6414
6027
5565
5045
4484
3906
3334
2789
2289
1843
1456
1129
857
636
459
319
212
133
76
36
6
-19
-47
-81
-120
-162
-200
-225
-228
-203
-148
-66
34
134
218
269
273
222
117
-33
-213
-401
-576
-718
-811
-848
-827
-757
-650
-525
-401
-295
-220
-184
-189
-228
-292
-368
-443
-504
-542
-552
-535
-496
-444
-388
-341
-310
-303
-323
-369
-436
-519
-610
-699
-778
-840
-879
-891
-874
-829
-759
-671
-573
-475
-388
-322
-283
-275
-298
-344
-405
-469
-523
-556
-562
-538
-488
-420
-347
-280
-230
-209
-219
-261
-327
-409
-496
-575
-638
-678
-693
-683
-653
-610
-562
-517
-480
-457
-448
-454
-474
-503
-536
-568
-592
-604
-601
-580
-541
-487
-423
-357
-297
-253
-234
-243
-284
-354
-445
-547
-645
-724
-773
-782
-746
-669
-558
-428
-295
-176
-88
-43
-45
-95
-186
-305
-436
-560
-658
-717
-726
-683
-595
-472
-330
-191
-73
6
35
11
-61
-171
-298
-423
-526
-592
-609
-578
-505
-402
-288
-180
-97
-48
-39
-70
-134
-220
-314
-402
-473
-519
-534
-519
-475
-407
-323
-232
-143
-65
-7
25
27
-2
-58
-136
-224
-313
-390
-444
-468
-459
-420
-357
-281
-203
-137
-93
-78
-98
-150
-229
-325
-425
-517
-587
-625
-623
-579
-498
-386
-260
-135
-30
41
65
40
-33
-140
-266
-388
-486
-543
-548
-500
-408
-287
-159
-46
30
57
28
-52
-170
-306
-439
-548
-615
-631
-591
-502
-377
-232
-86
42
138
192
200
164
90
-9
-120
-229
-322
-386
-415
-406
-359
-279
-177
-63
48
143
212
246
243
201
128
33
-70
-168
-247
-294
-303
-272
-201
-100
19
143
257
345
397
407
374
303
204
88
-28
-132
-212
-258
-270
-247
-198
-133
-64
-4
37
49
32
-15
-84
-163
-241
-305
-343
-351
-324
-267
-186
-92
4
88
153
193
205
191
154
101
38
-28
-92
-149
-193
-223
-238
-235
-215
-180
-133
-81
-32
6
27
26
1
-45
-103
-165
-217
-248
-250
-219
-158
-77
11
91
147
167
147
87
-6
-117
-231
-328
-396
-424
-408
-353
-267
-163
-58
36
105
142
145
116
60
-13
-96
-178
-252
-311
-349
-365
-359
-333
-291
-239
-184
-134
-95
-75
-75
-96
-135
-185
-235
-276
-298
-293
-259
-198
-116
-24
64
133
171
172
133
60
-39
-149
-254
-341
-396
-413
-391
-332
-246
-146
-46
40
100
125
108
50
-44
-164
-299
-433
-549
-632
-671
-658
-592
-480
-332
-167
-3
140
245
300
302
254
168
58
-55
-152
-217
-243
-225
-169
-88
4
88
148
171
151
87
-14
-141
-276
-403
-505
-571
-591
-564
-492
-385
-257
-126
-7
85
140
150
116
43
-56
-166
-272
-357
-409
-420
-389
-320
-223
-113
-7
80
131
139
99
13
-111
-257
-408
-545
-650
-708
-710
-656
-550
-406
-242
-78
64
166
216
210
149
47
-82
-218
-340
-432
-481
-482
-439
-359
-258
-151
-57
12
45
39
-3
-76
-167
-264
-353
-422
-463
-473
-451
-403
-336
-262
-193
-140
-112
-117
-156
-227
-324
-435
-547
-645
-715
-743
-725
-657
-546
-402
-242
-85
50
147
195
190
136
42
-76
-201
-312
-394
-436
-433
-388
-310
-211
-107
-15
54
88
83
42
-29
-120
-218
-310
-382
-426
-437
-416
-369
-305
-235
-172
-129
-112
-125
-167
-231
-307
-383
-446
-487
-498
-478
-428
-356
-272
-185
-107
-47
-12
-4
-22
-63
-120
-185
-249
-304
-344
-364
-364
-344
-307
-260
-209
-162
-126
-105
-104
-125
-168
-229
-302
-380
-453
-512
-549
-556
-531
-473
-386
-278
-162
-54
32
84
93
57
-20
-127
-249
-366
-462
-521
-535
-501
-425
-319
-199
-85
6
59
67
27
-55
-166
-291
-412
-511
-574
-592
-562
-487
-378
-249
-118
-4
79
120
114
65
-20
-125
-235
-330
-397
-425
-410
-355
-270
-166
-59
37
107
144
143
105
37
-51
-146
-235
-307
-351
-360
-331
-266
-172
-58
63
178
272
337
364
352
302
226
133
40
-41
-94
-112
-90
-30
59
167
277
373
443
476
467
419
339
237
129
30
-47
-91
-98
-69
-10
68
154
234
296
330
329
292
222
125
11
-106
-214
-302
-360
-380
-360
-303
-217
-113
-5
92
162
196
186
133
40
-81
-217
-353
-473
-565
-621
-638
-618
-568
-497
-416
-338
-272
-227
-206
-210
-236
-278
-326
-371
-401
-411
-394
-350
-283
-200
-111
-29
33
65
61
20
-54
-149
-252
-348
-423
-466
-473
-443
-383
-306
-224
-152
-103
-86
-103
-155
-231
-322
-414
-493
-546
-562
-535
-461
-342
-183
7
220
444
671
894
1113
1327
1545
1776
2034
2331
2677
3081
3543
4057
4610
5182
5748
6281
6756
7146
7434
7604
7650
7573
7381
7089
6715
6284
5817
5339
4869
4421
4004
3617
3256
2909
2564
2210
1837
1445
1041
640
261
-71
-334
-512
-594
-584
-492
-341
-157
30
194
314
379
386
340
257
152
46
-45
-111
-143
-141
-110
-61
-5
44
76
79
52
-6
-92
-197
-310
-421
-518
-593
-639
-653
-638
-597
-536
-466
-396
-335
-293
-276
-289
-333
-405
-500
-609
-719
-818
-891
-928
-923
-873
-784
-666
-535
-408
-302
-230
-200
-213
-262
-336
-418
-492
-544
-563
-549
-503
-435
-357
-285
-230
-203
-207
-243
-306
-385
-471
-553
-621
-668
-688
-679
-645
-589
-518
-442
-372
-316
-283
-282
-312
-374
-459
-556
-651
-730
-779
-790
-757
-686
-583
-465
-347
-248
-180
-153
-170
-226
-312
-412
-510
-590
-639
-650
-620
-554
-460
-350
-239
-141
-70
-35
-40
-85
-165
-268
-382
-493
-584
-645
-667
-649
-592
-506
-402
-295
-200
-129
-91
-91
-125
-189
-275
-370
-462
-539
-593
-616
-607
-564
-493
-400
-296
-193
-103
-38
-6
-14
-63
-146
-254
-373
-485
-574
-624
-627
-580
-485
-357
-210
-67
51
126
145
103
4
-140
-309
-479
-624
-725
-764
-735
-642
-498
-324
-145
12
125
179
168
98
-18
-159
-299
-416
-489
-509
-474
-391
-274
-142
-17
84
145
159
125
47
-62
-187
-312
-422
-503
-547
-548
-510
-439
-346
-247
-157
-89
-55
-63
-113
-198
-307
-427
-541
-633
-689
-701
-669
-595
-487
-359
-226
-100
3
75
109
102
59
-13
-105
-202
-291
-358
-392
-387
-341
-259
-152
-34
78
168
223
235
203
135
41
-61
-153
-221
-252
-241
-189
-104
4
118
225
311
367
386
369
318
241
146
44
-53
-134
-188
-209
-194
-144
-64
34
138
230
296
323
304
238
130
-4
-147
-278
-379
-434
-435
-381
-282
-153
-15
109
200
244
233
169
62
-72
-214
-344
-442
-496
-499
-453
-363
-243
-109
21
131
207
240
226
166
69
-56
-192
-321
-428
-497
-517
-486
-406
-288
-150
-12
100
168
174
114
-9
-180
-378
-572
-734
-840
-871
-821
-696
-513
-296
-75
121
269
351
362
308
200
59
-91
-227
-330
-389
-398
-359
-281
-177
-64
41
123
172
181
150
86
-3
-104
-203
-286
-344
-369
-361
-322
-261
-187
-112
-49
-9
3
-16
-65
-138
-227
-318
-400
-460
-489
-483
-439
-362
-258
-140
-22
81
156
194
188
142
60
-45
-158
-263
-345
-392
-399
-365
-295
-202
-101
-9
60
92
82
27
-67
-187
-318
-442
-543
-607
-623
-589
-509
-394
-260
-125
-8
78
119
112
59
-31
-144
-263
-370
-450
-492
-492
-451
-374
-272
-160
-50
42
107
137
130
85
7
-95
-210
-328
-436
-521
-575
-590
-566
-505
-415
-307
-196
-98
-27
8
1
-48
-130
-232
-340
-435
-502
-530
-516
-461
-374
-268
-159
-63
6
37
27
-20
-97
-192
-290
-377
-442
-478
-483
-460
-416
-360
-303
-253
-220
-206
-211
-234
-270
-313
-358
-398
-431
-453
-461
-454
-432
-395
-346
-286
-221
-158
-105
-71
-61
-79
-127
-198
-285
-373
-448
-497
-508
-477
-407
-305
-187
-70
26
85
96
55
-33
-156
-295
-431
-543
-613
-630
-591
-503
-380
-241
-109
-7
48
46
-14
-124
-268
-423
-566
-673
-726
-716
-643
-516
-353
-177
-13
117
196
215
176
84
-44
-190
-335
-459
-550
-598
-600
-559
-482
-383
-275
-174
-91
-38
-21
-44
-104
-192
-298
-406
-501
-569
-602
-595
-549
-472
-377
-280
-197
-142
-124
-146
-202
-284
-375
-461
-525
-557
-549
-500
-417
-311
-195
-84
8
71
97
85
36
-41
-138
-242
-341
-422
-476
-496
-481
-432
-358
-267
-172
-87
-22
14
14
-22
-90
-183
-288
-393
-482
-543
-567
-550
-492
-400
-285
-162
-47
44
97
105
65
-19
-134
-266
-394
-503
-576
-604
-584
-520
-422
-305
-186
-82
-5
36
37
2
-59
-135
-212
-275
-313
-318
-289
-227
-141
-41
61
150
217
253
256
227
173
103
29
-38
-88
-113
-110
-78
-21
56
144
234
318
386
431
447
432
387
317
229
135
50
-14
-43
-31
25
120
242
371
487
568
596
561
462
310
122
-78
-263
-407
-492
-508
-456
-347
-203
-48
92
193
240
224
149
26
-129
-292
-441
-558
-628
-644
-606
-522
-405
-272
-142
-32
45
78
63
4
-92
-211
-337
-452
-543
-594
-598
-554
-468
-353
-224
-101
-1
61
75
41
-37
-146
-269
-387
-481
-539
-551
-515
-438
-331
-210
-93
5
70
95
78
26
-54
-147
-238
-312
-355
-358
-313
-218
-77
108
326
570
831
1101
1375
1652
1933
2223
2529
2858
3218
3617
4056
4535
5047
5579
6110
6618
7075
7453
7724
7867
7867
7720
7430
7016
6502
5924
5316
4713
4143
3629
3181
2798
2470
2180
1911
1644
1365
1069
760
449
152
-112
-325
-474
-552
-561
-511
-417
-300
-177
-65
21
75
94
81
43
-12
-75
-138
-195
-239
-267
-278
-271
-248
-211
-165
-117
-74
-44
-34
-47
-85
-146
-224
-309
-391
-456
-497
-505
-480
-424
-343
-252
-164
-95
-56
-57
-100
-182
-295
-424
-553
-665
-746
-784
-777
-727
-644
-542
-436
-343
-277
-244
-247
-281
-339
-408
-474
-526
-554
-554
-526
-473
-404
-327
-254
-193
-152
-135
-146
-183
-242
-316
-397
-474
-537
-575
-584
-559
-502
-421
-327
-234
-155
-103
-88
-114
-178
-270
-380
-491
-586
-651
-675
-654
-591
-493
-374
-253
-145
-67
-31
-40
-94
-182
-288
-394
-481
-536
-550
-521
-459
-377
-294
-227
-194
-203
-255
-343
-454
-570
-671
-741
-768
-746
-678
-572
-438
-292
-148
-18
86
157
191
186
144
69
-31
-145
-261
-366
-446
-490
-491
-446
-360
-244
-112
18
130
207
240
225
166
71
-46
-167
-276
-358
-402
-406
-369
-298
-203
-98
3
85
139
158
140
88
12
-79
-171
-250
-306
-330
-319
-273
-198
-103
0
98
178
229
245
222
161
68
-45
-166
-278
-367
-420
-429
-390
-309
-195
-63
68
180
259
293
278
220
129
21
-85
-172
-228
-243
-218
-157
-70
28
125
207
263
289
282
242
175
87
-15
-123
-228
-321
-392
-435
-444
-417
-356
-266
-158
-47
55
135
184
198
180
139
88
43
17
21
58
127
217
315
406
474
510
506
464
390
296
196
105
36
-1
-2
33
97
184
280
374
452
504
522
501
443
353
241
120
6
-87
-145
-160
-130
-61
36
143
241
311
337
311
231
105
-51
-217
-368
-482
-541
-535
-463
-335
-167
15
188
325
408
427
380
276
131
-32
-190
-319
-402
-431
-403
-328
-220
-96
23
121
184
206
185
126
37
-69
-179
-283
-369
-430
-461
-460
-428
-368
-287
-195
-100
-16
49
86
90
61
2
-78
-167
-253
-323
-366
-378
-356
-306
-236
-157
-82
-24
9
11
-17
-73
-147
-229
-307
-370
-407
-412
-384
-323
-237
-137
-35
57
126
164
166
131
65
-23
-122
-218
-300
-358
-383
-374
-334
-268
-186
-101
-25
31
57
51
12
-55
-141
-234
-319
-385
-420
-420
-383
-315
-224
-124
-30
46
93
104
77
17
-68
-165
-262
-345
-402
-427
-415
-370
-297
-207
-113
-32
26
49
34
-20
-105
-211
-322
-421
-493
-527
-515
-458
-362
-241
-111
10
105
160
169
130
50
-57
-176
-289
-379
-433
-443
-407
-331
-225
-104
15
118
189
220
205
145
47
-78
-216
-352
-471
-560
-609
-616
-579
-505
-405
-293
-183
-91
-27
0
-13
-61
-136
-226
-316
-392
-441
-455
-431
-371
-285
-183
-81
7
68
93
79
26
-57
-160
-266
-362
-433
-469
-463
-417
-337
-233
-121
-17
62
106
106
62
-20
-128
-248
-362
-454
-512
-529
-503
-439
-350
-249
-153
-77
-32
-26
-59
-127
-220
-325
-426
-510
-565
-582
-559
-496
-405
-295
-181
-78
1
45
47
7
-70
-174
-292
-407
-503
-565
-584
-558
-488
-386
-267
-151
-57
-3
-1
-55
-161
-305
-465
-619
-741
-812
-816
-752
-624
-450
-253
-57
110
227
281
267
192
68
-85
-243
-388
-500
-567
-586
-557
-488
-391
-281
-170
-72
4
50
64
45
-2
-72
-157
-247
-331
-399
-444
-461
-448
-407
-346
-275
-205
-146
-108
-95
-107
-143
-195
-254
-312
-361
-396
-412
-411
-391
-357
-312
-260
-207
-160
-124
-106
-112
-145
-205
-286
-379
-470
-542
-580
-573
-516
-412
-274
-123
18
124
178
166
90
-41
-206
-380
-537
-655
-717
-718
-661
-558
-428
-290
-163
-62
2
25
9
-40
-111
-192
-272
-339
-383
-399
-382
-335
-263
-175
-83
1
64
97
98
66
10
-60
-129
-184
-212
-205
-162
-86
15
127
239
336
408
446
448
414
349
263
164
66
-20
-82
-114
-109
-67
8
106
213
315
398
447
454
417
340
232
108
-13
-114
-181
-207
-190
-134
-52
43
135
206
244
243
199
118
8
-118
-245
-358
-441
-486
-487
-446
-370
-271
-166
-75
-15
-1
-41
-134
-270
-434
-602
-750
-855
-900
-875
-783
-632
-444
-243
-57
90
180
201
153
45
-108
-284
-460
-616
-732
-798
-807
-763
-672
-547
-404
-258
-124
-17
55
85
75
28
-46
-136
-230
-314
-376
-407
-404
-366
-300
-217
-128
-48
11
43
43
17
-25
-67
-90
-75
-4
135
350
638
992
1399
1843
2307
2774
3233
3676
4098
4499
4882
5252
5613
5966
6308
6635
6934
7189
7383
7496
7509
7406
7177
6823
6350
5777
5131
4447
3763
3113
2531
2036
1640
1340
1126
976
865
768
662
533
374
190
-9
-207
-384
-521
-604
-625
-583
-485
-343
-174
-1
156
280
354
370
326
229
90
-75
-244
-398
-517
-587
-600
-558
-469
-349
-219
-102
-19
14
-13
-98
-233
-398
-573
-733
-855
-924
-933
-883
-782
-648
-501
-362
-248
-172
-139
-150
-197
-270
-358
-446
-525
-585
-621
-631
-615
-575
-517
-450
-381
-319
-272
-249
-255
-290
-354
-439
-535
-630
-711
-763
-778
-751
-683
-582
-460
-335
-225
-144
-105
-113
-169
-265
-386
-516
-634
-725
-776
-781
-739
-659
-554
-440
-336
-257
-218
-223
-272
-357
-466
-582
-688
-768
-810
-805
-754
-661
-537
-397
-258
-137
-51
-10
-19
-80
-185
-323
-478
-631
-764
-860
-907
-898
-832
-717
-568
-402
-240
-102
-6
38
26
-36
-137
-260
-383
-487
-556
-579
-554
-484
-383
-268
-155
-65
-9
1
-35
-114
-226
-355
-486
-602
-687
-731
-726
-674
-578
-448
-300
-152
-19
81
137
143
100
17
-93
-213
-322
-403
-445
-441
-393
-309
-202
-92
6
75
106
93
40
-45
-147
-253
-346
-413
-445
-437
-394
-321
-228
-130
-40
29
66
67
30
-40
-133
-238
-339
-420
-470
-480
-447
-376
-275
-157
-36
71
151
193
195
157
87
-3
-102
-197
-276
-330
-358
-357
-332
-290
-238
-186
-141
-109
-96
-103
-130
-174
-229
-289
-343
-384
-403
-396
-357
-288
-195
-85
29
133
212
256
257
215
136
31
-84
-190
-270
-309
-300
-240
-139
-9
131
258
353
401
393
328
216
71
-86
-233
-349
-417
-428
-377
-272
-126
42
210
357
465
522
524
474
381
262
135
19
-68
-117
-123
-88
-21
64
150
223
269
279
251
187
97
-7
-111
-202
-268
-302
-303
-271
-215
-143
-68
-1
48
71
65
32
-26
-99
-179
-255
-318
-358
-370
-354
-311
-247
-170
-89
-15
43
78
87
68
24
-40
-118
-200
-278
-344
-390
-412
-407
-378
-329
-264
-192
-121
-59
-13
12
14
-4
-38
-83
-131
-172
-200
-210
-199
-167
-118
-59
2
54
89
99
78
27
-52
-152
-261
-366
-454
-511
-528
-499
-428
-321
-192
-58
62
152
197
193
140
49
-66
-184
-286
-354
-378
-354
-286
-186
-72
39
128
182
191
156
82
-19
-132
-243
-335
-397
-424
-413
-368
-298
-211
-121
-40
20
52
51
18
-42
-121
-207
-288
-350
-383
-382
-345
-275
-182
-78
21
103
155
169
144
83
-6
-111
-218
-314
-388
-431
-441
-419
-369
-301
-223
-148
-87
-47
-35
-53
-101
-175
-265
-360
-448
-517
-556
-557
-518
-440
-333
-207
-80
32
114
155
150
100
16
-88
-195
-286
-346
-367
-346
-287
-203
-110
-27
32
54
33
-28
-121
-232
-345
-442
-509
-537
-523
-469
-385
-284
-181
-90
-25
7
2
-37
-104
-187
-275
-353
-412
-443
-444
-413
-355
-278
-191
-105
-32
20
44
38
0
-66
-152
-250
-348
-434
-496
-527
-520
-476
-398
-295
-180
-67
26
86
103
75
3
-104
-231
-360
-473
-554
-591
-579
-521
-428
-316
-202
-106
-44
-25
-54
-125
-228
-347
-465
-564
-631
-655
-633
-568
-469
-347
-217
-95
7
78
110
102
56
-22
-120
-227
-329
-412
-465
-484
-464
-410
-331
-238
-147
-71
-25
-17
-49
-119
-218
-331
-442
-536
-597
-618
-592
-521
-415
-285
-148
-21
80
140
151
111
24
-101
-248
-399
-533
-632
-680
-671
-605
-489
-340
-180
-32
82
146
149
92
-17
-158
-310
-448
-551
-604
-601
-545
-447
-324
-198
-87
-11
21
2
-61
-161
-282
-409
-524
-613
-662
-665
-619
-528
-400
-248
-88
59
178
253
272
233
140
4
-154
-312
-449
-543
-581
-558
-478
-356
-212
-69
51
130
156
128
51
-59
-185
-306
-402
-459
-470
-433
-353
-242
-114
15
132
222
278
297
278
229
158
77
-3
-69
-113
-128
-112
-66
5
92
184
270
337
378
385
359
301
217
120
22
-64
-125
-153
-141
-91
-8
99
216
326
415
471
485
454
380
272
143
9
-114
-209
-263
-271
-230
-146
-29
105
235
344
413
431
391
296
157
-9
-180
-334
-450
-512
-513
-457
-356
-228
-97
14
86
106
69
-17
-141
-284
-423
-540
-617
-646
-626
-562
-466
-353
-242
-148
-85
-59
-74
-128
-212
-314
-419
-515
-586
-625
-626
-591
-523
-434
-335
-240
-160
-106
-81
-89
-124
-180
-249
-319
-382
-428
-453
-454
-430
-386
-325
-254
-179
-108
-46
3
39
65
84
106
140
200
297
442
644
905
1226
1604
2029
2490
2974
3467
3954
4424
4869
5283
5663
6009
6323
6604
6852
7063
7228
7334
7367
7311
7150
6878
6492
6001
5425
4791
4134
3488
2887
2355
1909
1555
1287
1090
945
832
732
632
523
404
279
156
43
-49
-116
-153
-158
-134
-85
-18
59
135
201
246
262
243
187
96
-23
-161
-302
-431
-535
-603
-628
-610
-551
-462
-356
-249
-156
-90
-61
-73
-124
-210
-319
-438
-552
-649
-716
-747
-738
-694
-621
-533
-444
-370
-324
-315
-343
-408
-498
-600
-698
-774
-814
-809
-758
-667
-547
-417
-297
-206
-162
-173
-240
-358
-510
-678
-838
-968
-1051
-1074
-1034
-936
-792
-620
-442
-278
-144
-53
-12
-20
-71
-153
-253
-355
-446
-513
-549
-549
-517
-458
-380
-295
-218
-160
-132
-142
-190
-273
-382
-503
-622
-719
-781
-798
-765
-687
-573
-442
-314
-209
-144
-131
-173
-265
-395
-541
-682
-795
-862
-872
-823
-722
-583
-426
-274
-146
-58
-20
-34
-93
-185
-293
-401
-495
-564
-601
-607
-584
-539
-479
-414
-351
-295
-252
-225
-216
-227
-259
-309
-374
-449
-523
-589
-634
-651
-634
-581
-498
-395
-289
-194
-126
-98
-115
-175
-269
-381
-491
-580
-630
-631
-578
-479
-345
-196
-55
59
128
141
97
2
-129
-277
-420
-536
-607
-622
-580
-484
-348
-190
-32
105
204
251
241
175
62
-85
-246
-402
-534
-627
-669
-657
-592
-484
-344
-194
-50
67
144
169
140
62
-53
-187
-321
-436
-514
-546
-529
-466
-370
-258
-148
-59
-5
6
-28
-100
-200
-312
-419
-505
-560
-575
-550
-490
-404
-305
-208
-123
-63
-32
-35
-67
-124
-196
-273
-344
-402
-439
-450
-433
-389
-323
-239
-146
-54
27
87
120
121
88
27
-55
-145
-231
-298
-334
-330
-286
-205
-98
19
130
216
263
261
210
113
-16
-159
-296
-406
-473
-484
-436
-335
-193
-29
135
279
384
435
429
367
262
131
-6
-129
-221
-269
-270
-226
-146
-46
57
145
204
225
203
142
49
-65
-186
-299
-392
-454
-479
-465
-416
-337
-240
-136
-37
45
99
119
102
51
-29
-125
-224
-312
-375
-403
-392
-341
-258
-155
-50
41
102
118
85
5
