0
0
0
0
0
0
0
0
0
0
0
0
0
0
0
0
0
0
0
0
0
0
0
0
0
0
0
0
0
0
0
0
0
0
0
0
0
0
0
0
0
0
0
0
0
0
0
0
0
0
0
0
0
0
0
0
0
0
0
0
0
0
0
0
0
0
0
0
0
0
0
0
0
0
0
0
0
0
0
0
0
0
0
0
0
0
0
0
0
0
0
0
0
0
0
0
0
0
0
0
0
0
0
0
0
0
0
0
0
0
0
0
0
0
0
0
0
0
0
0
0
0
0
0
0
0
0
0
0
0
0
0
0
0
0
0
0
0
0
0
0
0
0
0
0
0
0
0
0
0
0
0
0
0
0
0
0
0
0
0
0
0
0
0
0
0
0
0
0
0
0
0
0
0
0
0
0
0
0
0
0
0
0
0
0
0
0
0
0
0
0
0
0
0
0
0
0
0
0
0
0
0
0
0
0
0
0
0
0
0
0
0
0
0
0
0
0
0
0
0
0
0
0
0
0
0
0
0
0
0
0
0
0
0
0
0
0
0
0
0
0
0
0
0
0
0
0
0
0
0
0
0
0
0
0
0
0
0
0
0
0
0
0
0
0
0
0
0
0
0
0
0
0
0
0
0
0
0
0
0
0
0
0
0
0
0
0
0
0
0
0
0
0
0
0
0
0
0
0
0
0
0
0
0
0
0
0
0
0
0
0
0
0
0
0
0
0
0
0
0
0
0
0
0
0
0
0
0
0
0
0
0
0
0
0
0
0
0
0
0
0
0
0
0
0
0
0
0
0
0
0
0
0
0
0
0
0
0
0
0
0
0
0
0
0
0
0
0
0
0
0
0
0
0
0
0
0
0
0
0
0
0
0
0
0
0
0
0
0
0
0
0
0
0
0
0
0
0
0
0
0
0
0
0
0
0
0
0
0
0
0
0
0
0
0
0
0
0
0
0
0
0
0
0
0
0
0
0
0
0
0
0
0
0
0
0
0
0
0
0
0
0
0
0
0
0
0
0
0
0
0
0
0
0
0
0
0
0
0
0
0
0
0
0
0
0
0
0
0
0
0
0
0
0
0
0
0
0
0
0
0
0
0
0
0
0
0
0
0
0
0
0
0
0
0
0
0
0
0
0
0
0
0
0
0
0
0
0
0
0
0
0
0
0
0
0
0
-148
-247
-354
-454
-531
-576
-581
-547
-477
-381
-270
-159
-60
14
52
50
5
-81
-198
-338
-484
-622
-736
-813
-845
-828
-766
-667
-544
-414
-295
-200
-139
-115
-128
-169
-226
-285
-332
-356
-351
-315
-253
-172
-83
3
75
124
143
131
88
19
-70
-171
-273
-367
-440
-484
-493
-466
-403
-309
-194
-71
44
138
201
227
216
174
113
47
-8
-37
-31
14
94
199
313
419
498
538
529
472
373
245
107
-24
-128
-191
-205
-170
-94
8
119
220
292
325
310
249
149
24
-110
-236
-338
-407
-435
-426
-384
-319
-247
-182
-136
-120
-139
-194
-280
-390
-509
-623
-718
-779
-796
-767
-693
-582
-446
-302
-167
-60
9
30
3
-66
-165
-281
-395
-492
-558
-585
-567
-510
-420
-311
-198
-98
-24
11
0
-56
-151
-272
-402
-523
-616
-665
-663
-610
-513
-386
-249
-124
-31
14
4
-61
-170
-305
-443
-559
-631
-641
-580
-445
-246
6
291
592
893
1182
1455
1715
1971
2236
2523
2848
3218
3638
4104
4608
5133
5659
6161
6618
7009
7316
7523
7617
7593
7449
7190
6826
6375
5859
5306
4747
4210
3719
3292
2935
2644
2402
2188
1974
1734
1448
1107
716
291
-138
-536
-865
-1092
-1195
-1166
-1013
-759
-441
-100
220
484
663
743
724
621
456
258
59
-115
-243
-313
-323
-282
-203
-108
-17
50
75
50
-28
-153
-314
-491
-663
-811
-915
-965
-956
-891
-780
-640
-495
-364
-267
-214
-210
-253
-334
-438
-548
-648
-724
-767
-772
-740
-679
-597
-506
-415
-336
-277
-243
-239
-266
-322
-401
-495
-594
-686
-757
-797
-796
-753
-670
-557
-429
-308
-213
-164
-172
-240
-364
-525
-702
-866
-994
-1064
-1063
-992
-858
-682
-487
-301
-151
-54
-20
-49
-133
-253
-387
-515
-614
-670
-676
-632
-546
-435
-318
-215
-145
-123
-155
-240
-370
-530
-698
-852
-969
-1033
-1035
-974
-857
-700
-523
-348
-197
-88
-31
-28
-75
-160
-266
-375
-470
-538
-567
-556
-507
-432
-342
-255
-187
-149
-151
-194
-273
-379
-497
-610
-703
-760
-773
-738
-660
-546
-415
-281
-161
-72
-22
-15
-51
-122
-216
-321
-421
-503
-556
-573
-553
-499
-419
-324
-227
-142
-81
-53
-65
-116
-202
-310
-425
-532
-613
-656
-653
-602
-511
-390
-257
-132
-31
32
50
21
-46
-141
-247
-349
-432
-486
-504
-488
-440
-371
-289
-206
-132
-76
-42
-34
-52
-94
-154
-227
-303
-373
-430
-468
-481
-468
-430
-370
-296
-219
-150
-98
-73
-79
-119
-187
-276
-376
-474
-558
-616
-641
-630
-585
-512
-421
-327
-245
-184
-152
-153
-184
-236
-297
-355
-399
-420
-413
-379
-323
-251
-173
-96
-27
29
69
91
96
81
46
-9
-85
-177
-279
-380
-467
-526
-546
-518
-442
-323
-175
-19
126
238
304
316
279
203
110
22
-40
-59
-29
49
161
288
406
491
524
495
403
258
81
-107
-277
-408
-482
-492
-439
-333
-196
-51
80
177
224
220
166
75
-40
-159
-266
-344
-385
-385
-346
-275
-182
-81
16
98
155
180
168
118
33
-81
-212
-347
-469
-563
-615
-619
-570
-474
-344
-196
-51
72
158
196
185
131
46
-52
-145
-217
-255
-254
-214
-142
-50
50
140
209
247
247
208
135
33
-86
-211
-328
-425
-492
-523
-517
-475
-405
-319
-228
-146
-85
-53
-56
-90
-149
-220
-288
-341
-365
-354
-303
-217
-105
20
141
243
311
336
314
250
151
31
-92
-203
-286
-330
-330
-287
-210
-111
-8
80
138
152
116
30
-96
-248
-406
-549
-657
-714
-712
-650
-535
-380
-207
-37
108
212
263
258
202
105
-16
-143
-258
-343
-387
-384
-336
-249
-137
-15
97
184
232
233
188
100
-17
-146
-272
-379
-451
-484
-477
-436
-372
-296
-224
-165
-128
-114
-123
-151
-190
-233
-271
-299
-310
-304
-277
-233
-173
-105
-33
32
83
112
111
77
13
-76
-180
-283
-373
-435
-461
-447
-396
-314
-215
-114
-26
37
69
66
30
-33
-114
-203
-288
-360
-410
-435
-430
-395
-331
-244
-143
-40
52
118
143
118
39
-91
-259
-447
-632
-787
-890
-924
-881
-767
-595
-390
-179
9
150
226
234
178
74
-60
-197
-313
-389
-414
-386
-313
-207
-88
24
111
159
159
114
30
-79
-194
-299
-376
-415
-413
-373
-306
-229
-162
-121
-121
-165
-253
-374
-512
-643
-748
-809
-815
-762
-655
-505
-329
-146
26
173
282
347
367
345
286
198
90
-26
-141
-242
-321
-369
-381
-358
-303
-222
-127
-31
53
111
132
111
49
-49
-171
-299
-416
-504
-549
-543
-483
-377
-241
-96
32
119
145
97
-23
-206
-428
-659
-865
-1014
-1082
-1057
-941
-747
-503
-241
6
207
341
397
377
293
164
13
-135
-260
-348
-392
-389
-344
-266
-168
-64
32
107
149
151
108
22
-99
-243
-394
-533
-644
-711
-727
-688
-602
-479
-339
-202
-84
1
44
45
8
-56
-132
-204
-258
-285
-278
-235
-162
-66
41
146
237
303
339
342
314
261
193
121
55
6
-19
-15
17
74
147
228
307
372
413
425
404
353
275
181
82
-11
-84
-126
-129
-91
-14
93
216
338
442
514
542
520
452
345
215
79
-44
-136
-185
-185
-138
-54
51
158
247
298
298
240
128
-29
-214
-403
-574
-706
-781
-791
-736
-626
-477
-308
-143
-3
97
148
147
101
21
-77
-176
-261
-321
-347
-337
-296
-230
-151
-71
0
52
77
72
37
-25
-106
-198
-291
-371
-428
-454
-441
-391
-307
-198
-80
31
113
150
126
37
-115
-316
-545
-775
-973
-1112
-1169
-1132
-1003
-794
-526
-229
65
329
542
693
782
823
838
853
897
999
1180
1452
1821
2279
2810
3390
3993
4587
5144
5641
6059
6390
6636
6803
6905
6955
6968
6953
6909
6837
6726
6565
6343
6047
5674
5226
4714
4155
3571
2989
2433
1925
1486
1126
851
656
533
464
429
405
370
307
208
70
-97
-275
-443
-574
-647
-649
-575
-434
-244
-33
170
335
440
472
431
328
181
15
-146
-281
-377
-427
-433
-402
-346
-278
-212
-156
-121
-109
-123
-162
-223
-302
-392
-486
-576
-650
-703
-726
-713
-663
-581
-477
-362
-253
-163
-106
-90
-119
-186
-284
-396
-506
-596
-654
-671
-647
-587
-505
-415
-334
-276
-252
-265
-315
-392
-486
-581
-665
-725
-753
-744
-700
-624
-525
-414
-301
-200
-121
-74
-65
-95
-163
-260
-376
-495
-601
-678
-714
-703
-645
-550
-432
-311
-206
-137
-115
-148
-231
-352
-493
-631
-745
-817
-835
-794
-701
-568
-412
-254
-113
-5
60
77
49
-19
-115
-224
-335
-435
-514
-565
-586
-575
-537
-476
-399
-314
-232
-161
-109
-82
-83
-113
-166
-237
-314
-388
-445
-477
-481
-456
-409
-348
-287
-239
-214
-219
-255
-318
-396
-477
-544
-584
-586
-547
-469
-359
-230
-99
19
109
160
167
130
57
-45
-162
-280
-384
-463
-508
-513
-478
-409
-313
-204
-97
-3
63
95
87
42
-35
-132
-235
-331
-404
-444
-444
-404
-327
-223
-108
2
90
140
142
90
-14
-158
-326
-496
-644
-750
-797
-775
-685
-538
-350
-147
46
204
308
350
327
249
131
-7
-142
-258
-338
-377
-374
-334
-269
-191
-114
-49
-6
10
-2
-40
-99
-170
-245
-313
-367
-399
-405
-383
-337
-272
-198
-125
-65
-28
-19
-40
-88
-153
-224
-287
-327
-334
-301
-227
-117
17
163
303
422
506
546
539
487
398
283
158
38
-60
-125
-147
-126
-64
31
143
254
349
411
430
403
335
237
126
21
-60
-104
-108
-75
-17
47
97
115
87
11
-108
-255
-410
-550
-652
-702
-692
-622
-502
-345
-171
3
163
296
395
457
483
475
434
364
270
159
37
-83
-190
-271
-314
-313
-265
-177
-61
65
180
264
299
274
189
53
-116
-296
-461
-587
-655
-657
-590
-466
-303
-123
48
189
282
318
297
225
116
-12
-140
-249
-326
-363
-358
-316
-246
-159
-69
9
64
89
80
40
-26
-107
-193
-271
-331
-365
-369
-343
-290
-219
-139
-61
6
52
70
58
16
-54
-144
-245
-347
-436
-502
-535
-526
-474
-382
-258
-117
24
145
229
266
251
188
86
-37
-162
-267
-336
-360
-335
-267
-171
-61
44
129
183
201
182
132
60
-25
-113
-198
-274
-338
-391
-430
-458
-474
-479
-473
-456
-428
-392
-352
-310
-270
-232
-199
-169
-140
-108
-69
-22
32
90
145
189
212
207
169
98
1
-113
-228
-329
-400
-430
-414
-355
-261
-149
-37
58
121
139
110
36
-76
-210
-352
-482
-584
-645
-656
-613
-519
-384
-224
-59
89
196
246
225
134
-18
-212
-418
-605
-742
-807
-788
-684
-513
-299
-75
125
274
351
350
276
145
-19
-191
-347
-467
-538
-556
-525
-455
-360
-253
-150
-62
0
32
29
-5
-65
-142
-227
-308
-374
-419
-437
-430
-400
-354
-301
-249
-209
-185
-182
-197
-227
-267
-310
-350
-380
-397
-396
-376
-337
-280
-210
-133
-57
10
57
78
64
15
-65
-169
-281
-386
-467
-507
-498
-439
-338
-208
-74
42
113
124
64
-66
-250
-466
-684
-871
-999
-1046
-1003
-874
-672
-423
-156
96
304
446
508
488
393
238
47
-158
-351
-511
-621
-671
-657
-585
-465
-315
-155
-5
114
188
207
169
82
-42
-185
-327
-446
-525
-556
-537
-473
-376
-263
-155
-68
-17
-10
-46
-119
-217
-322
-417
-488
-521
-513
-463
-378
-269
-152
-42
46
101
117
92
31
-56
-158
-260
-350
-416
-449
-446
-404
-328
-227
-111
7
113
195
245
257
231
170
86
-11
-104
-180
-226
-236
-208
-146
-60
36
128
202
248
258
233
178
103
22
-50
-100
-117
-96
-34
63
186
321
450
555
619
630
579
465
296
90
-132
-341
-513
-624
-660
-615
-496
-322
-117
90
269
398
463
459
392
276
131
-25
-170
-291
-379
-431
-450
-440
-408
-363
-310
-257
-210
-175
-157
-158
-179
-219
-272
-331
-385
-424
-439
-426
-385
-320
-242
-162
-94
-50
-35
-53
-99
-166
-243
-319
-384
-431
-456
-461
-449
-426
-398
-372
-352
-341
-341
-351
-366
-386
-404
-418
-422
-412
-385
-340
-278
-203
-120
-38
34
88
119
125
108
75
38
13
13
54
148
301
515
783
1098
1448
1818
2196
2573
2942
3304
3661
4020
4387
4767
5164
5576
5995
6409
6800
7144
7416
7592
7651
7576
7358
7001
6514
5920
5249
4537
3819
3133
2506
1962
1510
1152
880
677
524
401
292
185
73
-42
-156
-262
-350
-413
-442
-437
-397
-325
-229
-115
5
120
219
289
319
302
234
117
-41
-226
-419
-595
-736
-821
-839
-788
-677
-524
-350
-184
-49
35
59
22
-66
-186
-317
-436
-524
-570
-569
-529
-460
-379
-304
-251
-229
-244
-294
-369
-460
-553
-635
-694
-722
-718
-681
-615
-530
-434
-337
-247
-173
-122
-99
-105
-138
-196
-272
-358
-446
-526
-589
-629
-641
-623
-581
-520
-452
-387
-338
-316
-325
-368
-440
-530
-625
-708
-762
-774
-739
-657
-533
-383
-224
-80
32
95
102
54
-41
-167
-301
-424
-516
-563
-561
-513
-431
-333
-240
-170
-140
-158
-223
-327
-455
-586
-701
-781
-815
-797
-729
-620
-482
-334
-190
-66
29
87
108
94
50
-16
-95
-178
-257
-324
-374
-401
-405
-385
-344
-290
-230
-175
-134
-117
-130
-174
-245
-338
-437
-528
-596
-628
-615
-551
-442
-298
-133
33
181
295
360
370
327
237
115
-22
-154
-262
-333
-359
-337
-273
-179
-70
36
122
173
182
146
69
-35
-153
-265
-355
-407
-412
-369
-282
-163
-27
106
220
300
337
328
278
197
97
-6
-100
-173
-216
-225
-199
-140
-55
49
161
269
362
426
451
429
357
236
75
-111
-300
-470
-599
-669
-671
-602
-474
-303
-114
68
219
322
370
362
311
233
149
79
40
41
84
163
268
382
487
569
615
617
571
482
359
216
70
-61
-160
-214
-214
-159
-55
86
246
401
532
620
653
629
553
439
305
174
66
-2
-21
11
87
193
311
421
506
549
540
477
365
217
48
-119
-264
-367
-416
-404
-332
-213
-61
103
258
383
465
495
473
407
306
188
69
-39
-122
-174
-194
-184
-150
-101
-48
-2
28
34
9
-47
-128
-228
-334
-432
-505
-541
-529
-465
-353
-206
-40
124
263
359
400
381
305
184
36
-117
-254
-356
-412
-416
-370
-285
-174
-57
49
127
166
160
109
21
-93
-217
-337
-437
-505
-533
-519
-464
-376
-266
-147
-34
60
124
150
136
85
2
-99
-206
-303
-376
-415
-413
-370
-293
-194
-88
9
84
125
128
95
33
-47
-132
-207
-261
-287
-282
-248
-188
-108
-18
73
154
217
252
250
209
126
6
-142
-302
-457
-586
-672
-701
-667
-573
-431
-263
-92
57
164
216
211
154
62
-44
-144
-217
-252
-246
-201
-130
-46
34
98
135
141
116
63
-10
-99
-195
-294
-390
-479
-556
-615
-652
-660
-636
-581
-497
-394
-283
-175
-85
-22
9
10
-14
-50
-84
-105
-103
-73
-20
48
118
174
204
198
153
74
-30
-145
-255
-345
-404
-425
-408
-359
-287
-205
-127
-64
-27
-20
-43
-95
-169
-255
-342
-419
-475
-503
-498
-461
-394
-304
-203
-104
-20
39
62
46
-8
-94
-203
-321
-432
-522
-580
-599
-576
-515
-426
-323
-221
-137
-83
-69
-98
-166
-261
-370
-474
-554
-599
-599
-553
-466
-351
-226
-109
-19
31
34
-13
-102
-223
-358
-491
-604
-683
-718
-707
-649
-551
-424
-282
-141
-15
80
135
144
107
29
-78
-200
-319
-419
-488
-515
-497
-437
-346
-238
-127
-30
41
76
72
32
-37
-123
-212
-291
-348
-376
-371
-337
-281
-211
-140
-80
-40
-29
-48
-95
-166
-252
-343
-428
-499
-548
-571
-566
-537
-488
-425
-355
-288
-231
-189
-167
-164
-180
-209
-245
-279
-303
-310
-295
-258
-201
-133
-62
-2
39
50
27
-29
-115
-222
-336
-447
-541
-608
-641
-637
-596
-524
-429
-321
-213
-116
-40
9
27
16
-20
-71
-126
-172
-201
-203
-178
-128
-59
18
91
149
184
191
171
127
67
1
-63
-117
-157
-177
-178
-158
-120
-67
-2
68
139
203
254
285
292
276
238
187
131
83
52
46
70
118
185
256
319
357
361
324
247
137
6
-132
-260
-359
-419
-432
-396
-317
-205
-75
54
164
240
270
248
176
67
-66
-200
-316
-396
-428
-410
-349
-260
-163
-82
-35
-35
-88
-187
-316
-454
-579
-668
-708
-690
-616
-497
-352
-199
-60
49
118
141
122
67
-11
-103
-195
-276
-339
-381
-401
-401
-387
-363
-336
-310
-290
-278
-277
-285
-300
-321
-345
-368
-387
-397
-397
-385
-359
-319
-263
-190
-102
-1
110
227
346
463
576
685
794
911
1048
1219
1438
1719
2071
2496
2988
3531
4105
4680
5230
5728
6153
6493
6744
6911
7001
7027
7001
6928
6810
6644
6424
6142
5794
5379
4903
4380
3826
3262
2708
2182
1696
1256
866
526
233
-12
-211
-363
-466
-521
-532
-504
-446
-370
-289
-215
-155
-112
-84
-67
-52
-30
4
51
109
171
227
266
278
256
198
106
-12
-145
-279
-402
-502
-570
-601
-597
-562
-504
-432
-359
-295
-251
-231
-238
-271
-325
-390
-458
-517
-557
-571
-555
-509
-436
-345
-247
-155
-82
-38
-32
-67
-141
-247
-372
-501
-618
-709
-761
-768
-730
-654
-552
-440
-335
-253
-209
-209
-253
-333
-437
-549
-649
-722
-755
-740
-680
-581
-457
-325
-206
-115
-67
-67
-116
-207
-328
-464
-595
-706
-783
-818
-807
-751
-660
-545
-421
-304
-206
-139
-111
-123
-172
-250
-344
-441
-525
-586
-614
-604
-560
-489
-403
-318
-247
-202
-192
-220
-281
-365
-457
-542
-605
-632
-618
-562
-468
-350
-221
-97
6
74
100
83
27
-58
-159
-263
-353
-417
-444
-432
-381
-299
-196
-86
14
90
130
124
71
-27
-158
-309
-463
-600
-703
-757
-753
-691
-576
-421
-242
-61
100
223
294
306
261
169
44
-92
-220
-320
-380
-391
-357
-287
-196
-103
-25
24
33
2
-64
-151
-246
-331
-391
-416
-398
-339
-245
-127
2
127
233
309
346
340
292
206
90
-45
-185
-315
-422
-495
-530
-522
-476
-400
-304
-203
-107
-28
27
52
48
17
-32
-91
-150
-197
-225
-226
-197
-139
-57
39
136
218
271
282
244
159
35
-114
-265
-395
-483
-515
-482
-388
-245
-70
114
283
413
492
512
473
386
265
131
4
-98
-160
-174
-140
-62
46
167
282
373
425
428
382
294
176
47
-72
-164
-214
-216
-170
-84
29
153
270
366
428
451
434
380
299
201
98
2
-76
-128
-151
-144
-111
-60
-3
48
83
93
73
24
-49
-136
-223
-297
-347
-366
-350
-299
-222
-127
-27
64
137
181
192
168
110
25
-78
-189
-297
-389
-456
-489
-484
-442
-369
-274
-171
-73
7
57
72
51
-3
-80
-168
-251
-316
-350
-347
-305
-228
-125
-11
101
193
253
273
248
182
82
-38
-164
-279
-371
-429
-448
-429
-378
-303
-218
-135
-67
-26
-18
-42
-96
-170
-254
-335
-397
-431
-429
-388
-312
-209
-91
27
128
202
237
231
183
101
-6
-125
-241
-342
-417
-458
-462
-430
-366
-279
-181
-87
-10
40
57
39
-11
-85
-170
-252
-318
-358
-365
-338
-281
-201
-108
-13
73
142
186
202
185
135
53
-59
-192
-339
-486
-619
-721
-780
-787
-739
-643
-511
-362
-214
-89
-1
42
40
2
-55
-115
-159
-173
-152
-98
-20
69
151
207
226
200
131
28
-96
-222
-330
-404
-435
-419
-361
-272
-170
-76
-9
18
-3
-72
-181
-315
-454
-578
-668
-714
-707
-651
-553
-427
-288
-153
-36
52
104
118
96
43
-32
-121
-212
-294
-359
-397
-404
-379
-323
-245
-154
-64
10
57
66
36
-33
-131
-245
-358
-454
-518
-541
-520
-462
-376
-280
-192
-130
-107
-130
-197
-299
-422
-546
-652
-722
-745
-717
-643
-533
-403
-272
-155
-65
-12
2
-18
-65
-131
-202
-270
-325
-360
-372
-359
-322
-265
-193
-114
-36
31
79
100
89
44
-31
-126
-232
-336
-424
-486
-515
-509
-470
-404
-320
-230
-145
-76
-31
-15
-30
-76
-147
-238
-336
-432
-511
-565
-583
-563
-505
-415
-306
-192
-91
-17
18
11
-39
-121
-222
-325
-413
-471
-491
-468
-408
-320
-218
-118
-34
21
39
19
-35
-117
-214
-313
-403
-472
-512
-518
-492
-437
-358
-264
-167
-77
-5
41
53
26
-40
-144
-278
-432
-590
-736
-855
-929
-950
-913
-821
-685
-521
-349
-191
-65
17
49
35
-14
-83
-151
-202
-224
-208
-157
-79
13
103
174
213
213
175
103
10
-90
-181
-249
-284
-279
-235
-157
-56
56
166
260
329
367
370
339
279
198
102
4
-89
-165
-218
-243
-236
-199
-136
-57
27
103
157
180
166
116
36
-59
-152
-223
-255
-237
-165
-48
100
258
402
509
561
551
480
358
203
38
-116
-240
-323
-360
-354
-317
-262
-204
-157
-132
-134
-162
-213
-280
-352
-420
-475
-511
-523
-510
-473
-417
-349
-277
-207
-148
-106
-86
-89
-115
-160
-219
-286
-352
-411
-456
-482
-486
-467
-430
-379
-322
-265
-217
-186
-175
-184
-212
-254
-302
-347
-383
-403
-404
-387
-355
-315
-273
-237
-211
-201
-205
-224
-253
-285
-316
-337
-341
-323
-277
-198
-84
69
260
487
747
1035
1344
1669
2004
2344
2691
3045
3411
3792
4194
4616
5059
5515
5973
6416
6822
7167
7427
7580
7609
7506
7270
6912
6450
5913
5332
4740
4166
3636
3163
2753
2404
2103
1833
1577
1320
1053
772
485
203
-57
-277
-440
-536
-559
-514
-411
-266
-99
69
214
321
378
381
329
231
99
-50
-199
-331
-433
-495
-513
-491
-435
-359
-276
-204
-155
-137
-153
-203
-278
-369
-462
-545
-607
-642
-646
-621
-573
-512
-447
-389
-346
-324
-329
-357
-407
-471
-540
-604
-654
-682
-682
-655
-604
-537
-465
-401
-358
-345
-364
-415
-488
-572
-651
-710
-736
-723
-670
-587
-484
-381
-293
-236
-219
-242
-300
-380
-467
-545
-600
-624
-612
-569
-502
-422
-340
-268
-211
-173
-157
-160
-181
-215
-261
-320
-388
-463
-541
-614
-678
-724
-743
-731
-688
-617
-526
-427
-333
-258
-210
-197
-218
-269
-342
-425
-505
-573
-620
-644
-644
-624
-591
-553
-518
-493
-480
-482
-498
-523
-552
-576
-587
-578
-543
-481
-395
-292
-180
-72
20
82
107
89
29
-65
-181
-303
-415
-503
-556
-567
-538
-476
-391
-300
-218
-160
-135
-151
-206
-293
-399
-507
-601
-665
-685
-655
-577
-458
-314
-163
-27
77
135
142
100
17
-91
-206
-311
-392
-441
-454
-437
-398
-348
-297
-254
-223
-205
-200
-205
-214
-225
-234
-241
-247
-253
-261
-269
-275
-274
-262
-235
-191
-131
-59
14
79
123
135
106
35
-78
-221
-380
-537
-672
-767
-811
-797
-728
-616
-478
-334
-204
-106
-50
-42
-76
-139
-215
-287
-339
-358
-340
-286
-204
-109
-16
58
103
109
78
13
-74
-169
-258
-327
-367
-373
-346
-293
-223
-150
-87
-46
-31
-44
-82
-137
-200
-258
-301
-317
-300
-248
-167
-62
56
176
287
377
437
462
452
408
337
249
153
64
-9
-57
-77
-69
-38
7
55
95
117
115
85
28
-49
-140
-231
-313
-374
-409
-411
-378
-314
-225
-119
-7
100
191
258
292
292
258
194
109
13
-81
-161
-216
-239
-227
-180
-107
-19
73
152
206
224
201
137
41
-73
-188
-287
-355
-382
-363
-300
-203
-89
25
123
190
220
212
170
102
21
-60
-133
-191
-232
-258
-270
-273
-270
-262
-252
-239
-221
-199
-173
-147
-124
-107
-98
-100
-108
-119
-126
-123
-103
-65
-8
59
129
190
230
241
217
158
71
-35
-144
-244
-320
-364
-372
-346
-293
-224
-150
-83
-34
-8
-8
-33
-77
-135
-198
-256
-300
-322
-313
-271
-195
-91
33
160
275
357
390
361
267
115
-79
-291
-491
-651
-744
-757
-685
-540
-342
-119
96
274
392
440
415
328
200
54
-86
-197
-265
-282
-247
-170
-65
51
159
244
293
300
265
194
101
-3
-100
-179
-230
-252
-247
-223
-192
-165
-152
-159
-189
-237
-296
-354
-401
-429
-432
-410
-366
-303
-228
-147
-63
19
96
162
215
250
262
249
207
139
49
-54
-157
-249
-316
-351
-347
-305
-230
-135
-31
65
142
185
187
146
64
-53
-193
-341
-481
-598
-677
-709
-689
-617
-503
-360
-207
-62
58
139
174
162
110
31
-60
-147
-214
-251
-251
-217
-154
-73
10
81
127
138
109
42
-58
-180
-309
-427
-521
-577
-587
-552
-476
-371
-250
-131
-32
33
56
35
-26
-115
-217
-314
-389
-428
-423
-372
-280
-159
-26
100
200
258
265
216
118
-18
-172
-325
-455
-545
-583
-563
-491
-376
-236
-90
41
140
194
197
152
65
-49
-174
-292
-385
-442
-456
-426
-358
-262
-155
-51
33
85
95
64
-6
-103
-211
-316
-402
-456
-472
-450
-394
-315
-227
-145
-82
-48
-48
-79
-137
-210
-286
-353
-399
-417
-405
-362
-294
-208
-112
-15
75
150
206
238
242
215
155
64
-56
-197
-348
-494
-620
-706
-741
-716
-631
-496
-326
-146
20
148
220
226
171
68
-64
-197
-306
-373
-383
-335
-236
-104
42
178
283
343
349
303
214
97
-28
-141
-224
-264
-253
-192
-88
42
180
307
403
455
455
405
313
195
70
-40
-118
-151
-133
-67
35
160
289
405
493
542
549
516
450
363
268
178
104
55
36
48
86
143
209
272
321
344
335
291
214
110
-12
-137
-250
-339
-392
-404
-374
-305
-210
-100
10
104
169
196
180
123
32
-82
-204
-316
-403
-452
-454
-409
-324
-212
-92
16
90
114
79
-14
-157
-331
-513
-675
-794
-851
-838
-756
-615
-434
-239
-56
93
192
231
213
145
40
-83
-206
-309
-380
-407
-390
-333
-244
-139
-33
57
116
134
109
44
-50
-157
-259
-337
-378
-375
-325
-235
-117
18
159
299
439
587
756
964
1226
1555
1958
2431
2963
3538
4135
4731
5307
5846
6335
6765
7127
7414
7617
7729
7741
7645
7440
7130
6727
6250
5726
5182
4647
4146
3694
3299
2958
2659
2384
2115
1835
1533
1206
860
511
176
-121
-362
-532
-622
-632
-567
-444
-281
-99
81
242
370
455
492
483
431
346
239
123
13
-78
-140
-166
-156
-116
-59
-2
38
41
-6
-107
-258
-446
-649
-839
-987
-1068
-1069
-985
-825
-610
-371
-140
51
175
217
171
51
-123
-321
-513
-670
-768
-798
-757
-657
-519
-367
-227
-122
-69
-75
-140
-252
-395
-548
-691
-804
-875
-896
-867
-796
-694
-573
-449
-336
-244
-183
-159
-170
-212
-276
-354
-433
-502
-553
-576
-570
-534
-476
-402
-323
-251
-196
-165
-162
-186
-235
-302
-380
-462
-542
-616
-678
-726
-759
-775
-774
-756
-723
-677
-624
-568
-514
-466
-430
-406
-393
-386
-379
-365
-340
-301
-249
-189
-130
-80
-51
-47
-74
-128
-204
-292
-380
-456
-510
-538
-538
-516
-478
-437
-403
-385
-389
-415
-461
-518
-578
-629
-662
-668
-643
-586
-501
-395
-277
-159
-51
36
95
120
111
70
2
-85
-179
-270
-349
-407
-439
-444
-422
-380
-324
-264
-209
-166
-142
-141
-163
-206
-265
-333
-400
-457
-496
-512
-500
-461
-397
-314
-222
-134
-61
-14
2
-16
-66
-140
-227
-314
-387
-436
-452
-434
-386
-318
-242
-173
-125
-110
-134
-198
-298
-423
-558
-688
-795
-867
-893
-868
-795
-681
-538
-385
-239
-118
-38
-7
-29
-97
-202
-325
-446
-545
-605
-616
-575
-491
-376
-251
-136
-52
-12
-26
-89
-194
-323
-457
-574
-658
-697
-686
-625
-521
-388
-242
-98
29
128
190
209
185
122
29
-84
-201
-307
-388
-430
-427
-375
-281
-157
-18
114
221
287
301
263
180
65
-62
-180
-269
-314
-310
-258
-164
-44
84
203
297
354
370
344
283
194
91
-15
-111
-188
-241
-268
-268
-247
-212
-172
-136
-114
-110
-130
-173
-234
-305
-375
-432
-464
-464
-427
-353
-248
-124
6
127
224
286
307
284
222
128
15
-104
-214
-302
-359
-378
-359
-305
-225
-132
-40
34
76
74
23
-74
-209
-364
-520
-654
-744
-776
-738
-632
-469
-270
-56
144
305
411
448
416
325
190
34
-120
-250
-340
-382
-374
-323
-240
-139
-37
53
122
163
174
157
116
56
-19
-103
-192
-281
-364
-435
-488
-517
-519
-490
-435
-359
-272
-187
-115
-66
-45
-52
-82
-125
-167
-196
-200
-172
-112
-28
66
154
221
251
237
176
75
-52
-186
-309
-400
-446
-441
-387
-293
-177
-61
35
91
95
43
-60
-202
-363
-521
-653
-739
-768
-735
-642
-501
-330
-151
16
153
246
289
280
228
143
39
-70
-171
-252
-306
-330
-326
-297
-250
-193
-136
-89
-60
-56
-80
-132
-211
-308
-410
-505
-578
-616
-608
-553
-453
-319
-166
-13
119
215
260
251
189
87
-42
-179
-307
-412
-483
-517
-517
-485
-432
-364
-292
-224
-166
-123
-100
-97
-113
-146
-193
-246
-297
-337
-360
-360
-333
-283
-217
-146
-85
-46
-42
-81
-162
-279
-419
-564
-695
-792
-838
-825
-750
-623
-458
-279
-109
28
115
141
105
16
-108
-245
-371
-463
-506
-492
-425
-317
-185
-50
66
146
177
156
86
-24
-160
-305
-441
-552
-628
-659
-646
-589
-497
-382
-259
-145
-54
-1
7
-34
-117
-232
-362
-486
-584
-640
-642
-587
-482
-340
-183
-32
91
168
189
154
67
-55
-196
-334
-452
-534
-571
-563
-514
-436
-341
-246
-166
-110
-86
-96
-137
-201
-275
-347
-404
-439
-444
-419
-367
-294
-211
-128
-58
-8
13
4
-34
-99
-185
-281
-380
-470
-543
-592
-610
-592
-540
-457
-354
-241
-133
-43
18
41
25
-28
-108
-202
-293
-365
-408
-412
-378
-312
-224
-131
-47
10
31
7
-59
-161
-288
-425
-554
-659
-725
-742
-706
-618
-487
-326
-152
16
158
259
309
305
252
163
54
-55
-143
-195
-201
-160
-81
23
133
230
295
318
293
225
126
12
-97
-184
-234
-241
-200
-117
-4
126
258
375
467
523
536
507
440
345
234
123
26
-41
-69
-51
8
101
210
315
395
430
407
323
185
10
-181
-359
-498
-579
-590
-532
-416
-262
-92
65
190
264
280
240
151
27
-113
-255
-384
-486
-553
-579
-565
-512
-429
-327
-219
-119
-42
3
7
-30
-101
-194
-293
-383
-448
-479
-473
-436
-380
-321
-277
-261
-282
-340
-428
-533
-638
-727
-784
-801
-775
-708
-609
-487
-355
-223
-100
5
88
144
171
166
130
63
-27
-134
-245
-345
-419
-452
-434
-358
-223
-37
192
447
716
984
1242
1488
1722
1951
2189
2448
2742
3080
3468
3906
4388
4902
5429
5948
6433
6856
7195
7429
7542
7529
7392
7141
6793
6372
5904
5417
4935
4474
4047
3653
3289
2942
2600
2250
1885
1504
1115
732
376
69
-170
-327
-397
-386
-309
-189
-50
81
184
244
255
220
150
58
-39
-125
-187
-222
-226
-203
-158
-98
-34
25
71
96
95
64
4
-84
-193
-316
-441
-553
-640
-692
-702
-671
-607
-520
-429
-350
-303
-297
-337
-419
-531
-655
-772
-861
-906
-900
-843
-742
-612
-472
-340
-232
-161
-132
-144
-192
-267
-355
-445
-526
-591
-633
-650
-641
-609
-558
-492
-418
-342
-273
-219
-188
-185
-215
-279
-375
-497
-637
-778
-905
-1004
-1064
-1075
-1036
-950
-828
-685
-539
-410
-311
-253
-237
-260
-309
-371
-431
-473
-490
-479
-442
-389
-332
-285
-259
-260
-290
-346
-420
-501
-578
-639
-676
-685
-664
-614
-540
-453
-360
-272
-198
-148
-127
-137
-177
-241
-322
-409
-488
-550
-586
-593
-572
-529
-473
-416
-368
-338
-330
-344
-375
-415
-458
-492
-511
-509
-485
-440
-379
-310
-239
-175
-123
-88
-73
-79
-103
-142
-191
-247
-304
-358
-407
-447
-480
-504
-519
-525
-524
-514
-495
-467
-433
-394
-355
-317
-285
-261
-245
-236
-230
-221
-204
-177
-139
-93
-45
-6
17
15
-15
-73
-155
-250
-345
-426
-483
-508
-498
-456
-388
-304
-217
-137
-73
-34
-24
-45
-97
-175
-273
-382
-493
-593
-672
-718
-724
-689
-614
-509
-390
-273
-176
-114
-96
-125
-193
-288
-391
-481
-543
-564
-539
-472
-372
-254
-138
-42
20
39
12
-55
-152
-261
-367
-451
-498
-499
-450
-357
-229
-85
56
173
247
265
221
115
-39
-224
-415
-589
-720
-792
-795
-726
-596
-418
-215
-9
175
319
410
443
420
351
251
138
30
-55
-104
-112
-77
-5
92
198
297
370
406
396
338
238
106
-43
-191
-321
-420
-475
-481
-441
-360
-253
-135
-20
75
140
166
153
105
30
-60
-151
-230
-285
-311
-306
-272
-217
-151
-83
-24
18
39
35
7
-42
-109
-188
-271
-352
-420
-469
-489
-477
-431
-356
-260
-157
-63
3
28
3
-73
-190
-332
-474
-593
-668
-683
-634
-527
-378
-211
-53
74
151
170
133
52
-55
-166
-262
-327
-351
-335
-282
-205
-118
-32
41
90
112
104
68
8
-69
-155
-240
-316
-372
-401
-397
-359
-291
-203
-107
-20
43
67
44
-26
-138
-277
-423
-554
-651
-698
-685
-614
-494
-342
-179
-27
95
173
199
174
107
10
-102
-214
-311
-383
-423
-429
-401
-345
-267
-176
-81
5
73
112
115
77
-2
-114
-249
-390
-518
-616
-668
-665
-605
-495
-351
-195
-50
63
127
136
90
0
-117
-240
-347
-420
-447
-424
-356
-253
-130
-6
101
178
212
198
136
30
-109
-268
-432
-582
-701
-776
-797
-759
-667
-531
-368
-199
-46
70
134
139
87
-10
-133
-259
-368
-439
-462
-433
-360
-257
-143
-40
34
65
47
-18
-122
-250
-383
-506
-605
-669
-693
-677
-626
-551
-461
-367
-282
-211
-162
-137
-137
-159
-195
-240
-284
-318
-334
-329
-299
-248
-181
-107
-38
15
40
30
-19
-106
-222
-358
-496
-621
-717
-770
-774
-726
-632
-504
-357
-209
-79
19
73
77
36
-43
-145
-254
-352
-425
-463
-459
-417
-344
-252
-154
-66
1
37
40
9
-50
-130
-221
-314
-396
-461
-503
-520
-512
-481
-433
-374
-314
-261
-222
-203
-209
-239
-288
-346
-402
-444
-462
-448
-401
-324
-228
-127
-35
31
64
56
12
-62
-152
-243
-322
-380
-411
-417
-402
-376
-347
-324
-312
-311
-322
-339
-359
-376
-389
-397
-400
-399
-394
-382
-361
-329
-284
-229
-166
-102
-43
-1
19
11
-23
-79
-147
-218
-280
-326
-352
-358
-352
-340
-334
-341
-365
-405
-459
-517
-571
-611
-627
-614
-573
-505
-415
-309
-195
-76
43
155
255
339
400
432
430
392
320
220
105
-12
-111
-177
-199
-169
-92
22
153
279
376
426
416
345
221
62
-109
-265
-382
-441
-433
-358
-228
-60
122
294
434
525
556
527
445
325
186
46
-74
-160
-205
-208
-176
-121
-61
-13
8
-9
-69
-166
-291
-429
-560
-669
-739
-763
-738
-668
-561
-431
-293
-161
-48
37
87
100
76
18
-69
-175
-290
-404
-503
-578
-619
-621
-583
-512
-416
-308
-203
-115
-55
-30
-43
-92
-168
-257
-346
-422
-473
-493
-479
-433
-360
-271
-178
-95
-34
-5
-14
-61
-143
-252
-373
-492
-592
-659
-682
-655
-579
-461
-313
-151
8
151
268
356
423
481
552
657
820
1057
1379
1788
2273
2817
3393
3973
4531
5045
5499
5886
6208
6469
6678
6843
6967
7048
7080
7051
6949
6762
6483
6112
5656
5128
4549
3942
3334
2749
2204
1714
1285
921
622
383
199
64
-29
-88
-121
-135
-138
-138
-141
-153
-175
-207
-248
-292
-334
-365
-381
-379
-358
-322
-276
-228
-187
-162
-161
-186
-239
-315
-404
-495
-576
-636
-663
-654
-607
-527
-425
-314
-210
-127
-79
-75
-117
-205
-328
-475
-629
-772
-890
-967
-993
-966
-887
-766
-615
-454
-302
-176
-92
-61
-86
-163
-278
-414
-550
-669
-751
-786
-770
-705
-602
-478
-351
-240
-161
-125
-136
-191
-282
-394
-511
-615
-693
-734
-731
-687
-610
-511
-408
-319
-257
-234
-256
-320
-416
-531
-647
-743
-803
-816
-776
-688
-563
-416
-268
-139
-46
1
-3
-56
-146
-261
-382
-493
-581
-635
-653
-637
-593
-532
-467
-409
-369
-354
-365
-402
-459
-525
-591
-647
-682
-688
-662
-602
-512
-400
-278
-156
-50
30
73
75
35
-43
-150
-275
-403
-519
-610
-667
-683
-659
-599
-512
-409
-304
-208
-132
-84
-66
-78
-113
-164
-222
-277
-321
-348
-354
-340
-310
-269
-226
-189
-163
-154
-163
-188
-225
-268
-309
-341
-358
-357
-337
-299
-247
-186
-122
-61
-8
31
55
59
44
10
-38
-96
-155
-208
-244
-255
-237
-190
-117
-28
65
147
204
224
201
137
39
-79
-199
-302
-373
-402
-384
-324
-230
-117
-2
98
169
203
197
153
78
-19
-125
-227
-314
-376
-407
-402
-363
-293
-199
-91
18
115
189
231
234
200
132
42
-56
-144
-207
-232
-211
-144
-37
96
237
367
468
525
531
486
399
282
154
36
-55
-105
-105
-56
34
154
286
411
511
571
584
545
461
343
207
70
-49
-135
-178
-173
-121
-34
74
186
286
357
389
378
327
244
144
41
-50
-114
-144
-137
-97
-33
42
113
166
188
170
112
16
-106
-240
-369
-476
-546
-570
-545
-474
-366
-236
-100
26
127
193
220
205
154
73
-30
-144
-259
-367
-460
-530
-573
-583
-560
-505
-422
-321
-212
-109
-24
32
53
37
-8
-72
-140
-194
-222
-214
-169
-92
7
109
197
255
269
237
160
48
-83
-217
-335
-423
-473
-480
-448
-387
-306
-221
-144
-85
-49
-40
-58
-98
-153
-214
-272
-318
-344
-345
-320
-270
-199
-114
-27
52
112
146
147
112
45
-49
-159
-274
-382
-469
-527
-550
-535
-485
-408
-315
-218
-132
-68
-35
-37
-72
-133
-209
-285
-345
-378
-374
-331
-254
-152
-43
56
127
156
137
69
-39
-172
-310
-435
-528
-575
-570
-515
-418
-293
-159
-36
59
113
117
72
-14
-129
-256
-377
-475
-536
-553
-526
-458
-362
-250
-140
-47
17
44
32
-18
-98
-199
-307
-410
-497
-556
-580
-567
-519
-439
-337
-223
-110
-13
55
87
77
27
-56
-160
-270
-368
-438
-471
-460
-407
-321
-217
-113
-28
23
30
-11
-95
-209
-337
-459
-556
-613
-622
-585
-507
-404
-291
-185
-102
-52
-39
-63
-117
-192
-277
-361
-436
-495
-534
-550
-542
-513
-465
-399
-322
-239
-159
-92
-49
-37
-62
-125
-220
-337
-459
-570
-652
-691
-678
-615
-508
-374
-231
-98
6
68
80
45
-30
-135
-252
-367
-467
-543
-588
-602
-590
-556
-508
-454
-399
-349
-306
-274
-251
-237
-231
-230
-232
-233
-230
-222
-207
-186
-158
-128
-99
-76
-62
-63
-81
-116
-166
-226
-290
-352
-403
-435
-445
-429
-389
-329
-257
-185
-123
-83
-73
-98
-156
-241
-340
-439
-521
-572
-582
-546
-470
-365
-247
-136
-52
-10
-17
-75
-174
-299
-431
-548
-633
-672
-660
-601
-502
-382
-258
-146
-63
-20
-19
-60
-133
-226
-324
-413
-478
-511
-507
-466
-393
-298
-194
-94
-11
45
68
54
8
-64
-151
-241
-324
-389
-427
-435
-413
-365
-296
-214
-131
-54
6
44
56
43
9
-40
-95
-146
-184
-201
-193
-161
-108
-41
32
102
160
202
223
224
206
176
139
101
69
48
41
49
71
105
144
182
213
229
226
201
154
90
14
-63
-132
-183
-209
-208
-181
-135
-78
-21
23
43
31
-13
-90
-192
-310
-433
-547
-637
-691
-702
-665
-585
-470
-333
-193
-69
22
66
58
0
-97
-216
-337
-440
-510
-538
-525
-480
-416
-351
-301
-278
-286
-323
-381
-449
-513
-562
-591
-598
-585
-559
-525
-488
-449
-407
-360
-305
-240
-169
-96
-31
14
31
11
-48
-141
-258
-383
-498
-586
-630
-621
-556
-438
-277
-87
116
316
504
672
824
969
1122
1303
1530
1819
2183
2623
3131
3693
4283
4874
5436
5945
6380
6728
6984
7148
7224
7218
7137
6985
6764
6479
6130
5725
5270
4777
4258
3728
3203
2696
2216
1771
1364
1000
678
400
168
-14
-144
-222
-252
-240
-197
-139
-80
-37
-21
-38
-88
-163
-250
-332
-394
-421
-407
-351
-261
-152
-41
52
111
126
93
14
-99
-234
-371
-496
-596
-661
-688
-678
-637
-573
-498
-420
-352
-301
-277
-284
-323
-392
-486
-595
-704
-799
-863
-883
-852
-770
-646
-497
-341
-203
-104
-59
-76
-150
-268
-412
-556
-674
-748
-766
-728
-643
-528
-404
-295
-220
-193
-219
-293
-403
-533
-661
-771
-844
-873
-855
-793
-700
-589
-475
-374
-297
-252
-242
-264
-312
-377
-446
-507
-552
-572
-565
-531
-475
-404
-328
-259
-208
-182
-189
-229
-299
-392
-498
-604
-698
-765
-797
-786
-734
-642
-521
-381
-238
-105
1
71
98
79
19
-73
-185
-304
-414
-504
-564
-587
-573
-524
-448
-354
-252
-155
-76
-22
-3
-24
-84
-181
-306
-446
-586
-711
-804
-850
-844
-785
-679
-539
-387
-241
-122
-45
-17
-36
-92
-168
-245
-304
-332
-322
-274
-198
-108
-20
52
95
104
79
27
-46
-128
-211
-288
-354
-408
-448
-475
-487
-483
-461
-419
-361
-288
-209
-132
-69
-29
-18
-34
-73
-124
-173
-206
-211
-182
-119
-33
64
154
219
246
227
164
64
-57
-182
-292
-371
-411
-410
-371
-305
-225
-146
-81
-39
-27
-45
-87
-146
-214
-281
-334
-366
-369
-340
-278
-187
-76
43
156
248
306
322
291
215
105
-24
-155
-267
-345
-376
-357
-290
-186
-61
69
185
273
323
333
305
249
177
102
37
-6
-20
-1
49
126
220
318
408
477
514
512
469
389
280
155
30
-77
-154
-189
-178
-122
-30
84
206
317
402
450
453
410
325
210
80
-50
-163
-246
-289
-288
-246
-172
-79
17
101
157
177
158
102
18
-79
-175
-255
-309
-330
-316
-270
-200
-116
-29
50
113
151
160
139
92
25
-54
-135
-206
-257
-279
-270
-231
-170
-102
-40
-2
-2
-45
-131
-253
-392
-526
-635
-700
-707
-652
-542
-390
-217
-43
111
227
298
319
294
235
151
56
-39
-124
-191
-238
-260
-257
-231
-183
-119
-46
26
87
127
136
110
49
-42
-151
-264
-361
-428
-451
-427
-358
-256
-141
-33
45
76
48
-39
-174
-341
-514
-668
-778
-823
-797
-700
-543
-345
-130
74
247
369
431
430
373
271
141
0
-135
-249
-332
-377
-383
-354
-296
-216
-128
-41
30
77
91
67
5
-89
-205
-330
-445
-534
-583
-582
-529
-431
-300
-156
-19
88
150
156
107
11
-114
-248
-368
-453
-490
-472
-404
-296
-167
-38
70
141
166
141
70
-37
-163
-292
-408
-498
-552
-566
-540
-476
-383
-270
-151
-39
55
119
144
125
62
-41
-172
-318
-460
-583
-670
-708
-691
-621
-505
-358
-197
-45
79
160
186
153
66
-65
-224
-389
-541
-660
-730
-744
-702
-609
-480
-333
-189
-69
13
48
34
-23
-109
-209
-302
-373
-408
-402
-358
-283
-192
-99
-21
28
36
3
-69
-170
-285
-398
-492
-552
-568
-538
-466
-365
-253
-149
-73
-44
-71
-157
-292
-460
-639
-804
-929
-994
-989
-913
-773
-587
-375
-163
27
176
272
309
289
221
116
-8
-137
-255
-350
-412
-437
-422
-374
-298
-208
-116
-36
18
37
17
-41
-131
-242
-356
-457
-527
-556
-538
-474
-376
-257
-139
-44
10
10
-46
-155
-301
-465
-622
-750
-829
-848
-802
-698
-549
-374
-195
-33
92
169
191
159
80
-30
-158
-283
-389
-461
-491
-476
-423
-341
-248
-160
-97
-71
-92
-160
-265
-395
-530
-651
-739
-781
-773
-715
-616
-488
-347
-210
-89
5
66
92
84
44
-20
-102
-193
-283
-363
-423
-454
-451
-412
-341
-246
-137
-29
64
128
155
144
96
22
-64
-147
-213
-246
-241
-194
-111
-3
116
229
320
377
391
361
292
191
74
-42
-141
-209
-239
-226
-175
-94
5
107
196
262
296
299
270
218
154
87
29
-13
-32
-28
-1
43
98
153
201
233
243
225
180
109
18
-85
-188
-280
-351
-393
-401
-377
-326
-259
-188
-128
-92
-87
-118
-183
-273
-375
-475
-558
-612
-627
-600
-533
-434
-315
-192
-79
9
60
69
34
-39
-141
-257
-372
-469
-538
-568
-560
-517
-449
-369
-292
-233
-200
-199
-228
-283
-354
-428
-497
-551
-586
-600
-595
-572
-537
-492
-440
-383
-322
-265
-213
-172
-145
-133
-136
-148
-161
-162
-138
-76
31
187
392
639
917
1217
1527
1841
2158
2477
2803
3141
3496
3873
4272
4689
5120
5553
5978
6380
6745
7053
7286
7425
7454
7360
7138
6790
6332
5786
5182
4558
3948
3384
2887
2469
2129
1854
1627
1425
1228
1021
797
556
309
67
-152
-334
-465
-538
-553
-515
-433
-320
-195
-72
34
113
155
154
113
36
-65
-174
-277
-361
-414
-430
-410
-361
-293
-221
-158
-118
-107
-129
-182
-257
-345
-434
-516
-583
-632
-661
-674
-672
-661
-645
-625
-608
-593
-582
-576
-576
-581
-591
-602
-611
-613
-605
-583
-546
-493
-427
-355
-284
-222
-179
-160
-173
-217
-290
-388
-501
-617
-723
-806
-854
-863
-828
-754
-650
-531
-415
-321
-262
-249
-283
-357
-458
-567
-663
-726
-743
-709
-627
-510
-376
-247
-143
-80
-65
-99
-173
-273
-382
-484
-563
-612
-626
-608
-565
-506
-444
-389
-349
-328
-331
-357
-402
-460
-523
-583
-631
-659
-663
-640
-588
-511
-416
-312
-210
-124
-65
-41
-56
-109
-192
-294
-397
-486
-544
-563
-537
-471
-376
-270
-173
-106
-84
-115
-199
-324
-472
-621
-748
-833
-861
-829
-742
-614
-461
-303
-159
-45
32
66
59
17
-52
-137
-231
-323
-405
-470
-513
-529
-517
-480
-422
-353
-284
-227
-193
-191
-224
-289
-376
-473
-563
-630
-661
-644
-577
-465
-321
-161
-5
129
225
271
265
211
118
2
-119
-229
-312
-360
-369
-341
-287
-220
-153
-100
-72
-75
-110
-172
-253
-345
-434
-512
-569
-599
-600
-571
-512
-430
-330
-220
-112
-16
57
98
101
62
-13
-117
-236
-355
-455
-523
-548
-527
-465
-374
-268
-167
-89
-47
-48
-95
-180
-291
-412
-525
-612
-661
-662
-614
-521
-391
-237
-75
79
209
303
352
352
307
226
122
11
-88
-162
-199
-193
-147
-67
33
136
222
277
289
251
168
46
-97
-244
-375
-471
-519
-511
-448
-335
-186
-20
142
281
379
423
409
340
226
84
-65
-200
-302
-356
-357
-306
-213
-95
31
143
224
263
254
198
105
-14
-142
-266
-372
-449
-490
-493
-457
-390
-299
-198
-99
-15
42
63
44
-13
-98
-198
-294
-368
-405
-395
-337
-240
-121
-2
94
147
143
80
-34
-183
-343
-488
-595
-648
-640
-571
-454
-304
-144
7
132
220
263
264
226
160
74
-21
-115
-198
-263
-303
-315
-299
-256
-192
-114
-33
38
90
112
98
48
-34
-144
-268
-394
-507
-597
-655
-676
-659
-607
-526
-426
-318
-212
-120
-51
-9
5
-8
-40
-82
-123
-151
-159
-142
-98
-33
43
117
175
204
196
146
59
-55
-184
-308
-413
-484
-513
-498
-442
-355
-252
-149
-60
3
32
24
-18
-86
-169
-255
-332
-389
-418
-415
-380
-316
-233
-139
-48
28
79
98
81
30
-48
-141
-237
-322
-385
-416
-412
-377
-316
-242
-167
-102
-59
-41
-53
-90
-148
-220
-297
-372
-438
-489
-521
-530
-515
-476
-416
-339
-250
-159
-77
-14
22
25
-7
-69
-149
-236
-311
-361
-376
-349
-284
-191
-86
14
90
125
109
43
-67
-207
-357
-494
-599
-658
-661
-609
-510
-379
-237
-104
2
65
76
35
-51
-168
-299
-426
-529
-596
-617
-590
-520
-418
-298
-179
-78
-9
16
-7
-76
-182
-311
-446
-569
-661
-710
-707
-652
-551
-417
-269
-125
-5
74
103
80
8
-99
-227
-356
-468
-547
-584
-575
-523
-437
-328
-211
-100
-9
51
76
61
11
-72
-175
-288
-396
-485
-543
-562
-540
-479
-387
-278
-171
-83
-27
-15
-48
-121
-224
-340
-450
-535
-582
-583
-539
-456
-349
-234
-128
-48
-4
-4
-45
-123
-226
-339
-449
-539
-598
-617
-592
-526
-428
-310
-188
-77
6
50
50
5
-78
-185
-300
-406
-486
-526
-521
-468
-374
-251
-115
15
119
183
196
154
59
-80
-247
-420
-579
-702
-775
-786
-736
-631
-487
-324
-164
-31
59
97
79
13
-89
-209
-329
-431
