-838
-495
-426
-724
-533
-324
-641
-661
-280
-451
-676
-291
-325
-663
-352
-154
-437
-346
-80
-246
-378
-93
37
-283
-244
10
-258
-280
44
-100
-275
-104
-131
-372
-309
-206
-542
-553
-200
-478
-678
-344
-467
-726
-537
-440
-700
-709
-404
-614
-819
-405
-390
-830
-590
-307
-677
-706
-394
-551
-688
-416
-416
-683
-513
-259
-509
-633
-440
-552
-643
-314
-342
-719
-542
-317
-629
-661
-348
-504
-711
-430
-419
-740
-581
-331
-611
-740
-398
-479
-800
-503
-427
-761
-580
-429
-691
-689
-414
-538
-741
-448
-456
-773
-574
-356
-564
-552
-262
-437
-649
-295
-212
-512
-195
177
-347
-460
9
-218
-427
-171
-351
-771
-587
-403
-740
-736
-413
-596
-819
-491
-424
-732
-591
-451
-513
154
1571
3408
5556
6576
4861
1912
311
-344
-791
-574
-210
-419
-693
-495
-517
-834
-622
-432
-787
-777
-409
-544
-757
-475
-482
-761
-551
-428
-698
-644
-343
-518
-671
-334
-329
-591
-378
-231
-503
-425
-150
-381
-491
-125
-127
-341
-152
45
-173
-195
156
89
8
204
83
-119
135
303
-42
-28
292
85
-52
197
87
-202
-45
75
-334
-387
-122
-387
-523
-243
-344
-572
-378
-248
-476
-530
-273
-434
-596
-246
-269
-604
-398
-201
-525
-522
-214
-384
-550
-233
-303
-597
-383
-251
-393
-406
-330
-453
-539
-304
-293
-548
-412
-247
-540
-532
-239
-480
-595
-239
-361
-671
-437
-280
-591
-537
-208
-484
-594
-178
-288
-648
-474
-282
-512
-504
-247
-414
-530
-191
-220
-531
-222
27
-341
-382
-76
-187
-220
94
51
-185
40
198
-70
-92
-9
-309
-514
-223
-272
-570
-320
-272
-608
-488
-202
-416
-507
-257
-344
-361
318
1498
3187
5525
6861
5291
2510
929
-143
-635
-121
2
-320
-292
-135
-373
-525
-148
-243
-634
-302
-137
-561
-493
-153
-366
-478
-165
-185
-446
-298
-176
-433
-355
-85
-303
-430
-70
-116
-395
-95
5
-242
-123
8
-167
-211
120
146
-106
97
313
56
40
412
191
-52
413
337
-9
288
355
113
231
382
102
-10
267
117
-257
-70
50
-248
-205
-7
-191
-360
-149
-192
-421
-102
-42
-445
-299
55
-218
-400
-11
-45
-352
-108
46
-261
-206
118
-110
-292
73
-34
-238
48
26
-211
-132
95
-113
-343
-26
-41
-282
-43
-20
-340
-227
59
-174
-322
25
-67
-374
-139
18
-224
-179
71
-170
-255
60
-38
-276
-54
116
-265
-286
83
-122
-226
77
-68
-247
80
193
-124
17
346
58
14
418
361
119
399
489
141
259
403
29
-155
195
77
-346
-79
54
-204
-101
89
-56
-134
-4
-159
-140
744
2060
3942
6286
7177
5357
2832
1405
266
-198
358
439
-41
-40
204
-74
-301
52
-17
-306
-13
114
-194
-71
177
-64
-124
80
-18
-185
16
77
-158
11
272
43
-92
167
101
-150
140
306
2
106
352
69
107
433
201
125
517
449
133
397
658
382
293
593
533
314
540
592
241
395
644
362
251
505
395
94
324
275
-86
90
295
12
-54
237
79
-115
204
245
-111
42
261
-25
-99
237
254
-15
128
172
-72
74
271
45
31
328
146
-70
203
259
-11
104
317
92
28
289
126
-109
175
246
-28
12
254
56
-78
240
101
-157
154
206
-97
103
296
8
-49
211
115
-93
165
220
-71
108
303
-21
-83
243
168
55
339
352
45
173
409
206
179
469
456
261
454
563
288
418
553
125
0
181
45
-136
40
147
-135
-72
221
-54
-157
128
-100
-128
687
1816
3605
6081
7283
5626
3132
1614
380
-86
359
450
34
44
183
-138
-200
94
-62
-310
-36
50
-259
-123
119
-204
-219
162
-9
-251
6
148
-139
-114
230
-61
-224
179
72
-158
157
236
-70
125
401
40
5
418
284
21
342
461
143
401
625
211
219
574
435
223
492
535
161
314
587
343
223
421
289
43
284
288
-94
25
223
-71
-62
218
-15
-179
91
63
-146
-14
120
-47
-115
72
-5
-72
143
42
-165
41
210
-53
-45
268
92
-133
142
174
-202
-104
228
-7
-155
193
69
-200
152
160
-225
-45
144
-134
-149
134
-40
-204
123
71
-261
-103
96
-162
-163
186
-33
-276
40
31
-267
-64
172
-88
-120
145
-31
-203
217
283
-104
115
274
-96
-1
408
271
123
431
385
119
390
525
93
-27
165
-84
-290
0
1
-330
-157
80
-190
-150
206
-97
-480
-9
554
1267
3397
5954
6849
5700
3527
1372
-56
-84
183
-20
130
178
-247
-237
29
-223
-352
-22
65
-304
-297
2
-268
-283
94
-110
-308
23
-9
-294
-44
139
-136
-184
109
-23
-193
143
158
-128
48
259
32
60
308
193
69
303
358
134
302
453
206
266
550
381
230
468
477
276
342
501
290
190
450
254
-3
269
197
-157
69
161
-192
-156
81
-120
-280
45
-3
-330
-72
91
-229
-156
88
-59
-122
44
-8
-235
-38
148
-157
-152
229
67
-275
55
159
-185
-8
169
-144
-108
163
-42
-183
7
-41
-270
-137
43
-222
-202
164
-74
-347
-51
-26
-252
-96
55
-205
-251
36
-118
-377
-38
-21
-391
-121
55
-258
-177
139
-29
-192
102
112
-156
6
276
79
81
385
203
74
325
210
-145
-64
5
-356
-327
-4
-340
-496
-103
-170
-456
-257
-46
-321
-341
77
420
1346
3511
5717
6579
5440
2776
545
-219
-156
-308
-386
-44
-124
-440
-297
-161
-399
-375
-174
-432
-535
-188
-221
-494
-305
-84
-363
-417
-95
-258
-387
-94
-235
-484
-161
5
-350
-346
-16
-160
-331
48
106
-255
-61
145
-130
11
326
43
-15
387
313
39
268
438
130
147
493
236
6
379
341
-31
149
292
-11
-61
45
-201
-323
-77
-175
-475
-293
-133
-413
-385
-99
-312
-448
-188
-220
-359
-248
-212
-402
-353
-94
-240
-317
-25
-146
-482
-263
-92
-408
-334
-47
-277
-441
-166
-205
-504
-223
-83
-590
-539
-121
-343
-540
-217
-243
-567
-227
-58
-551
-471
-162
-350
-491
-275
-274
-507
-263
-129
-489
-428
-145
-422
-497
-90
-207
-474
-203
-37
-303
-325
-48
-178
-261
75
107
-137
10
153
-75
55
159
-230
-390
-205
-322
-598
-304
-239
-641
-487
-164
-364
-510
-246
-393
-528
125
1014
2483
4915
6722
5898
3258
1304
95
-615
-264
73
-324
-456
-210
-492
-614
-253
-380
-667
-417
-281
-617
-501
-216
-480
-561
-276
-299
-501
-360
-225
-467
-404
-111
-394
-495
-94
-205
-521
-263
-78
-328
-224
105
-94
-294
16
35
-212
46
201
-63
26
243
39
51
288
102
-71
126
223
37
44
235
29
-171
116
2
-382
-139
-25
-413
-317
-11
-348
-502
-111
-253
-537
-282
-204
-475
-389
-68
-324
-469
-130
-200
-438
-214
-76
-352
-280
2
-192
-341
23
-62
-480
-167
2
-341
-284
43
-130
-426
-141
-111
-427
-235
-94
-358
-277
-39
-285
-408
-138
-185
-425
-233
-103
-436
-362
-49
-314
-458
-46
-75
-500
-289
-72
-354
-289
-39
-254
-326
23
-32
-284
-22
52
-299
-90
300
31
-65
278
164
1
281
209
-162
-163
-98
-368
-457
-145
-214
-443
-226
-194
-469
-290
-68
-491
-560
144
794
1993
4491
6613
6389
4384
2325
604
-304
49
227
-158
-103
-93
-456
-365
-94
-384
-477
-155
-302
-456
-225
-194
-428
-316
-61
-333
-411
-74
-197
-313
-62
-190
-440
-231
-14
-234
-273
52
-76
-273
19
52
-167
-41
155
-10
-55
249
162
-64
254
366
23
161
395
174
155
329
190
10
307
344
-47
139
336
38
-38
175
27
-213
-6
27
-277
-224
2
-184
-328
-98
-121
-260
-92
-49
-256
-167
35
-175
-244
81
25
-261
-52
76
-208
-153
140
-29
-192
77
-16
-241
35
124
-204
-117
186
-133
-221
132
-91
-323
-46
-8
-297
-121
126
-211
-279
60
-10
-227
-50
4
-249
-103
103
-147
-196
114
2
-217
13
24
-214
-104
157
22
-21
365
242
-148
130
289
50
234
468
279
241
510
391
181
368
255
-158
-92
114
-200
-304
80
23
-272
-49
51
-260
-169
-20
-257
122
1402
3061
5178
6990
6405
3712
1697
594
-206
-91
391
253
-155
-78
-21
-302
-224
33
-219
-358
-59
-144
-356
-96
-24
-339
-209
21
-210
-199
46
-74
-284
-63
50
-250
-101
129
-98
-76
191
9
-169
287
284
-157
89
331
54
51
399
321
152
463
460
122
305
527
261
230
489
335
161
411
431
114
206
359
61
52
221
-49
-220
18
48
-209
-116
86
-150
-197
116
-84
-355
74
128
-378
-163
149
-136
-159
151
31
-222
41
108
-169
41
133
-207
-98
146
-36
-208
7
52
-228
-27
168
-178
-197
53
-110
-272
-1
77
-286
-223
110
-147
-310
14
-46
-294
-6
212
-228
-305
22
-227
-246
49
-173
-268
75
76
-254
-100
280
-22
-226
150
150
27
304
358
25
149
424
103
-33
171
-78
-297
-67
-128
-329
-135
-80
-390
-398
-96
-195
-401
-208
-48
142
1168
3019
5035
6541
6077
3362
957
98
-289
-421
-48
153
-295
-362
0
-303
-557
-233
-236
-514
-327
-93
-350
-385
-57
-219
-446
-117
-78
-417
-300
-63
-313
-348
-22
-169
-325
-38
47
-143
-94
20
-183
-173
157
79
-112
209
299
-11
200
468
178
192
554
349
93
425
496
173
327
541
222
187
511
255
-108
152
136
-224
-38
78
-298
-256
44
-208
-401
-73
-39
-332
-193
0
-215
-256
-11
-44
-250
-107
-36
-212
-25
111
-202
-245
79
-51
-292
-37
18
-250
-62
156
-156
-225
79
-109
-339
27
33
-359
-179
48
-304
-331
93
-63
-408
-133
-66
-370
-215
-53
-247
-266
-58
-179
-354
-96
-108
-407
-237
41
-145
-171
110
-66
-255
40
125
-75
160
389
76
34
300
207
0
99
59
-274
-226
-47
-339
-426
-142
-273
-438
-167
-158
-395
-278
-192
-263
327
1648
3310
5440
6888
5539
2487
805
111
-537
-318
121
-170
-455
-177
-210
-509
-271
-168
-513
-496
-200
-340
-477
-231
-280
-522
-330
-132
-408
-416
-48
-259
-593
-215
-69
-445
-293
-22
-273
-313
12
-81
-316
-22
16
-274
-75
145
-64
-48
270
136
-69
202
215
-38
182
345
54
-3
240
113
-80
156
166
-151
-102
75
-206
-329
-51
-220
-453
-179
-202
-488
-315
-116
-382
-450
-167
-319
-441
-188
-265
-456
-284
-85
-341
-365
60
-162
-492
-138
-110
-432
-235
-62
-332
-296
-48
-253
-434
-99
-127
-542
-302
-96
-417
-346
-125
-366
-468
-162
-168
-480
-241
-50
-485
-485
-137
-275
-485
-239
-182
-493
-330
-77
-372
-462
-170
-338
-447
-83
-142
-420
-170
-33
-321
-236
-12
-133
-193
38
95
-126
-13
203
-43
-34
172
-220
-471
-130
-229
-675
-443
-176
-499
-506
-147
-377
-541
-246
-479
-697
47
1149
2741
5209
6848
5807
3183
1424
289
-412
-96
125
-247
-378
-163
-379
-645
-367
-311
-651
-532
-305
-591
-546
-224
-439
-590
-303
-330
-589
-382
-160
-457
-506
-191
-407
-607
-240
-222
-515
-282
-107
-475
-440
-67
-235
-406
-83
-64
-320
-129
87
-129
-169
121
-10
-202
105
63
-248
28
194
-177
-165
196
-27
-264
98
8
-375
-196
-104
-356
-361
-180
-335
-504
-255
-243
-476
-292
-166
-452
-390
-108
-375
-547
-153
-201
-512
-303
-164
-386
-389
-67
-217
-487
-190
-177
-466
-249
-86
-446
-390
-34
-312
-537
-227
-248
-504
-205
-93
-505
-402
-101
-326
-390
-203
-361
-471
-235
-136
-407
-386
-37
-277
-473
-124
-237
-479
-183
-46
-345
-346
-112
-309
-378
51
-10
-381
-159
16
-234
-111
209
23
-95
243
226
-126
85
195
-213
-307
-168
-348
-478
-241
-286
-480
-261
-202
-523
-410
-144
-490
-543
279
1185
2703
5364
6942
5644
3238
1553
83
-558
-64
-13
-336
-242
-205
-518
-528
-265
-435
-539
-235
-355
-696
-447
-257
-569
-463
-124
-412
-534
-199
-339
-567
-284
-183
-443
-317
-126
-345
-379
-101
-139
-385
-127
126
-244
-283
48
-110
-230
113
174
-141
54
284
-37
35
277
-24
-34
256
103
-103
164
299
-119
-39
351
-77
-357
-12
-49
-365
-155
16
-408
-381
-77
-344
-448
-146
-225
-350
-138
-207
-456
-344
-95
-303
-385
-22
-118
-447
-236
-66
-356
-260
39
-204
-335
-58
-133
-341
-145
-3
-279
-363
-87
-246
-403
-120
-142
-405
-250
-90
-391
-370
-97
-277
-387
-129
-150
-411
-202
-43
-358
-295
-67
-312
-403
-127
-176
-384
-86
142
-257
-338
9
-140
-208
183
124
-103
174
286
-55
-14
262
-16
-291
-136
-232
-483
-349
-201
-434
-509
-217
-350
-543
-204
-267
-645
-168
616
1435
3521
5999
6575
4848
2502
674
-483
-400
-1
-301
-309
-87
-434
-510
-198
-371
-615
-353
-222
-566
-531
-202
-418
-588
-225
-197
-546
-366
-212
-523
-410
-120
-335
-387
-11
-205
-542
-183
-33
-330
-230
71
-117
-239
151
143
-141
104
196
-87
88
392
125
-28
295
265
1
276
400
23
110
329
4
-95
224
54
-315
-105
17
-352
-375
-58
-284
-545
-222
-239
-545
-279
-139
-433
-335
-158
-372
-274
-27
-330
-532
-241
-147
-431
-347
-64
-304
-403
-89
-247
-472
-161
-116
-452
-348
-78
-274
-386
-125
-224
-499
-217
-111
-451
-407
-211
-396
-479
-186
-259
-553
-308
-186
-493
-353
-138
-429
-475
-185
-278
-492
-243
-87
-368
-295
5
-221
-328
-12
-33
-188
8
76
-143
-47
209
-33
-277
-60
-171
-491
-325
-221
-530
-454
-159
-360
-550
-338
-321
-607
-360
1
173
1441
3778
5757
6452
5072
2399
437
-302
-343
-413
-340
-85
-386
-576
-293
-423
-604
-370
-401
-653
-466
-300
-563
-567
-275
-448
-633
-275
-262
-636
-465
-190
-479
-506
-194
-356
-546
-235
-67
-424
-383
-37
-235
-335
-40
-90
-282
41
143
-209
-33
233
-19
-91
207
97
-166
150
256
-108
7
267
29
-159
71
21
-272
-59
-37
-375
-251
-115
-422
-499
-203
-297
-571
-252
-162
-583
-441
-206
-458
-513
-196
-182
-465
-317
-171
-462
-360
-95
-386
-440
-56
-199
-433
-142
-160
-529
-319
11
-356
-476
-119
-211
-414
-239
-213
-480
-349
-119
-370
-456
-138
-228
-509
-257
-166
-490
-354
-81
-389
-506
-156
-196
-459
-267
-184
-481
-337
-32
-233
-304
-39
-151
-331
-69
49
-159
-57
183
-5
-119
111
79
-167
-116
-107
-493
-488
-232
-478
-520
-244
-367
-537
-293
-208
-477
-491
-282
-118
655
2556
4832
6385
6202
3995
1567
394
-86
-306
-165
18
-179
-476
-311
-181
-544
-511
-228
-545
-588
-140
-307
-634
-286
-147
-576
-499
-194
-327
-400
-253
-350
-544
-274
-169
-447
-324
-67
-306
-433
-72
-156
-393
-98
-39
-275
-86
86
-95
-122
76
91
-203
-20
170
-169
-23
250
-50
-88
258
91
-122
122
131
-152
-75
101
-204
-357
-88
-152
-318
-132
-223
-501
-338
-130
-367
-427
-117
-204
-435
-218
-93
-383
-321
-66
-334
-382
-28
-168
-385
-81
44
-245
-253
-40
-237
-319
18
-122
-413
-151
-118
-374
-191
-105
-415
-362
-35
-221
-504
-218
-143
-379
-206
-141
-444
-380
-41
-270
-440
-108
-146
-470
-340
-42
-271
-337
-45
-193
-322
-1
9
-312
-164
80
-80
-38
232
110
-87
169
241
-2
97
128
-238
-374
-130
-278
-539
-190
-166
-534
-273
-50
-420
-460
-214
-338
-131
836
2305
4440
6523
6567
4124
1795
690
-146
-353
126
243
-234
-333
-130
-405
-503
-189
-290
-504
-259
-190
-506
-400
-165
-402
-448
-128
-170
-473
-298
-133
-437
-327
-26
-336
-435
-8
-73
-411
-131
-16
-342
-147
114
-143
-205
155
102
-143
148
252
-48
87
332
123
10
266
183
-91
260
417
-7
112
322
-84
-148
171
22
-284
-94
-11
-310
-215
-36
-337
-398
-77
-174
-354
-161
-185
-415
-218
-23
-405
-453
0
-183
-532
-187
-64
-408
-277
1
-296
-383
-50
-199
-437
-134
-48
-382
-278
-36
-247
-329
2
-176
-593
-228
-85
-374
-250
-90
-312
-391
-116
-218
-395
-132
-150
-444
-281
-117
-371
-370
-100
-201
-445
-180
-18
-361
-151
126
-294
-269
80
-88
-165
192
256
-103
-5
220
-51
-107
22
-253
-478
-278
-304
-547
-348
-175
-485
-528
-128
-308
-632
-347
-260
-179
884
2651
4628
6385
6216
3544
1013
116
-303
-575
-257
1
-379
-462
-151
-421
-676
-293
-294
-628
-443
-268
-531
-538
-223
-305
-500
-350
-327
-534
-370
-162
-458
-460
-96
-252
-446
-157
-129
-395
-209
16
-309
-351
97
-32
-316
22
120
-128
72
323
22
-149
208
181
-40
235
268
-52
138
391
75
1
285
129
-120
32
-3
-313
-239
-36
-273
-398
-172
-270
-412
-231
-197
-384
-349
-188
-380
-406
-85
-256
-479
-127
-78
-392
-198
-6
-319
-334
25
-133
-455
-141
-74
-454
-261
8
-313
-404
-20
-141
-474
-203
-150
-440
-246
-67
-369
-388
-84
-228
-465
-267
-219
-486
-326
-98
-427
-464
-116
-307
-504
-164
-172
-444
-293
3
-140
-332
-24
-97
-376
-16
93
-132
144
294
-82
-85
248
22
-331
-124
-126
-472
-324
-194
-475
-441
-199
-290
-433
-253
-259
-591
-303
444
1118
2826
5519
6755
5374
3163
1294
-234
-485
-57
-213
-277
-53
-349
-570
-245
-300
-609
-419
-200
-476
-540
-256
-428
-524
-225
-355
-581
-359
-237
-460
-379
-116
-364
-539
-197
-230
-504
-210
-31
-378
-337
8
-178
-348
-43
22
-229
-80
155
-104
-78
214
0
-38
169
49
-186
-28
225
-88
-100
202
-33
-222
46
25
-333
-220
-40
-387
-454
-126
-320
-565
-286
-308
-617
-391
-114
-400
-548
-312
-406
-576
-298
-216
-508
-388
-144
-425
-475
-113
-247
-501
-191
-148
-495
-307
-75
-383
-436
-121
-261
-498
-247
-217
-505
-303
-148
-524
-539
-225
-349
-565
-301
-237
-558
-418
-215
-483
-513
-292
-444
-531
-284
-340
-588
-359
-175
-454
-430
-170
-347
-512
-184
-112
-362
-160
-60
-375
-275
59
-52
-192
58
113
-141
19
152
-272
-386
-148
-341
-580
-325
-382
-693
-420
-225
-524
-513
-257
-525
-556
196
1126
2801
5374
6767
5426
2993
1369
40
-545
-43
76
-320
-403
-281
-503
-539
-298
-535
-655
-374
-433
-633
-440
-281
-461
-524
-371
-468
-598
-329
-286
-546
-397
-197
-479
-494
-113
-312
-549
-103
-87
-422
-209
-94
-320
-269
5
-90
-246
-6
106
-131
-14
203
-87
-119
152
-13
-186
162
175
-174
52
192
-145
-110
158
-47
-256
-73
-114
-373
-211
-33
-288
-338
-194
-364
-454
-169
-144
-410
-277
-82
-306
-355
-56
-162
-441
-206
-125
-381
-197
6
-300
-334
-33
-194
-341
-15
-36
-388
-219
-10
-278
-329
-44
-178
-468
-167
-100
-453
-258
-48
-342
-389
-144
-290
-464
-181
-163
-429
-283
-117
-339
-364
-119
-284
-441
-124
-155
-467
-227
-64
-349
-307
-80
-180
-271
-37
-17
-330
-88
244
-103
-77
331
124
-103
219
208
-177
-47
-48
-495
-489
-247
-411
-548
-240
-229
-560
-388
-185
-496
-558
-176
226
1258
3581
5862
6503
5264
2907
832
-177
-201
-130
-182
-22
-250
-602
-365
-156
-472
-583
-360
-468
-572
-302
-303
-585
-405
-157
-391
-485
-253
-367
-485
-221
-271
-542
-334
-133
-436
-393
5
-239
-442
-36
-77
-407
-80
200
-185
-230
108
-38
-183
167
193
-95
123
251
-88
-84
202
86
-48
157
108
-128
85
260
-128
-186
125
-174
-475
-167
-142
-444
-263
-85
-363
-371
-137
-286
-438
-146
-117
-436
-256
-45
-332
-371
-88
-218
-400
-124
-99
-373
-111
133
-347
-347
129
-193
-432
-54
-95
-395
-195
1
-250
-261
-45
-231
-357
-64
-143
-422
-218
-82
-357
-320
-35
-245
-297
-91
-271
-449
-232
-8
-296
-414
-102
-231
-395
-86
-116
-390
-131
75
-162
-205
12
-103
-229
175
215
-43
191
263
-60
12
319
34
-287
-76
-163
-475
-222
-136
-548
-442
-57
-269
-480
-178
-245
-590
-169
544
1294
3262
5827
6709
5256
2904
919
-337
-383
-5
-165
-216
-15
-240
-476
-222
-227
-500
-263
-78
-404
-374
-110
-294
-424
-123
-140
-478
-271
5
-329
-408
-31
-175
-379
-59
-37
-333
-185
42
-188
-194
128
10
-154
138
161
-63
279
424
-11
79
460
273
124
402
373
165
256
325
115
120
429
264
-3
259
320
-26
-5
117
-167
-196
73
-106
-333
-47
-51
-328
-156
38
-200
-285
1
-104
-318
-68
-2
-264
-174
-23
-211
-203
54
-59
-247
37
57
-304
-134
54
-272
-238
110
-150
-426
-80
-57
-411
-258
-44
-312
-326
-33
-248
-367
-53
-170
-413
-208
32
-257
-406
-67
-171
-353
-107
-152
-411
-240
-86
-370
-239
141
-218
-371
64
-15
-356
-103
146
-99
-74
274
161
-102
221
291
-94
-25
116
-222
-345
-33
-261
-513
-163
-149
-367
-253
-149
-352
-418
-164
-114
281
1799
3785
5661
6757
5426
2443
623
18
-377
-315
49
-13
-385
-237
-123
-494
-422
-80
-317
-515
-203
-241
-482
-271
-88
-317
-381
-95
-223
-463
-171
-116
-358
-174
15
-235
-236
76
5
-182
7
64
-173
58
252
-20
45
260
97
2
335
331
2
231
439
150
167
444
258
69
326
334
108
265
358
29
4
236
-33
-270
-2
-15
-334
-125
52
-320
-258
21
-260
-395
-111
-102
-348
-177
31
-249
-225
76
-118
-306
-3
10
-282
-22
118
-309
-228
145
-85
-203
55
-21
-239
-107
7
-248
-253
25
-132
-353
-71
-21
-335
-119
22
-392
-333
67
-209
-420
-12
-82
-373
-141
-43
-316
-294
-5
-200
-413
-57
-55
-364
-166
-21
-288
-212
145
16
-146
57
-13
-154
126
246
69
137
291
110
0
311
271
-219
-205
-7
-331
-400
-79
-280
-491
-145
-132
-469
-273
-133
-535
-311
574
1407
3298
5973
6916
5238
2931
1310
-67
-315
137
-54
-267
-73
-174
-545
-335
-131
-514
-520
-140
-320
-512
-230
-281
-572
-339
-75
-416
-491
-131
-247
-491
-227
-190
-493
-201
-23
-447
-386
-14
-159
-340
-47
-13
-301
-104
134
-113
-132
207
72
-64
330
203
-174
126
290
-67
7
318
78
-30
193
112
-119
18
174
-133
-182
94
-128
-367
-87
-51
-307
-113
22
-368
-328
14
-215
-354
-57
-39
-380
-283
32
-269
-324
46
-141
-351
-57
0
-288
-172
42
-206
-256
17
-116
-311
-22
9
-379
-196
64
-325
-364
-22
-212
-427
-60
33
-442
-378
-94
-328
-342
-123
-277
-403
-117
-79
-467
-345
-66
-328
-320
-85
-274
-443
-143
-69
-430
-233
28
-312
-326
20
-74
-279
-27
78
-205
3
267
-54
-30
275
86
-75
231
183
-209
-177
-77
-388
-471
-173
-241
-395
-279
-286
-503
-310
-72
-549
-555
315
1145
2807
5487
6790
5474
3219
1415
-41
-434
32
-24
-308
-220
-280
-527
-410
-260
-643
-667
-213
-478
-711
-336
-356
-654
-441
-241
-570
-539
-167
-364
-564
-271
-227
-441
-352
-269
-397
-307
-123
-318
-423
-58
-87
-411
-201
-4
-235
-261
24
-110
-288
56
101
-218
-70
105
-208
-138
195
-36
-164
111
48
-173
23
43
-386
-353
-31
-280
-502
-247
-293
-567
-352
-218
-575
-539
-207
-447
-602
-235
-316
-631
-329
-102
-502
-554
-136
-220
-580
-341
-202
-489
-290
-91
-415
-430
-85
-260
-451
-179
-252
-540
-339
-93
-366
-408
-120
-323
-445
-201
-330
-577
-331
-151
-448
-417
-192
-400
-505
-197
-219
-555
-353
-213
-537
-484
-191
-326
-466
-215
-273
-482
-218
-201
-451
-291
0
-111
-306
-106
-119
-373
-129
159
-87
-86
213
13
-94
211
57
-263
-149
-201
-516
-394
-122
-417
-626
-352
-274
-440
-406
-263
-523
-559
67
654
1893
4414
6476
6253
4222
1982
278
-479
-273
-158
-351
-169
-179
-609
-476
-244
-555
-512
-231
-472
-627
-317
-294
-599
-414
-178
-493
-493
-119
-395
-565
-160
-253
-498
-278
-94
-363
-401
4
-139
-363
-38
-86
-346
-89
145
-173
-204
220
73
-94
229
204
-72
99
263
-16
-38
312
193
7
207
145
-58
115
237
-111
-164
128
-150
-372
-33
-108
-424
-270
-96
-293
-357
-127
-241
-447
-160
-103
-439
-212
42
-353
-345
-24
-212
-324
-46
-22
-258
-174
-61
-319
-308
23
-137
-312
-31
-108
-378
-168
-50
-351
-321
74
-154
-507
-160
-61
-350
-244
-72
-324
-332
-44
-202
-384
-177
-149
-392
-224
-40
-318
-328
-39
-148
-390
-175
-103
-305
-213
-91
-184
-169
78
-38
-288
4
111
-183
24
287
40
61
332
203
-6
194
155
-318
-176
26
-397
-334
-13
-327
-475
-96
-116
-389
-175
-75
-443
-140
958
2122
4106
6501
6713
4257
1908
653
-348
-266
247
-87
-365
-145
-104
-420
-346
-122
-398
-357
-94
-342
-492
-191
-153
-429
-294
-70
-334
-384
-36
-122
-275
-46
-128
-385
-147
57
-171
-215
108
34
-259
54
170
-146
28
251
8
-20
264
176
4
295
342
-11
108
314
104
106
354
195
-17
301
335
-50
129
275
-96
-103
98
-112
-276
-16
-21
-375
-242
11
-283
-315
22
-177
-308
4
-96
-354
-133
53
-255
-179
166
-167
-328
49
26
-230
-51
55
-238
-230
64
-92
-299
-11
-1
-298
-98
41
-252
-197
-18
-228
-366
-104
-31
-306
-208
22
-242
-343
-69
-274
-429
-61
-117
-441
-256
-42
-288
-309
-60
-275
-385
-64
-57
-349
-203
-16
-368
-307
55
-163
-318
21
110
-217
-120
129
-62
40
362
189
-10
273
316
-3
73
158
-209
-317
29
-143
-512
-210
-114
-432
-330
-104
-354
-364
-65
-315
-104
1211
2960
5018
6737
6157
3377
1336
453
-268
-275
191
88
-332
-300
-179
-376
-421
-153
-320
-566
-210
-113
-473
-377
-130
-359
-431
-139
-226
-401
-131
-114
-441
-307
-85
-320
-282
12
-144
-342
-80
-11
-276
-89
122
-138
-112
230
61
-135
263
226
-146
119
302
-25
-21
286
133
-37
271
208
-131
125
281
-20
-28
198
18
-220
5
-3
-316
-152
67
-273
-391
-26
-212
-507
-111
-83
-389
-76
-6
-398
-274
26
-83
-275
-143
-64
-250
-118
75
-198
-255
69
-81
-324
65
72
-373
-41
386
-76
-372
-26
-132
-353
-87
-8
-230
-168
5
-271
-271
74
-203
-362
7
-29
-322
-175
22
-226
-274
51
-135
-393
48
73
-416
-239
33
-240
-303
49
-53
-378
-100
30
-195
-17
175
-104
-173
138
36
-71
312
354
87
261
373
86
112
295
19
-203
-19
-40
-359
-210
58
-296
-373
-7
-129
-330
-81
-99
-303
285
1441
3010
5375
7075
5924
3213
1511
349
-380
26
394
-89
-304
-17
-205
-420
-99
-90
-461
-286
-47
-314
-345
-35
-186
-382
-35
-62
-436
-215
-22
-264
-211
35
-63
-267
-79
98
-192
-191
99
-114
-123
220
97
-57
245
300
-28
125
348
104
110
359
226
64
335
330
-38
177
424
61
91
428
229
-4
199
219
-61
34
143
-165
-168
97
-98
-205
75
-47
-333
-116
62
-223
-209
111
-65
-251
31
-7
-278
-45
94
-214
-157
137
-42
-198
71
77
-206
-38
160
-156
-203
120
30
-206
-71
-42
-268
-107
116
-208
-263
79
-106
-318
-68
-56
-324
-158
2
-276
-216
32
-116
-280
-74
-34
-319
-167
43
-255
-262
87
-55
-286
6
-20
-340
-127
23
-230
-180
136
18
-194
96
151
-216
-23
338
110
81
405
209
15
390
376
-64
10
127
-223
-283
39
-86
-387
-64
-1
-371
-106
16
-348
-376
-19
353
1213
3409
5766
6647
5660
3327
1060
-66
-105
-34
-52
193
53
-404
-261
-38
-329
-361
-115
-277
-437
-179
-134
-386
-308
-85
-275
-325
7
-147
-445
-163
-85
-334
-150
36
-189
-226
48
-56
-247
78
124
-151
75
261
-54
-25
357
160
-43
340
434
103
185
415
137
85
366
217
58
329
349
68
237
426
95
-44
167
3
-209
72
94
-213
-133
58
-156
-258
47
-96
-341
2
-8
-363
-143
49
-246
-259
3
-113
-244
14
32
-220
-77
114
-152
-192
114
-82
-240
33
-61
-322
-131
35
-298
-305
23
-160
-370
-136
-79
-363
-241
5
-253
-285
-13
-193
-358
-78
-86
-362
-154
-3
-370
-360
6
-185
-374
-56
-137
-395
-128
5
-307
-273
-17
-174
-330
-89
-12
-205
-30
110
-160
-171
135
113
-12
254
284
-4
159
328
75
-9
133
-38
-327
-215
-190
-424
-202
-48
-443
-381
7
-225
-456
-200
-131
-32
1017
2807
4790
6515
6421
3806
1206
247
-141
-358
-91
111
-219
-297
-31
-196
-458
-227
-188
-421
-207
-98
-375
-272
-45
-303
-462
-133
-94
-405
-226
6
-287
-358
-54
-114
-277
-52
-49
-281
-61
132
-146
-146
174
27
-42
253
147
-4
204
299
101
127
403
239
11
299
352
34
187
440
91
-33
295
106
-149
113
89
-246
-124
46
-249
-338
-33
-113
-417
-134
-19
-411
-266
33
-266
-362
8
-102
-374
-111
-43
-329
-201
1
-249
-273
58
-117
-361
-40
-31
-310
-106
11
-269
-192
13
-281
-308
7
-169
-422
-221
-24
-262
-310
-22
-152
-312
-94
-137
-415
-268
-73
-335
-336
-56
-217
-386
-130
-105
-369
-230
-23
-300
-354
-69
-227
-402
-122
-74
-385
-277
10
-171
-224
21
-132
-262
44
40
-220
32
261
39
116
314
120
7
155
45
-284
-176
-68
-403
-423
-153
-293
-361
-100
-242
-509
-280
-130
-421
-190
788
2024
4044
6407
6743
4390
2060
824
-279
-434
132
-4
-331
-173
-214
-521
-431
-214
-372
-457
-311
-441
-550
-244
-209
-525
-365
-184
-450
-436
-210
-361
-484
-239
-151
-408
-386
-118
-269
-312
-48
-198
-287
24
-55
-355
-90
160
-118
-103
254
135
-58
201
219
-51
96
297
-12
-23
349
55
-143
183
105
-135
59
209
-68
-104
24
-243
-361
-31
-42
-397
-269
-98
-393
-341
-42
-271
-445
-140
-138
-399
-185
-28
-333
-304
-3
-122
-333
-148
-79
-296
-126
-14
-355
-290
28
-187
-359
-86
-61
-320
-205
-17
-259
-324
-51
-175
-364
-76
-86
-387
-150
20
-351
-276
69
-200
-422
-122
-110
-411
-211
-12
-334
-340
-34
-199
-399
-112
-70
-348
-197
-45
-310
-289
-12
-149
-304
-19
54
-189
-43
105
-216
-258
151
144
-86
235
278
-102
128
360
49
-56
93
-138
-415
-182
-176
-480
-255
-90
-383
-284
63
-258
-584
-235
-47
143
1459
3744
5719
6616
5549
2792
721
48
-177
-187
56
57
-330
-346
-41
-292
-557
-213
-181
-444
-221
-151
-490
-381
-83
-313
-480
-149
-161
-493
-311
-63
-307
-322
-28
-223
-399
-60
2
-288
-157
73
-214
-227
169
57
-163
88
128
-69
93
274
44
-18
282
148
-40
252
246
-54
103
272
50
2
228
105
-127
104
116
-234
-125
53
-304
-344
12
-247
-510
-126
-53
-385
-271
-109
-374
-336
-42
-237
-435
-107
-76
-361
-185
-35
-296
-294
11
-156
-371
-71
-50
-308
-62
-1
-391
-298
-23
-194
-324
-102
-154
-368
-232
-175
-401
-369
-74
-240
-453
-140
-124
-481
-298
-48
-355
-371
-90
-216
-371
-216
-183
-398
-287
-65
-238
-291
-96
-267
-402
-127
-172
-394
-217
-54
-252
-279
43
-34
-222
41
-13
-319
8
348
4
-23
330
109
-85
294
249
-229
-182
-111
-461
-424
-132
-329
-470
-225
-244
-462
-275
-101
-456
-440
234
1017
2557
5068
6751
5958
3630
1582
24
-395
92
-125
-395
-89
-158
-526
-354
-192
-497
-468
-174
-337
-513
-246
-257
-521
-305
-164
-448
-332
-82
-374
-487
-133
-193
-486
-147
9
-401
-331
-61
-214
-308
2
56
-217
-12
214
-82
-35
294
82
-97
191
313
29
121
380
86
13
396
255
-136
195
291
-69
108
262
-65
-182
37
-128
-377
-112
-123
-430
-209
-100
-387
-291
-72
-320
-441
-163
-179
-360
-196
-87
-301
-327
-80
-223
-405
-90
-87
-387
-224
-27
-252
-265
-58
-186
-264
-65
-150
-413
-235
-17
-217
-311
-133
-214
-355
-125
-155
-474
-309
-76
-354
-362
-21
-261
-482
-109
-77
-409
-263
-151
-410
-352
-159
-289
-409
-154
-150
-439
-251
-50
-317
-353
-50
-137
-330
-39
-40
-379
-214
-41
-253
-155
222
59
-124
204
179
-199
133
355
-342
-414
-14
-305
-619
-309
-203
-558
-378
-154
-490
-449
-103
-346
-528
88
756
1702
3966
6322
6496
4496
2153
421
-599
-492
-129
-393
-310
-128
-494
-515
-186
-382
-587
-250
-263
-576
-360
-170
-516
-515
-159
-342
-504
-183
-99
-379
-363
-113
-331
-443
-132
-253
-427
-126
-97
-396
-196
34
-214
-116
197
26
-115
165
260
0
170
522
146
33
461
267
58
406
374
-18
182
414
68
26
281
21
-221
42
-4
-353
-164
-42
-430
-333
-42
-359
-513
-136
-135
-455
-252
-30
-331
-392
-69
-241
-451
-106
-119
-373
-131
30
-284
-284
5
-211
-392
-62
-79
-465
-257
-33
-373
-354
-37
-242
-444
-117
-55
-448
-382
-164
-405
-389
-101
-262
-425
-149
-243
-510
-234
-153
-496
-428
-118
-312
-473
-135
-124
-448
-290
-43
-308
-436
-125
-228
-397
-41
-45
-290
-23
19
-337
-132
284
3
-189
217
174
-136
124
262
-153
-226
-33
-322
-554
-275
-220
-530
-391
-209
-508
-480
-152
-338
-579
-135
501
1439
3602
5996
6578
5019
2660
641
-445
-319
-77
-306
-254
-144
-497
-618
-300
-402
-587
-324
-384
-683
-416
-201
-540
-455
-107
-418
-619
-269
-220
-513
-334
-66
-447
-526
-127
-259
-437
-113
-128
-445
-178
62
-291
-268
112
-82
-257
149
141
-196
68
261
-50
-3
312
147
-23
218
143
-145
139
257
-113
-59
179
-67
-252
-32
-114
-401
-183
-121
-536
-465
-182
-428
-554
-220
-242
-529
-294
-165
-533
-418
-37
-310
-519
-182
-205
-467
-287
-130
-413
-400
-27
-269
-488
-120
-200
-494
-257
-98
-297
-307
-181
-351
-506
-132
-73
-510
-328
-113
-473
-454
-159
-334
-415
-187
-285
-481
-283
-195
-462
-425
-178
-347
-542
-229
-194
-572
-368
-76
-409
-468
-162
-353
-510
-195
-204
-490
-202
-12
-387
-331
-17
-220
-404
-62
57
-186
-59
156
-93
-31
287
-15
-184
18
-136
-469
-336
-159
-533
-603
-215
-400
-692
-344
-282
-611
-442
-302
-353
429
2250
4505
6248
6432
4340
1697
440
-158
-414
-108
35
-400
-613
-362
-460
-690
-444
-316
-554
-587
-386
-445
-616
-415
-298
-581
-518
-288
-472
-434
-282
-495
-532
-246
-299
-569
-337
-136
-462
-378
-73
-231
-326
-142
-161
-333
-70
77
-109
-29
124
-25
-143
202
266
-86
36
215
-44
-7
266
63
-98
165
110
-190
-86
0
-342
-267
59
-365
-537
-111
-221
-542
-317
-182
-427
-357
-171
-385
-496
-201
-232
-524
-289
-88
-431
-333
-22
-410
-555
-165
-177
-444
-324
-167
-420
-376
-77
-237
-397
-193
-204
-433
-248
-69
-389
-317
28
-335
-539
-229
-261
-470
-287
-114
-433
-500
-189
-343
-462
-141
-238
-497
-300
-256
-510
-395
-96
-379
-596
-220
-305
-554
-269
-178
-444
-424
-230
-395
-471
-166
-156
-370
-163
-81
-349
-165
49
-193
-184
142
60
-155
37
111
-187
-280
-151
-425
-610
-245
-331
-692
-400
-277
-608
-474
-192
-474
-747
-341
218
1039
3210
5710
6590
5429
3100
946
-290
-358
-150
-274
-129
-215
-640
-507
-331
-633
-755
-381
-373
-778
-564
-402
-689
-590
-324
-536
-664
-313
-370
-681
-434
-206
-542
-564
-230
-438
-475
-170
-362
-553
-238
-112
-364
-240
15
-168
-265
22
4
-193
70
213
-115
-70
228
24
-102
206
207
-87
25
152
-115
-98
133
-158
-284
1
-143
-401
-300
-196
-405
-483
-263
-399
-566
-242
-231
-632
-429
-167
-556
-534
-227
-446
-524
-216
-262
-560
-342
-147
-439
-407
-180
-351
-443
-162
-254
-559
-278
-168
-476
-353
-74
-301
-444
-155
-222
-516
-282
-105
-417
-462
-230
-343
-502
-228
-245
-503
-230
-173
-506
-443
-178
-319
-473
-253
-301
-531
-295
-105
-487
-508
-137
-368
-491
-137
-228
-464
-251
-105
-301
-243
63
-139
-372
-49
7
-208
77
286
-75
-64
285
56
-104
128
-113
-510
-296
-166
-508
-442
-139
-351
-467
-142
-262
-531
-295
-218
-263
506
1949
3660
5746
6717
4751
1812
474
-90
-565
-396
-75
-281
-463
-215
-272
-569
-322
-242
-632
-470
-164
-447
-536
-230
-313
-561
-374
-214
-481
-371
-88
-449
-474
-83
-231
-487
-206
-60
-401
-216
117
-264
-359
-3
-45
-239
-16
147
-144
-33
282
57
40
327
194
37
285
357
99
168
400
210
14
220
148
-194
6
24
-401
-268
-11
-285
-479
-234
-210
-475
-377
-256
-478
-420
-181
-376
-533
-237
-220
-527
-323
-107
-380
-436
-224
-423
-500
-83
-196
-538
-262
-61
-383
-423
-162
-381
-508
-186
-292
-602
-351
-203
-463
-436
-281
-395
-545
-400
-397
-606
-352
-235
-564
-446
-150
-392
-573
-328
-378
-633
-380
-213
-565
-470
-185
-460
-551
-217
-366
-650
-253
-97
-483
-367
-86
-319
-336
-86
-274
-401
-28
96
-96
-22
109
-88
-156
124
-56
-379
-175
-167
-517
-466
-233
-521
-573
-145
-371
-745
-391
-289
-679
-399
419
1282
3093
5602
6575
4971
2588
841
-370
-558
-235
-327
-433
-293
-380
-631
-491
-343
-684
-664
-274
-512
-661
-299
-390
-647
-389
-333
-634
-461
-204
-441
-501
-212
-236
-526
-349
-170
-451
-347
-84
-323
-352
2
-151
-354
-84
-30
-238
-94
208
24
-54
212
103
3
208
233
25
39
268
107
-32
217
120
-197
1
109
-286
-273
-91
-309
-372
-208
-312
-547
-345
-198
-487
-452
-146
-417
-677
-296
-333
-615
-326
-247
-547
-363
-84
-328
-381
-166
-337
-512
-221
-55
-338
-216
51
-306
-372
-104
-226
-393
-261
-146
-425
-388
-40
-305
-440
-96
-226
-500
-252
-169
-472
-336
-58
-371
-476
-160
-294
-426
-246
-233
-430
-367
-77
-288
-525
-228
-243
-487
-202
-108
-438
-294
-26
-312
-443
-101
-156
-444
-163
43
-240
-186
85
-177
-314
96
74
-184
157
245
-131
85
322
-105
-266
-68
-282
-510
-272
-203
-540
-414
-142
-471
-448
-50
-302
-668
-284
299
1009
3063
5758
6735
5467
3386
1432
-41
-189
95
-206
-204
9
-422
-645
-245
-373
-577
-174
-209
-653
-477
-187
-433
-550
-157
-209
-588
-320
-131
-470
-365
-83
-401
-416
-33
-207
-445
-157
-90
-329
-163
37
-171
-257
-34
-51
-138
94
139
-65
93
304
59
54
328
229
25
181
280
36
135
351
124
19
315
178
-218
15
91
-201
-146
-60
-284
-347
-72
-118
-366
-212
-76
-351
-334
-46
-297
-364
44
-141
-493
-184
-57
-348
-207
4
-274
-320
-54
-231
-386
-126
-72
-359
-263
57
-238
-410
24
-52
-509
-245
-40
-379
-284
-57
-332
-373
-48
-177
-348
-133
-157
-410
-270
-59
-332
-419
-107
-202
-455
-214
-137
-426
-283
-65
-292
-338
-144
-288
-447
-155
-115
-412
-229
-65
-425
-414
94
-80
-425
-38
26
-325
-135
172
-71
-74
290
175
-26
122
167
-87
-92
14
-329
-415
-162
-371
-516
-258
-272
-520
-380
-132
-344
-556
-265
64
602
2484
4960
6457
6248
4244
1875
258
-216
-118
-146
63
-29
-423
-290
-109
-447
-514
-182
-309
-531
-245
-199
-461
-276
-91
-420
-480
-91
-176
-465
-193
-64
-287
-245
-153
-336
-348
52
-66
-370
-51
-6
-309
-146
114
-98
-146
239
162
-107
225
295
-17
101
331
243
99
310
252
-35
282
349
-14
122
324
19
-83
200
-9
-313
-60
-13
-314
-149
32
-385
-422
-41
-189
-410
-74
-20
-384
-249
-144
-360
-285
-28
-196
-452
-64
27
-382
-209
43
-231
-274
-11
-122
-264
-48
-112
-368
-199
85
-147
-276
69
-150
-442
-78
-30
-375
-229
13
-282
-348
-31
-201
-372
-17
-116
-496
-189
33
-352
-357
9
-237
-446
-79
-101
-364
-224
-81
-321
-352
57
-141
-453
-63
-43
-276
-81
33
-143
-145
101
-46
-192
179
259
-6
120
414
184
-81
160
162
-186
-155
-120
-422
-300
-64
-368
-402
-38
-291
-544
-195
-253
-464
56
1025
2346
4511
6592
6211
3598
1472
223
-532
-327
81
-142
-346
-93
-163
-491
-319
-204
-436
-299
-184
-480
-475
-167
-306
-516
-217
-155
-446
-211
-45
-423
-341
-54
-278
-431
-45
48
-398
-173
115
-295
-246
141
-65
-244
174
221
-137
100
363
64
81
418
274
98
380
405
137
364
543
157
139
463
236
-40
195
195
-147
-73
18
-313
-351
-107
-229
-446
-202
-229
-539
-245
-147
-499
-415
-107
-307
-510
-209
-229
-486
-257
-147
-442
-386
-80
-241
-466
-176
-149
-455
-260
-146
-434
-350
-25
-298
-569
-195
-178
-471
-327
-224
-462
-474
-245
-360
-507
-234
-234
-565
-450
-162
-402
-594
-236
-322
-619
-282
-212
-556
-423
-223
-506
-530
-144
-301
-583
-269
-207
-497
-299
-64
-277
-262
-117
-304
-352
-5
90
-182
37
318
-142
-300
49
-194
-493
-282
-280
-570
-535
-352
-566
-623
-300
-384
-558
-308
-384
-711
-371
362
1244
3070
5556
6449
4777
2441
669
-535
-583
-263
-512
-527
-296
-533
-691
-417
-483
-769
-626
-462
-734
-733
-431
-613
-758
-445
-425
-704
-598
-346
-580
-695
-329
-492
-772
-393
-365
-672
-463
-302
-575
-507
-182
-382
-528
-141
-59
-400
-224
79
-221
-179
209
-80
-249
94
61
-167
-13
168
-126
-170
146
-79
-341
-61
-72
-525
-440
-243
-567
-601
-368
-581
-769
-516
-528
-777
-547
-395
-740
-787
-519
-639
-785
-518
-524
-763
-603
-445
-628
-742
-551
-600
-751
-463
-408
-671
-544
-390
-665
-680
-330
-467
-723
-520
-570
-826
-584
-398
-710
-731
-377
-585
-870
-495
-514
-876
-682
-504
-824
-855
-560
-636
-717
-656
-750
-863
-664
-536
-830
-810
-547
-743
-837
-561
-589
-834
-705
-504
-760
-770
-413
-557
-733
-396
-376
-759
-582
-221
-429
-468
-196
-343
-456
-205
-275
-553
-524
-550
-843
-847
-557
-740
-974
-603
-619
-991
-660
-442
-987
-1023
-389
63
1313
3898
5959
5982
4225
2057
360
-581
-510
-424
-651
-449
-476
-933
-787
-578
-910
-846
-486
-788
-1051
-619
-556
-885
-672
-483
-784
-769
-471
-651
-807
-447
-490
-832
-612
-366
-644
-711
-399
-484
-677
-439
-335
-617
-477
-209
-476
-435
-97
-269
-417
-140
-135
-347
-84
94
-304
-325
62
-78
-337
-108
-75
-375
-259
-68
-371
-473
-233
-414
-580
-307
-396
-735
-532
-355
-691
-672
-396
-615
-620
-285
-493
-788
-502
-328
-579
-494
-234
-483
-622
-282
-290
-582
-382
-179
-463
-467
-176
-370
-511
-237
-294
-472
-289
-189
-426
-422
-185
-428
-578
-241
-307
-561
-285
-153
-493
-463
-208
-379
-473
-170
-269
-626
-366
-148
-445
-469
-237
-407
-471
-181
-288
-546
-306
-163
-494
-441
-149
-314
-461
-210
-184
-434
-199
35
-321
-281
148
-68
-238
72
66
-170
-7
205
-8
-118
-18
-292
-542
-240
-247
-638
-414
-189
-493
-410
-137
-376
-579
-304
-208
-217
885
2887
4928
6588
6267
3690
1548
471
-285
-293
93
48
-355
-347
-175
-447
-591
-283
-314
-552
-329
-135
-450
-508
-182
-389
-521
-189
-250
-368
-287
-284
-435
-404
-102
-296
-453
-115
-167
-407
-143
62
-175
-227
69
43
-130
104
139
-106
71
286
85
175
428
157
68
380
296
46
246
370
69
153
373
20
-57
229
37
-181
-50
-24
-302
-298
1
-178
-325
-91
-105
-315
-203
-85
-344
-302
-11
-203
-360
-57
-120
-389
-125
23
-277
-202
124
-156
-279
95
3
-261
-72
81
-98
-116
50
-126
-226
66
-19
-294
-61
50
-274
-182
77
-135
-215
22
-84
-336
-90
73
-266
-202
139
-87
-214
126
-13
-267
117
109
-331
-167
116
-75
-183
55
25
-175
82
187
-136
18
310
13
-46
386
376
167
428
503
239
276
417
179
-63
202
83
-312
-2
115
-256
-191
72
-108
-236
87
2
-360
13
602
1240
3068
5677
6892
5811
3529
1360
84
-98
23
-52
61
210
-31
-245
43
-60
-404
-106
10
-268
-211
61
-50
-222
18
-3
-227
58
124
-231
-80
217
-44
-148
149
58
-186
147
290
-72
57
311
111
71
396
381
151
334
470
300
421
615
445
379
604
582
395
610
740
443
501
728
455
355
594
388
76
322
342
14
86
198
-21
-115
162
99
-174
129
235
-172
-30
234
-62
-111
204
82
-163
140
245
-108
30
304
-1
-100
182
39
-170
82
152
-108
-29
176
-50
-72
183
7
-224
4
172
-146
-114
150
-110
-161
152
40
-211
-30
74
-186
-91
184
-75
-171
172
19
-240
122
144
-281
-87
218
-64
-178
169
181
3
166
203
-1
87
367
209
129
523
381
59
384
448
129
232
280
-85
-115
192
21
-265
46
143
-250
-67
289
-67
-165
118
128
484
1846
3938
5950
6928
5507
2683
829
146
-107
-174
143
196
-208
-136
60
-150
-192
-40
-167
-391
-46
123
-391
-280
66
-229
-242
97
-46
-238
-44
-25
-234
-118
106
-85
-154
130
27
-178
163
263
-102
97
397
124
64
346
306
102
379
538
299
316
457
341
316
581
426
155
467
525
190
326
478
150
60
372
218
-242
-71
85
-190
-114
26
-258
-315
-8
-95
-311
-63
10
-300
-165
80
-171
-174
131
-43
-335
-10
164
-291
-153
191
-179
-216
113
24
-180
-49
39
-245
-127
155
-177
-236
117
-76
-293
-19
-15
-302
-186
79
-193
-299
37
-13
-186
-122
-94
-255
-153
41
-185
-159
47
-164
-322
-94
-76
-279
-59
19
-319
-279
16
-52
-185
53
124
-101
32
125
-138
21
437
237
10
310
363
63
199
473
50
-204
107
-88
-377
-114
-18
-268
-236
-22
-246
-304
19
-183
-426
15
633
1659
3981
6350
6663
4925
2868
1158
-79
-60
217
-22
32
74
-330
-385
-92
-229
-458
-201
-133
-313
-126
-140
-463
-396
-63
-217
-450
-73
-18
-432
-245
-16
-318
-327
-5
-82
-305
-94
23
-237
-135
104
-170
-165
220
49
-107
183
189
-3
128
319
87
47
460
310
10
370
359
29
254
364
25
-2
304
150
-124
144
140
-279
-155
41
-210
-187
36
-191
-326
54
0
-382
-165
61
-249
-275
20
-145
-316
-38
-6
-215
4
105
-224
-169
163
6
-138
92
40
-172
39
179
-170
-149
138
-49
-218
55
45
-284
-75
120
-169
-162
111
-72
-298
1
68
-187
-70
16
-198
-138
80
-144
-299
4
-16
-284
-85
109
-190
-253
82
-14
-283
-21
51
-235
5
265
-26
-115
170
67
-44
304
309
73
285
407
98
143
388
121
-183
-12
0
-301
-188
-50
-397
-381
7
-176
-374
6
-38
-508
-54
880
1907
4204
6612
6662
4538
2494
1004
-136
-62
355
48
-144
101
-113
-425
-145
-146
-481
-254
-23
-378
-401
-1
-163
-451
-161
-27
-335
-295
-76
-265
-286
-27
-186
-324
65
87
-314
-119
132
-137
-105
242
54
-195
135
196
-75
129
366
103
107
428
242
109
362
278
46
255
433
160
206
446
219
75
300
302
-83
-9
202
-133
-129
134
-104
-234
37
-51
-321
-93
35
-251
-174
60
-126
-245
70
29
-311
-33
136
-191
-80
117
-152
-214
78
1
-266
-45
103
-171
-163
107
-32
-226
41
67
-270
-111
100
-200
-171
100
-215
-363
63
49
-292
-67
117
-256
-264
70
-136
-322
14
-37
-348
-132
58
-107
-147
-57
-216
-308
24
27
-311
-155
71
-95
-105
131
-3
-171
161
147
-97
223
431
122
98
443
276
41
260
78
-295
-98
82
-288
-380
-57
-229
-429
-100
-61
-330
-187
-110
-413
-97
904
1967
3961
6458
6820
4523
2142
732
-359
-393
118
-10
-197
-87
-183
-397
-224
-100
-398
-366
-72
-252
-420
-100
-136
-501
-247
-35
-304
-264
-61
-262
-346
-33
-38
-343
-170
56
-197
-167
31
-130
-148
109
74
-124
152
305
-11
63
406
248
81
394
407
232
374
407
204
218
487
324
144
502
456
17
156
333
10
-54
127
-82
-267
15
5
-324
-139
49
-277
-236
39
-244
-316
4
-112
-294
-71
3
-297
-221
62
-128
-230
-6
-56
-272
-88
17
-291
-248
63
-124
-348
8
5
-413
-115
61
-412
-318
-36
-292
-364
-92
-148
-384
-156
-78
-426
-331
-110
-306
-410
-132
-64
-408
-258
-17
-420
-433
-53
-290
-485
-153
-185
-423
-188
-107
-323
-195
-10
-221
-325
-18
-30
-191
77
183
-41
15
246
35
-132
160
-89
-493
-232
-246
-607
-479
-205
-394
-482
-209
-355
-585
-313
-299
-513
59
1234
2743
4983
6649
5720
3041
1096
49
-632
-522
-115
-237
-530
-403
-438
-700
-486
-338
-617
-577
-326
-516
-656
-353
-426
-720
-424
-245
-628
-618
-303
-445
-590
-344
-334
-599
-352
-122
-516
-503
-163
-454
-515
-84
-250
-489
-138
6
-323
-267
81
-121
-225
112
10
-230
95
169
-239
-126
140
-104
-219
78
37
-355
-226
-128
-478
-405
-271
-558
-610
-315
-381
-726
-527
-363
-641
-536
-380
-607
-619
-345
-440
-711
-452
-321
-652
-543
-300
-556
-554
-266
-434
-613
-316
-199
-549
-458
-158
-500
-588
-154
-339
-690
-416
-305
-628
-492
-220
-578
-657
-248
-389
-683
-390
-281
-589
-495
-261
-511
-559
-223
-414
-685
-335
-272
-659
-413
-161
-628
-669
-257
-366
-636
-390
-262
-537
-442
-210
-392
-396
-78
-202
-417
-138
-59
-287
-150
107
-80
-179
168
73
-235
-3
15
-403
-378
-126
-513
-617
-184
-393
-684
-363
-245
-537
-435
-296
-605
-250
949
2335
4436
6576
6370
3665
1583
636
-324
-423
100
44
-468
-363
-251
-594
-394
-231
-605
-620
-285
-409
-624
-326
-275
-568
-383
-227
-572
-596
-261
-352
-542
-259
-200
-551
-369
-53
-379
-444
-80
-162
-444
-223
-40
-273
-93
64
-259
-159
155
-8
-160
115
173
-163
-26
216
-49
-80
174
95
-99
78
156
-146
-36
195
-182
-265
67
-193
-441
-135
-160
-382
-177
-76
-290
-373
-187
-261
-442
-161
-148
-442
-272
-85
-323
-337
-34
-123
-369
-122
2
-348
-229
82
-249
-297
35
-160
-334
-72
35
-144
-178
-68
-267
-333
14
-180
-402
-16
-63
-415
-235
-81
-326
-308
-63
-233
-305
-22
-126
-353
-178
0
-251
-372
-19
-43
-383
-209
-108
-376
-245
-28
-282
-302
16
-173
-375
-13
30
-229
-62
44
-201
-142
228
131
-83
286
316
-85
120
398
62
-186
-18
-203
-474
-135
-97
-500
-293
-88
-422
-396
-71
-279
-587
-283
157
758
2647
5262
6573
5939
3998
1775
162
-180
69
-105
-68
-4
-418
-468
-158
-360
-570
-289
-255
-536
-428
-193
-446
-499
-186
-303
-499
-221
-161
-473
-343
-89
-391
-502
-141
-268
-398
-70
-141
-424
-151
48
-348
-291
95
-48
-152
121
90
-181
61
280
-40
-4
370
125
-158
180
203
-89
96
283
10
-50
237
27
-187
72
-5
-293
-168
-61
-320
-329
-102
-270
-425
-144
-149
-441
-266
-25
-289
-382
-84
-196
-355
-73
-142
-418
-94
58
-307
-267
-67
-262
-367
-59
-59
-320
-162
-64
-331
-306
-49
-211
-319
-71
-112
-377
-273
-73
-309
-301
36
-200
-377
-26
-61
-328
-176
-74
-334
-279
-16
-238
-329
-17
-48
-325
-183
-26
-306
-284
57
-104
-315
-45
-76
-295
-73
29
-188
-115
183
66
-198
73
183
-97
166
415
85
102
440
254
78
311
154
-198
-73
17
-312
-293
8
-238
-367
-8
-81
-293
-28
-69
-394
-48
820
1946
3973
6417
6923
4747
2314
882
-224
-312
243
50
-160
87
-60
-421
-229
-60
-371
-336
-52
-252
-377
-68
-90
-372
-123
61
-236
-239
-11
-168
-297
28
46
-262
-48
140
-136
-28
211
-37
-52
288
173
-19
256
385
111
133
458
356
171
459
535
225
375
555
253
321
567
300
185
534
439
69
301
427
59
51
330
59
-218
101
58
-273
-42
119
-174
-155
91
-93
-244
81
61
-202
40
86
-215
-82
164
-94
-224
158
106
-194
141
181
-219
-31
182
-122
-175
162
104
-221
-90
119
-126
-128
87
-161
-253
24
-3
-244
-125
55
-227
-177
98
-220
-329
17
-54
-297
-5
82
-315
-240
141
-89
-372
-8
-60
-329
8
36
-356
-180
114
-110
-125
136
33
-199
14
188
-96
32
393
165
73
420
321
66
330
380
-83
-255
-15
-166
-335
-30
-109
-441
-222
-36
-296
-219
88
-248
-478
175
846
2041
4546
6636
6448
4313
2004
339
-381
-62
35
-202
-20
-42
-430
-352
-87
-287
-420
-162
-227
-507
-228
-52
-392
-305
-51
-297
-351
-45
-135
-401
-187
-59
-361
-292
24
-166
-335
-7
-9
-281
-5
112
-113
29
190
-29
-33
283
177
-17
247
312
13
168
432
150
117
360
181
-1
237
305
0
88
301
-4
-122
167
-7
-323
-73
-61
-398
-243
-41
-308
-325
12
-136
-385
-103
-13
-340
-243
49
-182
-242
130
-14
-349
-84
40
-236
-131
122
-127
-320
14
-82
-361
-3
67
-324
-201
42
-262
-296
74
-112
-390
-85
-27
-354
-188
58
-306
-393
-22
-181
-392
-76
-151
-440
-198
-21
-308
-380
-50
-122
-348
-85
-60
-415
-248
36
-260
-310
-6
-175
-355
-147
-118
-308
-159
76
-99
-118
133
-58
-323
7
199
-38
112
364
83
-8
305
204
-118
56
51
-380
-294
-107
-328
-400
-123
-124
-412
-247
-114
-421
-386
-137
-80
758
2704
4839
6385
6311
4061
1533
323
-70
-214
-88
137
-126
-408
-203
-178
-413
-347
-220
-446
-521
-215
-290
-500
-276
-238
-500
-348
-118
-408
-371
-78
-358
-498
-152
-134
-425
-266
-19
-255
-332
-66
-95
-223
-19
41
-164
1
147
-117
-2
250
20
-79
175
178
-53
52
236
-21
-52
326
144
-126
190
215
-116
-13
148
-160
-262
24
-95
-397
-183
-122
-451
-270
-52
-343
-403
-171
-277
-413
-161
-184
-444
-250
-58
-309
-290
4
-200
-403
-85
-15
-326
-222
-18
-314
-376
-83
-187
-335
-107
-107
-390
-264
-7
-259
-383
-99
-280
-501
-151
-87
-402
-297
-127
-394
-406
-69
-229
-518
-198
-118
-462
-258
-58
-458
-457
-70
-247
-458
-173
-133
-405
-283
-55
-355
-481
-131
-230
-475
-229
-168
-373
-126
52
-271
-245
101
-136
-327
107
167
-115
58
264
44
41
241
-54
-319
-115
-176
-509
-322
-82
-444
-470
-79
-311
-543
-196
-251
-636
-296
482
1307
3260
5901
6742
5130
2912
1112
-235
-326
134
-58
-222
-68
-312
-553
-229
-202
-571
-438
-208
-425
-447
-151
-324
-594
-243
-180
-487
-289
-120
-399
-331
3
-305
-524
-135
-124
-396
-201
4
-284
-261
45
-162
-282
18
15
-186
88
224
-172
-136
216
54
-144
137
158
-150
44
230
-130
-134
197
2
-200
146
134
-314
-195
24
-356
-426
-103
-334
-544
-231
-201
-548
-421
-159
-449
-501
-165
-235
-392
-239
-274
-468
-294
-162
-420
-380
-106
-303
-481
-210
-194
-491
-324
-82
-435
-527
-190
-344
-541
-318
-343
-585
-413
-251
-575
-553
-262
-507
-667
-341
-363
-639
-412
-331
-691
-627
-311
-503
-700
-368
-365
-693
-481
-292
-612
-603
-325
-497
-560
-369
-490
-620
-456
-407
-692
-621
-291
-515
-694
-330
-299
-581
-383
-230
-513
-494
-235
-311
-401
-142
-107
-377
-147
46
-360
-347
-119
-451
-677
-486
-538
-796
-601
-401
-705
-751
-463
-625
-780
-545
-585
-591
314
1772
3558
5746
6512
4377
1576
264
-451
-813
-466
-231
-581
-677
-384
-687
-934
-578
-627
-923
-680
-503
-806
-770
-474
-704
-829
-458
-563
-865
-607
-462
-755
-699
-401
-603
-741
-438
-433
-675
-513
-331
-564
-517
-187
-403
-578
-252
-232
-428
-199
-74
-350
-261
36
-176
-343
-2
-42
-350
-113
-6
-255
-169
-67
-286
-393
-166
-228
-544
-398
-351
-711
-676
-430
-631
-734
-443
-459
-704
-587
-511
-744
-645
-390
-612
-694
-343
-428
-701
-459
-330
-597
-549
-325
-557
-657
-400
-419
-632
-536
-385
-619
-600
-334
-576
-700
-341
-429
-745
-483
-336
-662
-595
-359
-583
-711
-424
-458
-721
-450
-321
-713
-640
-348
-627
-751
-417
-483
-735
-475
-328
-632
-584
-287
-491
-654
-352
-336
-625
-492
-299
-618
-599
-182
-350
-550
-221
-239
-547
-263
-69
-363
-217
85
-151
-273
45
0
-322
-175
-122
-558
-576
-301
-531
-650
-321
-410
-667
-410
-342
-631
-544
-327
-426
33
1485
3184
5146
6644
5516
2481
582
-113
-614
-547
-127
-168
-533
-423
-338
-646
-551
-288
-506
-607
-328
-398
-671
-432
-268
-587
-512
-224
-441
-528
-240
-282
-512
-294
-165
-472
-319
-17
-295
-391
-17
-27
-331
-110
128
-166
-101
240
47
-48
280
224
-37
268
400
28
96
318
110
47
345
274
3
239
335
-27
-14
193
-53
-226
4
-69
-427
-256
-56
-371
-367
-157
-375
-441
-135
-186
-415
-167
-96
-407
-228
49
-263
-375
-8
-91
-352
-79
11
-297
-180
89
-165
-288
6
-89
-352
-60
86
-331
-272
23
-208
-274
-19
-114
-340
-103
25
-248
-191
-17
-226
-256
21
-123
-360
-107
20
-247
-236
17
-193
-298
86
-53
-346
-35
6
-334
-156
100
-180
-242
57
-54
-300
-59
84
-156
-61
176
-39
-108
189
86
-114
198
361
122
194
385
211
165
418
306
-70
32
49
-257
-117
14
-284
-313
13
-72
-325
-51
59
-382
-362
238
753
2156
4777
6610
6419
4544
2247
514
-143
80
80
-30
133
-63
-418
-163
7
-384
-361
-43
-246
-362
-101
-184
-365
-90
-12
-347
-223
55
-230
-297
58
-40
-256
-3
23
-266
-91
156
-106
-163
169
93
-37
258
264
-9
211
475
164
125
495
364
124
395
464
113
216
453
201
154
469
336
78
322
330
-16
89
279
-15
-20
225
-70
-306
36
129
-289
-165
126
-229
-286
67
-49
-283
-30
84
-222
-114
107
-171
-207
103
-48
-243
103
145
-217
-102
150
-92
-162
136
-17
-262
-11
50
-219
-116
111
-167
-303
6
-74
-305
-36
51
-296
-207
15
-197
-254
-59
-149
-314
-64
14
-330
-231
29
-320
-377
33
-175
-459
-166
-102
-404
-286
-68
-352
-461
-149
-242
-451
-224
-142
-323
-220
-45
-322
-373
-27
-137
-245
80
99
-128
2
142
-141
-163
110
-191
-588
-377
-314
-644
-536
-273
-558
-659
-306
-418
-641
-393
-395
-582
-40
1112
2779
5091
6696
5708
3037
1243
104
-691
-358
5
-397
-528
-234
-517
-834
-525
-443
-736
-614
-344
-618
-740
-345
-496
-839
-498
-381
-675
-440
-258
-652
-653
-283
-445
-636
-293
-289
-576
-358
-157
-415
-421
-80
-167
-382
-96
-39
-327
-122
129
-72
-81
158
31
-192
140
299
-149
-72
206
-105
-147
166
44
-168
39
18
-313
-201
-69
-392
-410
-132
-347
-517
-175
-167
-501
-321
-62
-398
-469
-172
-322
-521
-234
-140
-447
-313
-68
-357
-377
-25
-249
-474
-139
-127
-413
-237
-66
-362
-331
11
-231
-495
-216
-135
-416
-341
-69
-355
-434
-83
-259
-439
-121
-81
-401
-320
-119
-373
-412
-78
-220
-389
-54
-161
-462
-170
-59
-407
-343
45
-120
-431
-115
-38
-405
-173
78
-283
-297
35
-139
-312
33
109
-255
-93
179
-167
-122
321
163
8
307
235
-50
215
322
-169
-221
50
-224
-454
-186
-174
-423
-249
-81
-331
-310
-60
-257
-459
132
994
2132
4588
6779
6464
4235
1930
283
-507
-209
47
-253
-164
1
-313
-346
-78
-267
-477
-180
-119
-442
-275
-25
-344
-358
-55
-198
-355
-89
-65
-378
-177
99
-230
-263
57
-118
-240
86
75
-191
67
252
-91
-100
245
135
-3
318
360
174
296
391
203
199
447
288
111
396
390
153
299
423
160
67
295
85
-175
75
23
-341
-152
56
-331
-370
19
-185
-489
-162
-78
-404
-252
-44
-330
-284
-2
-255
-425
-62
-23
-411
-240
50
-273
-315
64
-157
-431
-86
-86
-402
-176
-12
-327
-332
-103
-251
-386
-143
-169
-451
-301
-178
-444
-369
5
-265
-571
-176
-204
-545
-305
-128
-412
-363
-65
-258
-439
-220
-258
-494
-291
-106
-360
-407
-131
-305
-496
-165
-138
-416
-228
15
-299
-339
-10
-161
-191
212
172
-131
66
205
-63
-10
182
-121
-361
-167
-274
-568
-368
-178
-456
-469
-155
-392
-574
-196
-288
-513
-8
829
2025
4228
6483
6418
4099
1930
363
-672
-415
0
-319
-366
-146
-412
-568
-266
-375
-677
-408
-228
-506
-471
-199
-398
-572
-271
-257
-562
-421
-177
-432
-503
-216
-371
-509
-202
-245
-420
-168
-165
-471
-335
-9
-197
-329
18
-6
-242
-22
168
-13
25
248
139
23
155
143
-45
109
236
-44
10
207
-67
-197
57
-60
-403
-240
-174
-491
-440
-205
-446
-623
-339
-380
-658
-485
-353
-544
-474
-369
-601
-617
-291
-436
-708
-425
-288
-562
-505
-251
-447
-586
-327
-302
-571
-454
-263
-567
-582
-266
-447
-672
-424
-422
-600
-409
-431
-707
-624
-380
-582
-752
-475
-555
-833
-606
-463
-740
-692
-434
-642
-804
-475
-486
-798
-602
-465
-812
-719
-351
-709
-908
-472
-506
-904
-707
-475
-760
-658
-305
-495
-626
-330
-456
-774
-491
-243
-469
-420
-117
-295
-475
-108
-97
-565
-470
-358
-772
-776
-486
-755
-941
-578
-591
-891
-659
-491
-826
-862
-650
-573
61
1726
3891
5750
6319
4530
1741
196
-368
-627
-488
-147
-380
-888
-700
-581
-961
-847
-495
-761
-959
-639
-619
-923
-743
-519
-810
-766
-523
-802
-877
-567
-683
-853
-548
-488
-822
-730
-417
-689
-798
-391
-482
-769
-489
-317
-619
-513
-139
-349
-504
-160
-254
-532
-203
1
-352
-349
-39
-270
-401
-118
-184
-400
-252
-154
-448
-407
-195
-483
-674
-447
-541
-811
-535
-427
-835
-802
-492
-632
-769
-616
-676
-872
-623
-491
-789
-643
-435
-765
-814
-500
-556
-770
-618
-504
-757
-700
-438
-633
-756
-523
-538
-726
-594
-573
-850
-722
-481
-734
-814
-489
-532
-788
-684
-523
-749
-773
-476
-703
-846
-521
-597
-869
-612
-501
-866
-757
-482
-723
-778
-510
-665
-905
-663
-564
-811
-782
-541
-748
-918
-571
-576
-809
-600
-445
-680
-646
-396
-598
-665
-270
-325
-571
-273
-183
-507
-364
-80
-411
-724
-465
-536
-998
-810
-596
-914
-837
-528
-743
-900
-613
-663
-1003
-768
-195
319
1968
4648
6163
5683
3733
1449
-206
-671
-507
-571
-504
-458
-822
-1000
-659
-749
-1083
-823
-698
-975
-922
-699
-880
-1020
-737
-731
-983
-822
-647
-896
-874
-560
-786
-891
-523
-672
-999
-734
-484
-714
-708
-428
-605
-711
-382
-386
-606
-394
-258
-504
-343
-48
-303
-397
-57
-138
-402
-177
-72
-390
-393
-117
-310
-460
-83
-221
-638
-399
-308
-639
-594
-356
-627
-805
-455
-563
-828
-588
-583
-807
-685
-450
-638
-779
-505
-556
-764
-498
-404
-723
-541
-308
-670
-667
-322
-463
-681
-465
-371
-637
-562
-261
-534
-746
-301
-344
-746
-464
-321
-682
-583
-289
-536
-652
-341
-423
-618
-356
-354
-621
-455
-293
-560
-626
-336
-342
-582
-449
-318
-549
-380
-160
-552
-640
-250
-306
-523
-305
-250
-494
-365
-110
-237
-344
-123
-129
-360
-132
59
-134
-46
181
-41
-106
256
160
-161
49
26
-477
-380
-129
-431
-484
-157
-267
-524
-272
-90
-372
-390
-143
-184
272
1770
3782
5831
6869
5330
2342
625
21
-418
-370
54
-69
-469
-275
-145
-501
-513
-220
-433
-556
-221
-276
-485
-329
-263
-541
-453
-122
-345
-449
-132
-187
-422
-165
-47
-385
-282
43
-189
-318
17
-52
-304
-6
140
-194
-55
273
83
-22
225
194
29
316
415
97
186
473
230
178
538
320
51
336
356
-15
52
287
-98
-304
39
-123
-467
-142
0
-440
-397
-81
-340
-415
-83
-216
-487
-183
-10
-364
-289
-26
-276
-318
-19
-122
-381
-136
25
-346
-297
31
-212
-338
40
8
-379
-192
-53
-315
-193
8
-177
-266
-54
-120
-350
-103
-19
-350
-178
88
-231
-316
9
-108
-314
-48
11
-223
-132
7
-217
-283
12
-54
-268
-24
109
-203
-206
140
1
-159
191
154
-135
116
227
-71
61
436
248
118
426
345
171
393
301
-105
-48
134
-148
-289
50
-9
-404
-139
97
-234
-136
171
-179
-303
345
973
2220
4709
6763
6602
4493
2188
486
-324
0
223
-100
2
113
-264
-107
169
-232
-275
58
-65
-280
-50
65
-192
-47
148
-154
-189
152
70
-181
56
175
-164
-35
370
52
-107
278
149
-37
278
350
129
269
484
312
252
521
508
327
551
693
429
511
752
563
476
669
659
445
611
749
335
413
724
296
116
422
204
-63
202
219
-118
-37
239
9
-140
92
9
-183
85
166
-120
19
142
-57
-34
173
74
-122
103
168
-103
3
243
-9
-98
218
56
-232
44
172
-186
-122
145
-115
-223
20
-119
-254
-17
-4
-265
-259
-14
-210
-337
-2
-116
-385
-121
-64
-382
-254
40
-239
-424
-125
-187
-399
-168
-99
-385
-314
-4
-171
-341
-68
-160
-365
-49
75
-166
-125
-11
-211
-190
127
105
-58
212
293
-41
140
378
17
-138
74
-134
-462
-151
-41
-470
-360
-74
-293
-364
-106
-188
-528
-356
89
556
2171
4779
6483
6311
4429
2043
421
-113
-70
-146
-67
38
-300
-494
-190
-245
-579
-343
-224
-483
-440
-245
-397
-507
-284
-368
-559
-260
-100
-427
-414
-138
-320
-411
-96
-186
-363
-42
-85
-377
-183
21
-162
-228
71
0
-212
109
255
-60
53
392
152
54
406
287
42
316
352
-9
200
489
65
-10
364
215
-104
17
91
-203
-178
39
-223
-315
-18
-162
-398
-106
-19
-360
-275
-72
-286
-311
-53
-106
-351
-133
26
-321
-231
103
-134
-297
6
-19
-282
-50
54
-267
-168
77
-166
-261
31
-49
-333
-74
91
-322
-326
-22
-229
-326
-14
-81
-288
-119
-118
-378
-245
-4
-253
-346
-32
-118
-352
-96
-23
-366
-270
22
-274
-389
-51
-179
-372
-86
-50
-357
-228
96
-69
-175
175
91
-306
-91
170
-26
12
247
37
-17
346
183
-115
67
-4
-365
-335
-187
-405
-485
-189
-228
-464
-229
-108
-392
-369
-249
-220
404
1996
4110
6021
6777
5137
2328
735
122
-311
-213
163
-52
-414
-211
-185
-503
-351
-131
-404
-516
-232
-252
-448
-196
-147
-501
-306
-72
-330
-332
-147
-269
-374
-74
-22
-335
-186
55
-168
-217
83
9
-219
37
211
-54
-19
270
97
-27
346
273
-32
306
393
49
237
417
140
150
426
315
93
327
396
36
81
293
-3
-147
192
76
-308
-53
70
-312
-178
92
-255
-316
40
-122
-313
30
-22
-397
-183
92
-164
-233
75
-19
-222
10
74
-203
-109
119
-154
-182
114
-56
-211
7
18
-190
-51
95
-211
-259
108
27
-284
-35
156
-192
-200
97
-112
-243
82
-10
-289
-47
41
-269
-151
116
-135
-241
1
-123
-262
-55
-51
-282
-167
92
-140
-251
66
-8
-182
128
225
-70
4
238
110
57
342
356
130
316
427
164
244
412
103
-125
34
-91
-328
-33
23
-351
-212
93
-146
-218
70
-136
-376
238
1136
2348
4783
7001
6627
4330
2267
656
-246
135
356
11
81
93
-242
-266
-11
-62
-324
-168
-1
-255
-148
67
-183
-252
10
-53
-293
17
115
-294
-158
119
-94
-169
90
100
-106
3
187
38
73
294
70
-1
356
260
36
344
491
225
343
620
397
302
603
506
281
539
616
316
399
605
329
239
517
354
-2
149
304
20
41
232
-70
-158
164
88
-168
68
197
-102
-39
215
-16
-114
182
62
-91
153
140
-102
2
250
69
-42
213
143
-68
133
241
-34
65
352
83
-101
173
108
-148
93
243
-53
24
282
19
-99
219
121
-161
105
206
-139
-46
204
-31
-119
173
111
-132
94
215
-80
-18
239
-3
-143
171
81
-163
164
244
-95
146
501
61
-156
254
216
50
366
465
174
259
519
322
216
457
311
-101
44
153
-248
-63
212
-220
-266
57
-50
-190
3
6
-252
151
1207
2453
4524
6751
6707
4221
1937
662
-240
-167
312
114
-61
81
-81
-295
-65
71
-192
-130
77
-207
-313
47
-31
-301
14
119
-226
-66
185
-112
-176
148
73
-83
88
140
-33
78
320
110
42
373
290
56
319
502
284
270
507
381
304
627
554
322
644
730
346
499
746
474
408
634
496
249
456
431
20
91
291
5
-83
171
13
-221
63
156
-245
-153
166
-90
-229
87
65
-182
47
181
-165
-86
224
-1
-112
181
107
-193
66
241
-101
0
243
-110
-167
205
79
-179
57
161
-131
-78
175
-45
-139
145
-25
-287
59
152
-210
-106
161
-38
-147
129
18
-199
94
118
-210
-84
157
-97
-205
126
44
-212
44
116
-214
-118
192
12
-80
245
154
-157
178
430
51
131
503
226
98
444
363
113
287
283
-100
-148
38
-217
-329
45
-48
-309
-24
73
-222
-140
3
-163
215
1476
3259
5310
6988
6396
3530
1471
577
-137
-26
371
192
-155
-83
5
-298
-254
-4
-218
-267
56
-38
-336
-100
35
-237
-122
119
-113
-244
89
32
-263
31
131
-163
-64
234
62
-167
149
164
-84
195
317
21
125
419
254
195
490
402
187
490
618
279
351
620
412
265
630
665
156
287
541
186
193
440
163
-65
232
148
-203
71
207
-183
-132
167
-64
-193
122
34
-255
61
178
-191
-68
168
-16
-90
108
42
-153
115
219
-63
21
205
-14
-90
254
218
-111
81
215
-71
8
236
-40
-198
162
105
-214
99
227
-174
-83
238
0
-210
60
67
-184
38
149
-150
-54
182
-10
-193
80
55
-257
33
188
-132
-69
194
-22
-150
146
73
-152
103
219
-20
61
291
73
-21
385
311
34
319
403
125
238
472
147
-88
147
-12
-327
-87
27
-274
-211
-19
-196
-202
31
-128
-449
-148
585
1312
3100
5812
6868
5618
3544
1517
42
-143
177
-11
-72
112
-166
-410
-112
-151
-443
-252
-120
-385
-322
-34
-302
-496
-101
-208
-494
-180
-110
-378
-271
-61
-275
-324
-6
-98
-355
-121
-6
-292
-198
105
-35
-169
69
68
-121
114
266
52
103
332
172
74
374
299
21
282
435
141
195
390
109
-19
270
192
-160
19
130
-324
-244
77
-242
-375
-70
-155
-358
-176
-186
-454
-308
-7
-199
-377
-110
-147
-437
-201
-49
-294
-244
-72
-271
-315
-5
-123
-379
-100
55
-321
-270
60
-275
-406
-54
-186
-379
-114
-139
-428
-279
-69
-278
-424
-159
-170
-426
-183
-62
-417
-337
-29
-308
-447
-125
-200
-450
-233
-129
-450
-384
-103
-323
-370
-81
-237
-462
-206
-112
-431
-349
1
-180
-363
-54
-96
-362
-127
-11
-235
-65
229
31
-94
206
182
-64
80
47
-355
-351
-35
-337
-597
-238
-284
-564
-314
-176
-480
-382
-203
-480
-297
649
1877
3804
6196
6902
4796
2243
914
-253
-561
65
18
-337
-229
-167
-485
-477
-280
-488
-575
-298
-328
-563
-343
-219
-494
-396
-153
-372
-467
-167
-226
-542
-297
-95
-418
-365
-96
-307
-394
-46
-71
-296
-3
117
-203
-67
213
21
-36
264
302
54
161
336
81
111
452
303
70
388
381
14
237
380
51
93
268
-58
-193
85
-28
-349
-211
-28
-323
-350
-68
-316
-428
-98
-127
-372
-238
-59
-340
-363
-63
-242
-336
-47
-157
-394
-108
-19
-282
-179
56
-122
-329
-38
-59
-354
-90
22
-224
-136
19
-228
-314
26
-37
-348
-137
31
-298
-236
23
-280
-283
55
-141
-371
-104
7
-288
-237
62
-148
-307
-31
-51
-284
-59
90
-184
-100
113
-151
-295
27
26
-233
26
223
-129
-85
273
42
-24
376
347
128
306
440
156
79
294
15
-268
87
-7
-433
-169
-11
-293
-227
53
-87
-235
26
-35
-171
555
1697
3212
5587
7105
5687
2943
1152
13
-427
30
237
-119
-117
62
-244
-395
-42
-86
-320
-41
33
-321
-238
97
-138
-277
76
-32
-282
-4
116
-93
-34
187
25
-151
210
216
-156
122
309
14
136
407
251
165
424
486
243
382
607
385
465
760
559
380
665
699
402
616
788
465
528
757
453
304
585
445
124
261
277
-6
34
235
17
-119
242
172
-205
97
296
-52
62
330
9
-88
296
236
-61
145
281
29
112
340
90
-34
294
249
-14
239
303
-39
110
359
64
-54
333
259
-117
138
262
-56
53
233
12
-68
198
149
-130
87
169
-95
40
246
37
-59
239
150
-120
145
205
-117
32
266
-42
-178
193
121
-206
85
249
-33
72
342
125
-33
325
346
72
383
585
250
254
519
342
211
434
288
-61
3
91
-178
-169
163
16
-196
46
35
-167
68
86
-208
280
1470
2995
5229
7125
6407
3713
1865
707
-215
43
479
138
-91
80
-25
-272
-113
45
-182
-211
-6
-168
-339
-70
-65
-314
-78
55
-273
-220
26
-195
-262
28
-50
-279
48
175
-290
-172
154
-78
-108
227
180
-21
178
301
79
114
378
215
165
494
434
239
394
502
284
284
561
310
112
462
406
52
228
329
-80
-65
213
-22
-185
97
-20
-349
-63
58
-343
-230
199
-141
-456
-54
-47
-331
-116
26
-238
-230
-4
-162
-284
1
-24
-308
-73
146
-163
-213
16
-193
-351
7
-18
-329
-66
47
-300
-188
25
-254
-337
-49
-80
-298
-96
-2
-325
-195
76
-267
-378
-22
-98
-382
-148
-15
-363
-312
-7
-205
-383
-75
-106
-435
-228
-90
-386
-313
-58
-241
-361
-78
-41
-253
-44
35
-265
-166
235
108
-90
245
171
-83
232
316
-81
-113
44
-285
-459
-108
-239
-583
-277
-159
-471
-416
-203
-362
-533
-324
-73
306
1833
4201
5916
6477
5075
2452
721
43
-170
-223
11
-17
-445
-445
-260
-481
-630
-332
-370
-634
-373
-263
-627
-601
-270
-420
-625
-346
-307
-547
-408
-265
-456
-412
-231
-425
-509
-187
-214
-473
-208
-70
-413
-334
2
-250
-384
35
12
-292
60
241
-218
-139
249
73
-64
215
124
-137
134
224
-65
-21
146
-74
-252
0
-103
-449
-187
-105
-510
-434
-169
-441
-629
-324
-353
-579
-364
-257
-542
-485
-202
-453
-572
-211
-251
-557
-308
-139
-465
-423
-202
-393
-456
-151
-187
-482
-311
-93
-412
-405
-111
-348
-477
-210
-243
-494
-312
-196
-443
-366
-180
-393
-481
-190
-271
-546
-270
-169
-519
-389
-140
-417
-461
-156
-346
-595
-299
-198
-426
-368
-155
-305
-481
-191
-188
-481
-279
-95
-364
-299
-6
-186
-197
17
-169
-269
92
199
-74
95
294
-16
-32
267
35
-322
-138
-86
-448
-432
-119
-301
-447
-37
-168
-592
-224
-65
-501
-267
517
1225
3024
5732
6917
5616
3307
1405
-26
-381
40
-17
-179
-50
-144
-418
-229
-67
-463
-456
-112
-316
-419
-108
-196
-378
-145
-105
-405
-332
-22
-207
-331
1
-81
-399
-168
21
-189
-188
42
-27
-193
30
45
-150
146
264
-38
80
416
265
107
468
462
109
392
605
257
309
576
308
211
539
437
123
295
462
153
50
249
23
-179
75
9
-270
-38
131
-169
-164
157
-29
-252
72
30
-236
47
165
-187
-118
224
-52
-174
235
56
-205
107
147
-168
-70
205
-2
-110
215
153
-201
-32
121
-187
-123
245
-28
-300
48
38
-191
19
27
-273
-126
151
-104
-245
50
6
-204
40
110
-224
-147
112
-83
-234
45
42
-256
-72
109
-222
-187
306
96
-223
175
154
-200
80
300
67
177
536
343
87
363
335
23
189
207
-221
-251
21
-187
-315
29
-158
-492
-158
-13
-289
-281
-52
30
504
2050
4110
5977
6772
5046
2073
457
-8
-351
-312
75
-52
-390
-189
-90
-441
-410
-114
-233
-367
-201
-244
-466
-229
-90
-416
-334
6
-285
-477
-35
-80
-427
-164
26
-270
-197
90
-97
-226
62
113
-142
15
258
-12
47
383
193
186
449
306
159
465
600
264
347
646
382
227
560
504
195
415
531
193
144
302
49
-82
185
77
-256
-81
97
-266
-239
114
-99
-263
44
22
-286
-96
62
-204
-141
88
-64
-174
89
6
-299
3
151
-135
-97
145
-55
-292
30
27
-248
17
83
-253
-154
44
-185
-299
-27
-27
-330
-202
-13
-281
-237
146
-140
-384
-21
-98
-356
-106
32
-275
-248
25
-206
-356
-19
-68
-403
-186
17
-318
-322
0
-171
-343
-11
88
-211
-72
86
-226
-154
176
8
-85
265
261
-31
148
289
20
83
278
-118
-393
-123
-166
-395
-185
-121
-435
-314
-3
-192
-414
-242
-230
-221
633
2172
4096
6207
6883
4813
2164
866
25
-398
24
209
-225
-267
-19
-340
-590
-196
-204
-521
-193
-69
-469
-357
-84
-328
-473
-165
-190
-454
-238
-94
-347
-322
-20
-181
-376
-20
-32
-372
-154
62
-175
-146
157
-13
-121
193
115
-106
185
371
41
131
480
196
35
379
310
16
285
488
154
83
359
201
30
262
139
-146
15
131
-153
-223
38
-104
-317
-54
-61
-358
-176
14
-226
-231
8
-186
-316
78
18
-326
-74
60
-181
-68
160
-65
-185
94
106
-126
21
180
-195
-181
240
-30
-257
111
93
-201
8
142
-155
-132
156
-24
-174
127
17
-270
-10
203
-123
-203
125
-82
-241
101
17
-253
-32
127
-134
-65
200
-45
-153
116
76
-182
-57
128
-133
-122
214
125
5
230
211
-16
187
345
139
261
547
392
276
534
520
283
357
314
-88
-64
152
-150
-262
132
51
-330
-63
153
-133
-138
23
-92
208
1385
3171
5321
6994
6421
3746
1787
861
-63
-105
422
312
-102
-67
33
-238
-216
47
-138
-298
-48
-72
-374
-167
0
-249
-181
37
-155
-310
-14
-49
-344
-35
124
-262
-203
92
-105
-212
133
97
-221
86
286
-135
-39
371
150
16
377
338
90
309
384
142
191
433
258
116
484
431
93
337
453
99
91
377
142
-186
109
65
-351
-113
46
-339
-250
61
-290
-466
-76
-117
-418
-240
-103
-366
-302
-76
-314
-401
-58
-155
-485
-283
-90
-321
-388
-110
-310
-480
-179
-294
-479
-275
-212
-480
-430
-166
-369
-505
-253
-339
-619
-426
-301
-556
-509
-344
-632
-770
-435
-487
-767
-498
-332
-732
-729
-426
-637
-770
-515
-562
-805
-634
-520
-826
-809
-495
-677
-856
-527
-598
-959
-741
-520
-798
-755
-416
-664
-910
-595
-536
-768
-530
-350
-653
-629
-362
-547
-699
-428
-594
-927
-824
-859
-1082
-1080
-918
-1074
-1198
-897
-895
-1167
-953
-852
-1233
-989
-178
685
2566
5252
6214
4492
2064
279
-999
-1244
-731
-801
-1043
-878
-1011
-1323
-1120
-950
-1224
-1189
-937
-1124
-1267
-923
-960
-1282
-1009
-887
-1245
-1221
-880
-1047
-1221
-934
-994
-1221
-957
-823
-1156
-1084
-779
-982
-1057
-735
-791
-973
-744
-602
-877
-921
-569
-671
-772
-437
-490
-724
-504
-392
-680
-600
-306
-529
-701
-416
-434
-785
-603
-377
-872
-975
-601
-918
-1180
-821
-875
-1182
-979
-837
-1087
-1006
-723
-991
-1181
-854
-912
-1156
-891
-803
-1023
-970
-818
-947
-1077
-747
-686
-1068
-850
-633
-1013
-968
-671
-871
-924
-709
-872
-1038
-804
-752
-1024
-859
-673
-996
-1069
-759
-800
-1069
-826
-718
-1055
-973
-661
-908
-1114
-781
-821
-1061
-885
-794
-995
-893
-649
-956
-1118
-756
-783
-1081
-889
-735
-1014
-877
-628
-926
-949
-566
-590
-827
-648
-508
-755
-728
-392
-495
-606
-288
-319
-603
-475
-376
-742
-787
-486
-789
-1065
-712
-745
-1039
-779
-673
-948
-799
-582
-916
-1045
-440
23
745
2926
5313
6032
4689
2245
168
-780
-719
-583
-721
-594
-514
-799
-764
-518
-679
-810
-497
-447
-757
-566
-391
-658
-569
-282
-441
-601
-342
-319
-536
-356
-196
-465
-403
-5
-262
-503
-60
-77
-396
-90
45
-206
-35
232
54
-12
264
237
89
328
407
150
273
532
303
172
478
493
208
368
581
207
100
429
234
8
213
62
-248
-30
72
-257
-249
-34
-234
-352
-2
-25
-377
-165
2
-292
-167
124
-179
-334
12
-30
-279
-54
86
-223
-237
60
-106
-277
-1
-30
-345
-180
31
-263
-244
58
-204
-390
-24
-31
-388
-188
-19
-303
-257
-50
-247
-350
-47
-107
-388
-122
-1
-365
-308
4
-156
-350
-104
-13
-348
-192
76
-336
-326
55
-211
-399
-47
-26
-357
-239
-11
-220
-172
149
-24
-183
102
34
-231
68
325
80
96
388
148
-34
338
247
-162
-66
-29
-359
-314
-58
-222
-368
-100
-94
-403
-195
-26
-420
-355
323
833
2152
4870
6707
6220
4370
2279
433
-239
96
40
-139
34
-103
-421
-200
-105
-461
-400
-112
-285
-445
-156
-154
-455
-139
52
-428
-359
-44
-314
-406
-68
-111
-374
-163
-11
-296
-248
76
-62
-152
53
-68
-224
48
170
-98
44
407
141
-44
323
318
15
227
378
58
151
430
170
78
390
242
-24
226
272
-32
108
262
-115
-229
78
-27
-273
-92
-12
-247
-234
-8
-174
-319
-24
-15
-323
-209
-40
-306
-255
55
-133
-271
42
51
-298
-81
122
-181
-98
118
-68
-211
59
81
-239
-101
29
-252
-184
70
-160
-264
63
-11
-361
-157
-13
-295
-121
138
-150
-275
-44
-179
-399
-123
-7
-277
-208
5
-200
-301
-40
-79
-338
-178
-25
-298
-260
103
-70
-377
-118
-107
-330
26
105
-298
-106
186
-130
-258
63
83
-87
150
314
27
57
384
165
-20
241
34
-394
-276
-158
-436
-351
14
-270
-469
-76
-156
-444
-256
-259
-323
406
1803
3612
5808
6980
5369
2680
1176
195
-333
-64
225
-66
-383
-111
-122
-506
-272
-156
-553
-379
-90
-391
-490
-144
-178
-489
-268
-115
-460
-375
-69
-254
-387
-129
-150
-456
-238
-61
-376
-220
75
-170
-230
106
44
-251
5
200
-64
21
272
17
-45
323
263
49
189
295
79
87
326
109
11
315
193
-78
108
173
-135
-135
79
-187
-352
-53
-75
-284
-141
-76
-357
-292
0
-189
-348
-69
-90
-354
-149
-48
-293
-183
65
-184
-341
-31
-94
-317
-14
50
-373
-294
11
-224
-333
-8
-33
-325
-128
-28
-351
-272
-69
-301
-383
-65
-184
-379
-112
-219
-508
-310
-71
-308
-454
-128
-175
-432
-210
-153
-467
-347
-58
-385
-493
-139
-299
-502
-205
-209
-507
-369
-165
-398
-452
-128
-225
-476
-236
-89
-347
-297
-69
-314
-331
95
26
-228
39
191
-153
-126
52
-326
-468
-235
-397
-660
-411
-331
-614
-513
-299
-486
-632
-318
-373
-713
-136
761
1771
4110
6402
6213
3971
1776
187
-742
-501
-150
-357
-417
-322
-617
-715
-393
-570
-792
-465
-353
-736
-718
-393
-623
-748
-374
-436
-702
-446
-367
-641
-520
-288
-514
-621
-365
-438
-634
-362
-214
-517
-468
-177
-361
-492
-169
-166
-400
-133
15
-276
-107
180
-152
-217
172
37
-208
87
168
-116
16
239
-19
-130
68
-138
-387
-154
-148
-523
-406
-111
-492
-657
-262
-399
-682
-346
-263
-623
-493
-239
-443
-523
-262
-302
-580
-371
-226
-521
-461
-170
-399
-582
-189
-273
-537
-197
-190
-517
-362
-120
-393
-474
-82
-281
-626
-255
-169
-552
-369
-195
-501
-511
-198
-290
-566
-265
-214
-590
-393
-105
-375
-502
-140
-186
-488
-206
-126
-537
-329
5
-436
-505
-95
-214
-445
-280
-166
-393
-341
-69
-238
-287
-5
-155
-359
-44
106
-127
-21
216
-71
-78
268
-20
-345
-60
-108
-548
-397
-189
-439
-505
-203
-295
-574
-283
-202
-550
-424
-43
168
1104
3197
5238
6349
5710
3114
713
-131
-230
-423
-419
-70
-205
-487
-254
-216
-545
-467
-118
-354
-565
-250
-303
-510
-243
-190
-469
-256
-99
-449
-435
-63
-205
-478
-151
-22
-339
-202
47
-224
-244
119
18
-226
40
182
-39
60
203
5
52
363
227
73
404
461
173
260
458
250
185
474
369
59
266
348
-40
-1
167
-111
-193
27
-158
-428
-176
-151
-421
-277
-173
-422
-404
-103
-190
-457
-213
-60
-420
-285
9
-294
-301
-13
-208
-392
-92
-36
-345
-193
10
-309
-331
-26
-197
-395
-132
-131
-408
-207
-70
-315
-284
-125
-295
-428
-187
-170
-430
-230
-74
-422
-409
-82
-219
-396
-143
-120
-387
-247
-45
-227
-253
-63
-271
-446
-90
-72
-404
-215
-10
-291
-330
-27
-166
-352
-29
40
-224
-106
126
-104
-163
296
279
-109
161
343
22
193
449
50
-144
62
-153
-387
-144
-142
-417
-235
-71
-368
-364
-31
-194
-529
-221
279
639
2248
4890
6462
6236
4388
1953
260
-107
18
-134
16
77
-306
-350
-135
-278
-449
-207
-135
-429
-344
-100
-304
-421
-80
-168
-451
-154
-103
-403
-261
-44
-225
-246
-32
-202
-345
-15
17
-229
-2
191
-110
-107
235
129
-7
212
171
-52
184
426
167
185
515
275
50
378
399
102
253
429
174
163
307
134
-22
176
237
-165
-75
245
-139
-278
26
-121
-259
-26
-63
-250
-35
68
-224
-212
65
-76
-260
51
60
-252
-40
86
-231
-165
140
-23
-208
47
91
-219
-122
99
-210
-235
152
-54
-295
73
31
-340
-101
124
-186
-262
65
-60
-268
49
27
-332
-168
44
-206
-201
91
-77
-238
25
6
-265
-141
109
-158
-252
168
-36
-341
24
56
-263
-110
117
-152
-240
107
32
-111
219
239
-78
13
336
152
28
457
357
55
355
386
96
187
230
-129
-223
-3
-128
-264
39
57
-310
-129
97
-233
-245
2
-88
297
1815
3880
5843
6858
5535
2800
1091
358
-76
-27
328
213
-205
-99
-22
-313
-247
14
-243
-406
-101
-72
-291
-179
-23
-296
-293
13
-200
-380
-69
-67
-358
-163
110
-206
-334
46
-71
-309
60
63
-298
-22
147
-89
3
232
107
-70
245
314
34
230
385
180
127
244
142
20
297
270
-45
179
375
-35
-108
271
-36
-335
-6
-65
-367
-179
-17
-343
-377
-59
-274
-445
-136
-237
-534
-303
-162
-418
-363
-177
-377
-416
-115
-281
-579
-297
-199
-530
-405
-80
-360
-558
-239
-260
-500
-367
-259
-492
-535
-275
-401
-540
-303
-385
-617
-470
-365
-586
-520
-267
-541
-687
-376
-446
-696
-512
-322
-576
-619
-329
-549
-715
-382
-423
-670
-400
-277
-652
-531
-260
-541
-599
-272
-331
-583
-296
-141
-439
-372
-142
-282
-354
-65
-56
-256
-17
108
-157
-64
31
-363
-552
-319
-383
-637
-408
-303
-652
-553
-259
-551
-638
-253
-381
-640
-69
809
2002
4362
6629
6193
3662
1612
139
-722
-356
-21
-406
-410
-117
-452
-705
-364
-395
-636
-375
-258
-564
-465
-123
-380
-569
-239
-265
-520
-251
-119
-470
-345
-44
-313
-370
-40
-162
-393
-115
41
-209
-66
241
-39
-169
232
231
-89
129
342
64
154
455
224
173
467
342
154
410
496
216
314
546
254
73
357
236
-148
115
251
-256
-201
143
-143
-230
56
-95
-337
-94
46
-238
-133
167
-178
-326
81
16
-263
-25
146
-141
-133
161
-1
-208
115
128
-237
-23
168
-137
-96
149
-120
-211
122
-12
-267
-16
96
-215
-168
141
-79
-237
97
-22
-301
24
56
-203
-19
54
-207
-216
116
41
-229
92
150
-256
-83
192
-80
-141
150
51
-124
154
251
-51
79
430
92
-96
361
363
153
342
392
199
293
393
70
-112
82
-1
-273
-53
28
-323
-219
63
-202
-288
49
-104
-370
116
757
1524
3536
6034
6853
5334
2902
935
-208
-154
154
-93
-15
145
-204
-286
7
-166
-421
-110
-20
-394
-267
74
-201
-322
61
-97
-367
35
66
-368
-205
95
-125
-186
123
8
-280
13
153
-183
-49
244
-17
-48
325
205
-5
300
415
193
362
546
217
189
630
521
133
395
550
188
265
552
284
136
398
212
-91
140
152
-223
-81
177
-189
-336
20
-50
-341
-161
-2
-230
-204
20
-166
-228
46
-11
-192
-53
-5
-191
-84
123
-120
-245
35
-46
-262
30
149
-233
-175
87
-134
-150
13
-171
-276
1
39
-263
-171
41
-231
-286
32
-151
-357
-26
16
-334
-169
108
-274
-333
31
-191
-359
-58
-61
-268
-178
-52
-282
-352
-30
-116
-345
-83
-33
-308
-86
136
-64
-28
70
-148
-253
112
264
-8
166
358
11
7
375
195
-135
51
16
-397
-301
-91
-341
-365
-71
-117
-334
-196
-124
-481
-395
109
451
1730
4229
6201
6480
4957
2620
678
-185
-66
-107
-135
101
-215
-564
-230
-162
-606
-445
-148
-435
-471
-219
-364
-548
-279
-217
-521
-423
-148
-376
-525
-181
-227
-470
-240
-141
-375
-283
9
-264
-426
-20
-87
-329
-16
40
-250
-35
179
-89
-82
277
171
-100
168
241
-58
164
314
-36
1
248
89
-59
183
137
-232
-108
55
-251
-257
21
-195
-440
-180
-160
-464
-302
-66
-302
-416
-144
-259
-424
-105
-200
-483
-233
-65
-338
-310
-32
-230
-407
-107
-95
-375
-200
-81
-337
-300
-57
-280
-352
117
-154
-555
-185
-88
-414
-361
-48
-244
-464
-153
-141
-486
-317
-137
-456
-404
-58
-219
-443
-239
-222
-456
-298
-165
-479
-458
-162
-349
-512
-249
-294
-541
-278
-155
-448
-335
8
-202
-452
-145
-89
-331
-198
27
-90
-100
204
44
-170
124
110
-241
-183
-94
-437
-468
-249
-430
-544
-289
-293
-496
-322
-171
-470
-534
-189
-36
617
2646
5039
6390
6083
3943
1518
216
-120
-152
-204
17
-87
-549
-348
-129
-522
-499
-193
-399
-575
-255
-216
-572
-355
-110
-456
-443
-133
-319
-447
-182
-181
-414
-299
-54
-271
-330
15
-184
-393
-24
-26
-292
-30
201
-54
-112
213
169
-48
215
257
-16
231
431
133
179
354
94
27
376
307
-30
239
394
29
14
227
20
-142
72
59
-213
-163
-34
-313
-272
129
-145
-416
-68
-104
-356
-91
67
-266
-266
109
-99
-270
172
36
-374
-82
64
-216
-123
98
-87
-188
72
25
-216
31
112
-237
-118
175
-89
-263
-1
41
-215
-112
74
-197
-206
71
-70
-185
52
-18
-270
-4
166
-276
-289
69
-120
-240
67
-23
-294
-2
161
-186
-183
128
-30
-179
193
242
-52
94
247
-25
15
365
222
129
519
422
211
437
374
144
150
201
-69
-204
70
-23
-274
-45
31
-228
-69
160
-108
-257
6
191
558
1979
4091
5947
6876
5546
2605
623
49
-109
-116
192
267
-140
-179
68
-133
-265
63
54
-257
-111
9
-249
-135
135
-137
-211
136
-59
-329
22
138
-149
-19
233
-14
-130
208
144
-116
178
282
26
192
348
173
211
378
332
282
485
537
289
384
647
447
359
687
582
279
567
715
368
447
703
332
199
515
233
-26
290
229
-138
-16
180
-83
-127
173
50
-185
66
177
-93
12
215
-8
-55
192
164
41
198
209
-80
42
307
61
-39
241
150
-100
145
244
-44
83
257
-25
-111
174
119
-152
122
272
-185
-99
283
-11
-162
168
62
-142
181
190
-170
-7
241
-35
-77
218
74
-145
156
189
-122
119
244
-88
-30
297
265
107
259
299
23
227
607
305
258
648
484
270
578
647
260
236
371
23
-114
219
122
-143
90
130
-179
66
399
-102
-263
236
391
913
2603
4787
6510
6756
4811
2030
486
213
26
-49
327
291
-97
70
241
-75
-100
168
15
-175
142
229
-161
-3
257
-62
-128
186
149
-61
102
200
-26
34
306
108
-40
299
197
-41
317
325
22
206
447
246
200
551
481
263
511
616
412
536
709
447
405
717
557
323
576
620
351
426
540
232
150
383
246
-55
102
147
-192
-67
143
-132
-177
142
7
-308
-9
148
-209
-97
182
-99
-163
131
10
-235
-11
143
-150
-86
154
-148
-205
145
-5
-204
29
-54
-317
-147
26
-174
-252
-58
-186
-383
-108
-94
-420
-241
-75
-345
-319
-86
-285
-470
-125
-82
-505
-402
-197
-465
-445
-171
-332
-463
-209
-237
-516
-284
-126
-498
-440
-129
-355
-520
-171
-130
-429
-231
-75
-411
-384
-30
-116
-201
99
7
-289
7
197
-237
-351
-91
-327
-583
-342
-303
-643
-572
-268
-564
-676
-350
-509
-689
-464
-396
-204
1002
3079
5149
6436
5671
2987
800
-22
-387
-532
-249
-159
-610
-720
-449
-634
-822
-518
-534
-859
-651
-400
-757
-829
-463
-632
-826
-478
-504
-820
-570
-367
-713
-714
-318
-467
-777
-506
-434
-713
-484
-314
-557
-500
-261
-402
-537
-207
-190
-427
-117
-21
-381
-268
49
-154
-345
-56
-53
-344
-137
57
-257
-309
8
-165
-479
-212
-215
-559
-359
-204
-537
-625
-386
-517
-733
-460
-385
-698
-521
-293
-602
-583
-273
-491
-658
-328
-374
-622
-322
-211
-573
-520
-228
-373
-525
-269
-248
-479
-273
-61
-160
180
834
1086
1395
1969
2246
2384
3107
4094
4645
5419
6239
6123
5435
4144
1771
-295
-775
-711
-998
-969
-805
-1126
-1300
-1101
-1131
-1338
-1111
-860
-1063
-1105
-967
-1078
-1119
-997
-1129
-1366
-1139
-958
-1254
-1262
-1021
-1235
-1394
-1151
-1276
-1533
-1301
-1169
-1513
-1573
-1247
-1391
-1667
-1375
-1299
-1585
-1339
-1111
-1374
-1205
-797
-934
-992
-559
-443
-625
-311
-39
-289
-194
128
-165
-311
19
-235
-555
-341
-233
-517
-553
-207
-396
-617
-301
-318
-599
-422
-233
-445
-442
-223
-401
-515
-263
-249
-491
-443
-278
-541
-539
-226
-486
-608
-288
-440
-677
-384
-274
-596
-548
-260
-452
-602
-321
-383
-641
-384
-286
-595
-563
-362
-563
-656
-278
-341
-673
-389
-263
-599
-463
-177
-463
-584
-275
-290
-448
-366
-321
-505
-457
-199
-417
-551
-245
-280
-526
-342
-194
-471
-417
-130
-382
-524
-152
-196
-515
-283
-180
-452
-317
-127
-358
-434
-138
-232
-468
-212
-156
-448
-335
-32
-232
-442
-154
-151
-503
-250
10
-365
-278
-47
-359
-381
-82
-197
-446
-188
-69
-366
-246
-43
-325
-367
-39
-187
-518
-184
-35
-452
-334
-25
-333
-490
-168
-206
-457
-227
-83
-396
-358
-80
-309
-368
-40
-189
-414
-129
2
-308
-221
130
-57
-146
251
222
-98
150
322
13
19
127
-229
-378
-50
-211
-542
-248
-184
-507
-338
-57
-316
-504
-192
106
488
1903
4099
5936
6493
4791
1962
298
-182
-383
-403
-161
-128
-491
-467
-204
-485
-615
-269
-437
-734
-417
-296
-626
-531
-267
-503
-603
-319
-354
-594
-331
-217
-559
-423
-141
-408
-530
-111
-267
-611
-180
-63
-429
-202
125
-246
-273
122
-37
-234
44
123
-135
9
294
42
-83
283
200
-34
298
336
10
197
487
214
61
360
195
-131
87
100
-224
-131
84
-161
-284
-16
-102
-276
-4
-5
-305
-138
109
-214
-294
40
-181
-345
1
-15
-275
-89
54
-248
-272
39
-93
-253
18
1
-271
-117
61
-237
-249
44
-165
-329
-22
-79
-364
-150
15
-294
-300
7
-171
-355
-85
-65
-285
-164
-32
-267
-355
-21
-94
-405
-101
15
-360
-290
-36
-258
-249
112
-50
-259
19
69
-164
-6
273
89
70
435
207
-124
195
240
-170
-138
-21
-338
-312
-48
-330
-535
-185
-151
-451
-321
-134
-410
-508
-7
491
1431
3650
5873
6433
5059
2645
527
-405
-275
-173
-183
-66
-184
-442
-400
-201
-438
-477
-129
-304
-527
-230
-233
-502
-312
-101
-324
-403
-106
-215
-428
-155
-134
-373
-219
-19
-245
-198
113
-118
-283
81
122
-132
72
274
59
-10
284
263
67
322
378
118
349
537
207
213
493
290
106
399
443
92
104
305
58
0
158
-219
-398
-54
-106
-417
-248
-85
-365
-361
-77
-216
-425
-145
-84
-395
-151
46
-381
-343
1
-249
-407
-43
-68
-385
-162
19
-228
-240
-17
-213
-405
-76
-44
-311
-170
3
-304
-379
-63
-236
-431
-145
-133
-430
-212
-40
-466
-407
-9
-276
-460
-106
-95
-344
-209
-35
-341
-390
-41
-223
-387
-80
-113
-373
-191
-44
-311
-328
23
-3
-209
64
70
-261
1
221
-71
19
386
163
-39
292
320
68
126
145
-191
-238
-1
-228
-429
-120
-24
-295
-219
-45
-283
-343
-168
-292
-61
1091
2722
4776
6713
6432
3796
1700
703
-151
-203
312
229
-244
-182
16
-244
-224
-49
-331
-366
-80
-120
-370
-178
35
-309
-299
33
-106
-231
-21
-30
-279
-143
53
-194
-179
163
-34
-156
197
29
-200
92
188
-76
-7
312
183
69
342
329
86
315
495
201
241
494
332
206
400
418
162
283
502
192
172
465
224
-100
89
147
-193
-52
151
-162
-163
95
-73
-192
68
55
-267
-134
116
-176
-175
172
21
-87
155
2
-211
100
197
-126
-48
202
39
-41
201
158
-178
-40
170
-90
-54
211
43
-138
77
80
-205
-31
117
-197
-85
182
-78
-122
148
4
-239
-22
116
-171
-115
151
-86
-217
68
10
-229
-21
118
-136
-129
89
-115
-180
268
153
-172
186
307
-28
36
287
135
99
487
456
184
407
517
202
150
332
111
-174
20
-4
-268
-62
70
-211
-145
115
-115
-304
-103
104
457
1738
3979
6015
6907
5670
2946
1071
340
64
48
319
334
-179
-180
96
-200
-354
-43
-86
-337
-92
116
-228
-230
92
-138
-287
12
-26
-247
-5
182
-121
-188
66
-79
-158
202
164
-100
155
303
75
136
296
118
107
386
294
122
359
483
249
314
636
323
113
509
456
219
430
527
274
381
560
198
110
453
282
-51
196
258
-70
78
272
37
-20
183
135
-97
90
181
-98
6
219
40
-48
254
214
-48
208
347
-1
27
328
136
76
413
293
-8
225
341
52
135
392
164
40
389
297
-4
243
363
77
112
356
172
19
310
276
-15
225
422
110
117
442
260
105
445
393
127
418
577
283
319
519
263
182
548
433
171
465
561
292
418
685
465
341
698
712
514
815
902
588
674
913
696
543
760
530
128
337
443
145
206
403
192
129
381
298
66
175
317
522
1449
3321
5509
7072
6763
4277
1778
674
217
22
305
467
160
6
92
-44
-252
-53
35
-273
-164
59
-216
-199
57
-119
-308
-113
-27
-278
-206
22
-232
-337
31
-112
-397
-4
36
-328
-133
87
-200
-218
201
71
-239
35
195
42
116
265
73
13
317
198
-67
212
328
-24
11
321
73
-111
188
53
-190
-14
-104
-398
-239
-103
-431
-445
-224
-417
-603
-390
-320
-619
-510
-243
-483
-550
-271
-422
-621
-315
-302
-583
-416
-252
-503
-573
-255
-273
-560
-361
-296
-625
-475
-212
-476
-555
-196
-343
-664
-394
-291
-548
-473
-257
-500
-674
-368
-434
-679
-370
-275
-712
-646
-301
-567
-701
-371
-481
-738
-460
-389
-722
-594
-330
-579
-665
-389
-541
-666
-376
-420
-602
-398
-227
-502
-593
-250
-315
-508
-177
-76
-374
-233
43
-262
-446
-98
-300
-732
-468
-416
-807
-692
-446
-732
-734
-332
-589
-909
-564
-519
-739
-237
863
2233
4386
6372
5722
3012
991
-130
-857
-768
-414
-577
-758
-542
-668
-959
-662
-569
-850
-744
-610
-802
-874
-669
-712
-885
-638
-535
-872
-779
-481
-700
-786
-513
-628
-803
-505
-453
-715
-573
-352
-582
-656
-270
-376
-561
-235
-186
-391
-280
-50
-272
-325
45
-57
-236
94
113
-289
-171
83
-196
-230
98
-115
-398
-137
-164
-539
-432
-256
-533
-659
-417
-523
-796
-522
-441
-746
-517
-335
-762
-740
-355
-559
-758
-365
-339
-724
-523
-299
-589
-595
-331
-510
-672
-347
-363
-699
-480
-288
-615
-637
-310
-459
-706
-380
-380
-762
-575
-336
-656
-730
-394
-530
-753
-468
-475
-801
-591
-379
-619
-690
-478
-560
-766
-494
-348
-681
-635
-399
-679
-726
-367
-512
-779
-493
-417
-703
-488
-231
-574
-557
-187
-425
-598
-230
-166
-345
-116
-24
-299
-299
-122
-248
-429
-277
-365
-735
-580
-387
-712
-621
-347
-663
-753
-383
-370
-753
-715
-440
-276
665
2801
5035
6230
5714
3315
919
-125
-458
-587
-441
-216
-528
-833
-539
-474
-789
-668
-530
-798
-751
-516
-671
-831
-606
-557
-822
-703
-501
-688
-707
-479
-596
-750
-496
-453
-703
-574
-405
-661
-652
-306
-457
-713
-386
-257
-519
-317
-101
-305
-332
-143
-202
-325
-31
21
-393
-229
61
-235
-253
7
-196
-332
-58
-154
-469
-296
-194
-559
-557
-289
-538
-666
-414
-520
-761
-613
-354
-634
-802
-401
-522
-812
-520
-470
-728
-565
-391
-646
-622
-308
-462
-642
-450
-433
-628
-444
-257
-588
-586
-207
-381
-631
-350
-341
-636
-408
-214
-585
-627
-315
-489
-656
-352
-366
-632
-480
-363
-621
-581
-289
-485
-684
-384
-382
-641
-411
-334
-690
-599
-284
-484
-638
-377
-399
-671
-517
-317
-533
-578
-341
-439
-578
-258
-253
-574
-378
-163
-426
-373
12
-105
-321
7
45
-311
-83
26
-403
-484
-341
-522
-720
-514
-444
-689
-540
-362
-612
-582
-356
-710
-843
-116
659
2020
4636
6552
5892
3750
1762
-2
-749
-271
-153
-476
-405
-384
-728
-708
-422
-640
-772
-443
-550
-805
-564
-409
-677
-734
-453
-590
-678
-293
-479
-855
-530
-326
-636
-593
-289
-492
-642
-290
-245
-515
-325
-140
-367
-288
-2
-205
-337
32
-6
-295
-15
207
-46
-73
194
40
-150
149
177
-129
34
244
-108
-163
139
-140
-350
-60
-160
-470
-277
-70
-453
-540
-143
-300
-468
-212
-299
-538
-318
-143
-428
-464
-147
-258
-504
-235
-203
-497
-256
-80
-411
-351
-97
-341
-409
-87
-201
-403
-190
-154
-333
-239
-58
-270
-411
-155
-131
-397
-228
-16
-384
-300
57
-308
-472
-106
-133
-409
-210
-15
-272
-245
-53
-307
-389
-87
-175
-416
-147
-85
-461
-394
-52
-154
-377
-148
-143
-444
-251
-58
-255
-193
23
-186
-297
57
31
-279
47
264
-94
-61
232
87
-25
259
123
-339
-217
-73
-419
-441
-150
-372
-541
-178
-206
-488
-171
-60
-536
-355
472
1360
3249
5880
6913
5384
3020
1230
-148
-401
118
-17
-273
-92
-198
-510
-310
-158
-441
-396
-158
-464
-535
-178
-304
-514
-215
-86
-470
-420
-94
-305
-450
-124
-103
-399
-186
11
-241
-167
14
-208
-228
93
39
-150
46
158
-33
35
347
186
41
456
396
12
298
485
132
197
502
272
142
438
331
7
171
295
-85
-127
142
-135
-278
97
-75
-420
-106
-65
-376
-215
1
-236
-261
56
-77
-341
-95
55
-250
-214
84
-60
-169
39
-55
-245
-6
72
-159
-56
126
-63
-170
95
78
-233
-60
83
-192
-117
142
-107
-290
41
-12
-291
-25
94
-295
-217
133
-147
-265
65
-35
-304
-53
90
-162
-67
50
-180
-171
129
5
-288
-43
145
-173
-217
93
-81
-179
195
144
-116
89
200
-89
29
397
242
100
472
471
63
260
425
30
-15
143
-169
-220
112
-120
-390
-126
-27
-235
-179
18
-223
-367
109
611
1530
3720
6067
6844
5417
2855
816
-179
-138
25
-33
74
-40
-301
-222
-20
-276
-414
-77
-144
-370
-82
20
-307
-178
97
-194
-273
49
-88
-301
38
74
-240
-97
78
-115
-165
161
103
-163
147
274
-88
12
333
109
40
416
339
81
367
529
273
383
621
398
371
689
517
191
430
537
242
319
489
142
-9
252
48
-274
-23
58
-271
-185
44
-221
-346
1
-49
-348
-23
52
-363
-219
32
-219
-277
9
-98
-274
19
30
-284
-113
52
-227
-245
32
-66
-274
-63
44
-253
-251
-13
-213
-317
-40
-72
-307
-189
-121
-394
-294
-37
-289
-397
-96
-143
-360
-191
-69
-330
-341
-86
-291
-396
-88
-160
-367
-172
-50
-309
-300
-50
-286
-381
-5
-163
-509
-187
-29
-313
-138
134
-172
-263
111
60
-75
237
267
-54
66
344
167
5
70
-109
-391
-239
-102
-385
-362
-87
-365
-506
-86
-204
-500
-250
-237
-361
334
1741
3525
5745
6992
5341
2583
1067
82
-463
-126
140
-196
-320
-118
-300
-514
-309
-277
-529
-397
-158
-441
-554
-192
-285
-513
-245
-199
-510
-325
-50
-425
-499
-109
-193
-400
-145
-45
-283
-241
-46
-185
-243
61
-3
-287
-27
145
-125
34
302
30
-20
333
205
-45
229
371
44
48
388
148
-46
267
144
-113
116
90
-251
-188
-13
-250
-404
-212
-289
-445
-202
-168
-469
-358
-154
-408
-430
-128
-290
-499
-206
-153
-385
-249
-107
-334
-415
-90
-229
-493
-151
-107
-406
-223
-12
-319
-432
-134
-171
-382
-176
-138
-402
-262
-73
-317
-420
-162
-210
-456
-194
34
-375
-432
-74
-329
-400
57
-160
-494
-120
-87
-447
-262
-28
-294
-319
-51
-205
-399
-119
-76
-415
-229
8
-331
-398
-77
-93
-285
-110
17
-188
-137
16
-205
-263
47
86
-36
192
251
-59
75
328
30
-111
93
-145
-401
-143
-156
-482
-351
-69
-290
-475
-202
-214
-490
-299
-56
-4
977
3083
5196
6594
6116
3535
1239
299
-109
-284
-58
117
-297
-454
-183
-341
-557
-318
-250
-486
-346
-217
-547
-538
-207
-334
-493
-230
-230
-477
-353
-146
-358
-479
-199
-305
-506
-165
-82
-405
-267
-64
-357
-325
52
-118
-329
36
91
-240
-10
250
-37
-55
282
165
-59
201
259
-50
60
318
52
-86
220
140
-185
-66
-11
-307
-225
-46
-357
-412
-166
-320
-434
-298
-364
-519
-344
-179
-475
-496
-201
-386
-546
-224
-169
-491
-399
-178
-424
-466
-122
-196
-460
-226
-126
-426
-317
-124
-372
-382
-74
-204
-485
-256
-62
-345
-381
-134
-397
-516
-174
-278
-473
-241
-220
-477
-310
-86
-342
-435
-174
-293
-481
-210
-218
-518
-353
-172
-423
-393
-155
-344
-466
-215
-74
-349
-376
-73
-308
-392
-85
-225
-397
-131
-52
-289
-121
91
-205
-239
72
-11
-121
196
272
-34
106
359
64
-15
214
-56
-326
-64
-64
-332
-160
-71
-373
-363
-28
-156
-393
-185
-196
-268
429
1857
3723
5929
7053
5322
2599
1152
185
-335
52
348
-112
-308
18
-172
-417
-154
-153
-472
-307
-29
-326
-404
-101
-243
-398
-90
-63
-358
-193
12
-218
-281
-23
-102
-297
25
95
-267
-84
183
-124
-141
220
29
-166
225
300
10
143
421
226
115
414
332
151
422
431
140
307
506
251
214
457
331
54
250
341
-104
-68
215
-78
-168
158
-5
-274
19
43
-264
-93
129
-70
-162
65
-4
-210
74
144
-156
25
246
-69
-78
224
54
-88
185
217
-10
116
227
-38
22
322
151
-39
241
265
-51
120
333
36
-1
300
120
-95
257
266
-106
106
273
10
103
259
0
-82
188
164
-37
115
198
-54
-33
250
89
-65
244
205
-110
46
198
-70
-69
207
53
-110
168
221
-23
137
334
15
-28
322
223
56
326
384
123
254
446
190
151
239
-110
-337
-157
-250
-612
-482
-267
-563
-603
-267
-442
-669
-367
-477
-801
-187
814
2068
4435
6554
6077
3561
1530
164
-770
-504
-137
-478
-611
-364
-606
-876
-551
-547
-873
-648
-456
-798
-761
-434
-653
-848
-502
-498
-831
-525
-331
-752
-642
-273
-547
-705
-332
-364
-698
-454
-195
-498
-509
-159
-277
-479
-218
-165
-423
-216
0
-251
-189
114
-131
-312
51
40
-231
-31
96
-169
-165
45
-111
-300
-52
-17
-391
-336
-187
-507
-543
-249
-374
-607
-404
-371
-679
-476
-280
-639
-574
-262
-531
-664
-344
-401
-639
-424
-298
-572
-511
-209
-431
-605
-267
-225
-525
-408
-209
-467
-494
-226
-413
-614
-332
-323
-646
-491
-284
-563
-525
-250
-547
-718
-324
-392
-770
-550
-353
-642
-631
-350
-572
-759
-421
-406
-717
-540
-402
-666
-651
-423
-557
-695
-379
-402
-779
-569
-360
-675
-662
-367
-522
-693
-408
-332
-666
-505
-244
-553
-520
-224
-378
-416
-95
-96
-387
-261
-24
-302
-359
-133
-443
-698
-438
-501
-830
-636
-488
-779
-745
-479
-634
-776
-499
-600
-901
-287
769
2038
4380
6457
5888
3351
1319
-70
-919
-595
-255
-539
-634
-530
-734
-862
-617
-584
-901
-741
-519
-895
-849
-482
-697
-890
-581
-584
-867
-648
-490
-783
-727
-416
-634
-838
-518
-488
-752
-545
-345
-606
-540
-195
-437
-584
-204
-209
-466
-224
-43
-347
-262
24
-150
-188
29
-69
-307
-143
39
-220
-185
108
-169
-376
-88
-193
-516
-350
-240
-504
-539
-360
-488
-623
-434
-445
-663
-488
-355
-630
-578
-290
-429
-574
-370
-373
-605
-437
-239
-573
-589
-235
-475
-653
-277
-315
-584
-319
-258
-598
-492
-212
-421
-595
-292
-311
-600
-425
-289
-583
-527
-196
-473
-622
-293
-400
-647
-425
-300
-600
-542
-161
-432
-667
-291
-281
-541
-436
-267
-475
-507
-225
-435
-590
-265
-306
-579
-358
-192
-517
-504
-241
-414
-468
-185
-251
-498
-213
-7
-369
-356
-81
-269
-243
162
-20
-295
20
186
-77
-33
199
-145
-418
-148
-240
-584
-367
-215
-536
-452
-144
-385
-509
-213
-386
-674
-80
834
1995
4374
6645
6365
3993
1986
572
-582
-386
61
-264
-303
-148
-456
-612
-292
-322
-583
-384
-320
-650
-550
-237
-481
-620
-246
-282
-561
-345
-220
-488
-388
-84
-298
-445
-179
-192
-385
-218
-65
-297
-271
10
-166
-244
104
87
-84
186
270
-35
86
383
159
56
360
242
9
320
427
68
139
418
161
3
292
234
-69
137
167
-272
-186
103
-158
-306
-36
-94
-339
-132
-15
-324
-272
37
-157
-294
33
-79
-388
-69
145
-207
-194
142
-57
-222
74
49
-192
33
176
-154
-90
209
-59
-133
187
-16
-242
109
132
-204
-74
178
-78
-190
180
59
-272
-4
133
-157
-94
160
-30
-160
143
14
-329
-13
125
-177
-52
191
-65
-126
228
37
-251
76
214
-120
-78
209
9
-94
213
160
-46
227
371
77
95
390
279
167
477
461
229
462
561
279
318
473
170
-27
225
48
-262
56
139
-138
-59
136
-37
-129
102
-37
-121
698
1948
3686
6139
7348
5695
3007
1376
300
-207
229
461
88
57
292
-58
-216
190
12
-293
47
140
-189
-81
176
-65
-148
181
153
-147
45
217
-98
28
303
68
-27
267
254
34
218
338
117
152
418
314
283
582
483
222
479
673
419
517
802
597
474
725
693
454
603
736
525
554
705
468
380
663
470
199
427
417
152
219
408
149
24
356
235
19
281
331
93
184
392
160
74
386
299
69
351
450
107
197
479
211
116
453
317
75
324
472
175
147
436
230
89
447
328
-3
248
367
94
184
421
220
87
353
299
16
232
347
59
186
418
88
-4
370
251
1
268
331
70
168
384
167
42
292
189
18
336
334
19
264
475
182
243
508
303
135
341
432
272
434
705
474
406
680
576
366
453
409
85
121
325
59
-52
232
141
-104
147
336
140
104
170
115
590
1984
3738
5707
7236
6265
3315
1250
398
-103
35
487
303
-29
165
191
-113
-40
204
-20
-115
226
129
-97
140
147
-106
80
332
34
-48
300
136
-65
256
338
46
185
523
219
62
439
354
167
431
547
354
398
639
488
439
745
649
451
711
842
551
602
895
696
548
816
738
479
745
821
413
452
618
280
169
445
294
30
242
311
-24
10
313
74
-80
299
173
-154
161
262
-55
110
358
62
-1
305
192
-32
272
390
7
89
379
117
-2
305
222
-10
204
211
-100
88
323
6
-50
256
105
-150
177
294
-131
-23
250
-37
-38
225
9
-175
112
125
-168
84
216
-180
-140
123
-30
-184
38
93
-161
-50
126
-149
-186
141
63
-118
177
271
-82
-38
290
173
68
390
320
39
332
453
186
178
221
-75
-228
1
-138
-376
-94
-36
-314
-186
-25
-261
-292
-70
-196
-219
614
1983
3839
6168
6992
4860
2205
888
-126
-479
48
102
-321
-286
-152
-453
-475
-222
-393
-582
-308
-262
-596
-469
-206
-392
-512
-277
-364
-630
-354
-261
-576
-450
-145
-400
-547
-176
-218
-488
-279
-173
-431
-303
-40
-281
-278
109
-85
-265
69
48
-233
-21
266
-61
-138
225
125
-116
84
178
-147
-48
199
-122
-220
76
-126
-413
-188
-194
-465
-373
-274
-555
-615
-309
-431
-704
-418
-342
-635
-479
-283
-569
-597
-287
-527
-768
-376
-317
-659
-459
-259
-568
-588
-283
-385
-632
-463
-356
-596
-536
-309
-571
-685
-375
-482
-710
-518
-482
-695
-594
-422
-690
-735
-392
-567
-830
-590
-537
-801
-661
-459
-767
-824
-538
-688
-856
-598
-598
-872
-710
-500
-788
-865
-546
-689
-923
-583
-544
-905
-760
-518
-728
-732
-431
-562
-788
-538
-475
-692
-492
-302
-415
-462
-392
-480
-612
-382
-450
-837
-771
-722
-1010
-932
-677
-913
-1095
-796
-715
-968
-876
-745
-1049
-905
16
1143
3108
5652
6344
4341
2003
554
-733
-1007
-412
-459
-841
-750
-750
-1098
-979
-741
-961
-1023
-805
-928
-1132
-861
-751
-1017
-942
-718
-920
-985
-697
-852
-1051
-762
-722
-983
-809
-578
-829
-859
-552
-659
-825
-544
-481
-731
-567
-325
-495
-516
-279
-359
-555
-312
-157
-429
-399
-208
-437
-506
-191
-212
-455
-272
-153
-497
-394
-186
-585
-620
-337
-522
-736
-567
-569
-807
-646
-502
-789
-789
-518
-672
-836
-558
-543
-859
-659
-393
-741
-802
-425
-548
-793
-489
-393
-769
-614
-365
-707
-711
-387
-535
-675
-475
-522
-776
-635
-405
-666
-697
-348
-493
-728
-444
-368
-708
-602
-355
-648
-707
-357
-501
-768
-479
-404
-680
-531
-398
-658
-659
-406
-537
-713
-436
-393
-685
-535
-319
-567
-599
-310
-461
-623
-387
-393
-551
-398
-214
-409
-499
-209
-311
-508
-124
-9
-281
-179
4
-161
-215
16
-202
-528
-345
-358
-646
-529
-368
-646
-623
-296
-493
-685
-389
-402
-733
-393
390
1230
3144
5763
6687
5091
2773
946
-440
-636
-158
-262
-378
-244
-414
-631
-448
-388
-664
-523
-293
-575
-617
-318
-451
-643
-373
-312
-588
-453
-254
-520
-548
-221
-383
-629
-283
-251
-547
-305
-113
-419
-402
-69
-106
-284
-101
6
-242
-40
256
-15
-35
294
179
29
292
296
53
173
377
193
84
317
215
-33
176
187
-185
-75
160
-277
-470
-86
-170
-433
-178
-122
-454
-348
-142
-354
-358
-82
-212
-400
-144
-114
-367
-172
-11
-322
-284
61
-139
-352
-11
4
-331
-210
46
-132
-189
47
-116
-282
31
53
-265
-119
51
-224
-211
73
-96
-272
27
23
-254
-78
46
-292
-231
156
-111
-337
42
124
-248
-203
86
-181
-271
82
-52
-235
86
58
-283
-109
94
-98
-34
186
-3
-93
220
155
-120
147
351
141
178
457
344
177
395
364
14
75
223
-130
-249
12
-121
-274
11
19
-330
-180
59
-231
-262
93
243
794
2465
4665
6395
6611
4546
1707
283
-29
-273
-263
106
69
-320
-198
-39
-417
-436
-28
-191
-518
-220
-150
-446
-240
-136
-465
-416
-117
-284
-480
-230
-206
-454
-269
-82
-395
-406
-61
-255
-447
-91
-47
-365
-254
-43
-192
-146
120
-65
-264
73
133
-154
30
241
-35
-50
214
-30
-222
122
86
-299
-165
12
-320
-474
-230
-402
-805
-625
-526
-795
-721
-601
-904
-983
-687
-828
-980
-668
-699
-1001
-842
-681
-954
-946
-654
-811
-978
-722
-776
-1108
-931
-744
-1028
-1003
-735
-923
-1035
-841
-947
-1204
-1002
-820
-1119
-1126
-896
-1113
-1284
-956
-943
-1277
-1087
-920
-1230
-1200
-882
-1055
-1317
-1096
-1079
-1274
-1120
-999
-1259
-1355
-1079
-1203
-1395
-1086
-963
-1333
-1358
-1069
-1279
-1375
-1066
-1219
-1465
-1134
-1032
-1318
-1135
-932
-1244
-1305
-1013
-1117
-1181
-836
-902
-1160
-965
-834
-1114
-1147
-934
-1208
-1507
-1291
-1344
-1650
-1384
-1233
-1612
-1533
-1233
-1462
-1637
-1403
-1423
-1516
-801
592
2523
4783
5711
3850
1081
-333
-1205
-1708
-1334
-1113
-1493
-1535
-1322
-1565
-1738
-1453
-1539
-1895
-1601
-1413
-1757
-1684
-1466
-1701
-1829
-1536
-1532
-1797
-1560
-1399
-1698
-1706
-1443
-1568
-1747
-1436
-1415
-1723
-1491
-1347
-1641
-1570
-1323
-1484
-1602
-1285
-1245
-1522
-1352
-1219
-1486
-1509
-1234
-1312
-1582
-1342
-1286
-1607
-1458
-1321
-1606
-1644
-1337
-1518
-1855
-1624
-1632
-1995
-1866
-1709
-2084
-2156
-1877
-2095
-2246
-1860
-2001
-2418
-2124
-1898
-2204
-2241
-1943
-2100
-2294
-1964
-1942
-2229
-2003
-1859
-2171
-2125
-1864
-2069
-2275
-1983
-1919
-2172
-2024
-1874
-2107
-2060
-1877
-2146
-2208
-1879
-2002
-2309
-2090
-1923
-2225
-2250
-1905
-2036
-2316
-2043
-1995
-2297
-2127
-1948
-2215
-2213
-1951
-2080
-2219
-2034
-1947
-2180
-2150
-1902
-2120
-2124
-1809
-1940
-2087
-1858
-1863
-2138
-1976
-1723
-1974
-2027
-1718
-1874
-2034
-1623
-1570
-1880
-1671
-1533
-1825
-1813
-1448
-1488
-1751
-1433
-1294
-1594
-1399
-1264
-1655
-1743
-1526
-1750
-2002
-1740
-1718
-2026
-1828
-1568
-1897
-1913
-1523
-1723
-1975
-1749
-1647
-1471
-390
1682
3839
5238
4807
2297
-13
-1060
-1557
-1636
-1342
-1199
-1538
-1681
-1476
-1620
-1754
-1480
-1484
-1702
-1479
-1235
-1406
-1360
-1020
-1060
-1226
-913
-763
-974
-778
-595
-772
-634
-347
-468
-530
-209
-106
-286
-147
86
-77
-43
322
213
96
424
400
259
538
697
459
384
626
493
317
648
674
320
434
666
319
224
605
374
102
348
287
-46
72
261
-49
-158
92
-59
-308
-35
29
-275
-124
48
-210
-233
21
-124
-302
-2
28
-262
-81
106
-213
-221
83
-98
-235
97
79
-264
-102
86
-163
-107
161
5
-108
102
32
-206
4
184
-96
-121
169
10
-184
114
117
-154
-16
108
-129
-87
200
-31
-150
207
81
-184
30
129
-55
-20
183
49
-87
210
186
-128
90
260
24
39
292
161
-22
300
318
57
278
446
164
182
552
450
335
693
690
350
544
776
486
436
629
323
-7
249
319
8
220
366
9
94
352
180
59
205
231
394
1394
3197
5348
7144
7031
4511
2027
992
367
115
553
632
213
234
423
235
34
269
309
61
274
458
140
126
435
231
66
427
381
103
395
523
227
311
616
406
254
590
538
321
556
712
481
487
761
612
475
816
849
591
830
1085
840
872
1146
1000
892
1110
1131
900
982
1213
978
811
1082
944
662
871
828
488
635
805
463
446
725
568
407
593
607
304
456
699
442
440
675
502
382
699
637
339
557
723
474
508
762
572
438
685
702
493
557
708
518
481
734
563
379
696
717
386
537
733
464
447
734
585
397
683
638
376
736
781
294
458
783
526
335
632
669
374
550
733
436
440
711
545
420
619
550
344
639
768
325
452
849
587
422
764
747
469
738
946
636
722
1031
777
641
986
967
548
617
745
405
365
562
421
252
539
615
261
413
612
291
290
768
1132
1986
4068
6245
7155
6146
3652
1406
424
457
516
366
588
605
264
423
583
281
218
456
360
228
536
460
153
411
544
245
292
591
403
224
517
493
249
503
613
267
333
652
495
344
688
772
422
549
813
602
608
923
782
611
963
1019
772
998
1124
819
834
1091
929
759
1051
1095
732
726
865
586
509
702
434
224
478
453
142
260
450
169
129
450
280
52
355
400
140
237
383
145
97
396
258
132
462
328
-2
253
423
156
225
514
252
6
332
371
30
233
420
60
41
331
191
-53
203
283
-16
142
368
6
-74
323
151
-15
289
191
-135
74
264
-60
-30
308
78
-157
178
207
-98
112
272
-103
-68
302
57
-119
262
260
-29
153
301
-43
-7
360
261
184
437
424
124
330
502
186
239
340
-37
-247
27
13
-243
-87
-21
-306
-236
40
-144
-309
-65
-56
-94
864
2627
4558
6477
6792
4419
1902
792
28
-242
113
188
-106
-158
-53
-247
-365
-84
-102
-339
-102
52
-211
-185
101
-57
-214
160
238
-9
191
382
175
247
584
375
207
623
585
287
551
730
476
481
750
624
534
896
859
594
871
1038
750
832
1145
968
821
1103
1090
826
997
1156
794
696
978
756
514
794
666
251
473
615
219
222
515
233
11
319
269
-47
147
285
-24
30
303
84
-75
260
301
-149
-21
272
-57
-45
253
52
-127
136
149
-96
82
221
-77
-68
201
-33
-174
154
121
-191
-64
125
-145
-206
145
5
-310
39
64
-338
-86
65
-279
-238
27
-130
-261
19
-12
-313
-131
60
-214
-221
12
-196
-334
-38
-64
-258
-77
-58
-170
-60
37
-103
-207
117
143
-194
13
217
-68
7
354
175
78
440
375
40
237
328
-59
-56
73
-191
-272
-128
-175
-340
-116
90
-250
-247
13
-307
-467
199
999
2298
4894
6979
6491
4344
2429
769
-227
112
280
-74
84
52
-352
-211
-45
-274
-343
-64
-101
-410
-193
-18
-290
-257
30
-144
-328
-35
-11
-229
-63
54
-228
-129
214
-37
-208
106
120
-110
107
247
-16
108
327
132
103
402
384
156
392
603
390
398
618
454
320
693
648
215
500
714
345
386
652
378
118
362
306
-5
203
323
32
81
256
48
-13
290
206
-87
159
282
-24
103
352
94
-43
304
298
-42
199
383
49
96
392
175
45
376
379
105
233
377
149
195
414
235
137
344
339
148
253
439
225
126
406
342
188
380
341
127
327
477
187
246
527
255
121
471
420
145
342
515
267
289
552
304
108
441
451
223
475
577
277
379
658
521
431
647
624
420
690
923
670
679
936
771
633
934
867
491
580
665
338
343
627
393
223
546
491
231
488
634
241
200
696
1039
2013
4360
6646
7389
6262
3847
1561
583
654
565
476
744
604
303
463
543
239
313
613
357
223
545
507
253
431
584
346
374
628
448
303
616
552
276
530
755
493
382
672
590
410
710
744
467
691
915
638
723
1036
826
761
1092
1032
951
1201
1141
903
1017
1292
1128
928
1210
1192
869
1039
1176
757
646
900
652
442
704
638
391
520
628
385
348
639
499
315
590
512
221
494
595
271
378
596
367
272
570
545
274
493
654
310
363
594
375
344
552
475
285
358
439
258
294
483
323
269
427
273
132
344
367
130
204
443
257
68
354
360
58
224
381
92
131
411
215
68
297
222
-4
218
322
14
78
377
135
63
477
314
-6
280
381
111
216
484
316
223
539
499
207
417
518
51
21
284
-57
-291
-33
-43
-345
-223
-55
-367
-280
42
-272
-469
-121
108
599
2320
4682
6270
6221
4181
1552
68
-309
-376
-468
-263
-189
-562
-581
-353
-612
-769
-456
-541
-814
-592
-467
-690
-690
-526
-677
-785
-481
-556
-852
-527
-449
-914
-839
-501
-712
-897
-676
-713
-956
-806
-694
-980
-969
-713
-851
-972
-693
-708
-963
-686
-520
-852
-789
-558
-750
-860
-621
-654
-928
-745
-637
-980
-994
-760
-1045
-1278
-1022
-1140
-1447
-1278
-1224
-1571
-1516
-1219
-1473
-1671
-1341
-1335
-1668
-1495
-1333
-1595
-1584
-1348
-1469
-1576
-1300
-1329
-1560
-1347
-1253
-1569
-1496
-1153
-1367
-1566
-1219
-1247
-1530
-1306
-1142
-1433
-1416
-1021
-1283
-1598
-1214
-1171
-1455
-1299
-1167
-1409
-1349
-1090
-1286
-1440
-1169
-1175
-1400
-1185
-1041
-1336
-1272
-976
-1224
-1352
-1029
-1039
-1278
-1117
-923
-1196
-1231
-839
-1025
-1298
-926
-957
-1240
-980
-848
-1114
-1022
-697
-893
-1047
-725
-757
-1004
-681
-483
-790
-696
-447
-662
-706
-417
-520
-816
-755
-768
-1002
-957
-776
-936
-1094
-832
-747
-1004
-879
-655
-963
-1049
-542
-92
1042
3542
5700
6013
4528
2250
298
-628
-518
-505
-639
-473
-653
-979
-785
-663
-968
-874
-593
-846
-923
-624
-712
-958
-732
-568
-841
-782
-485
-731
-880
-440
-498
-881
-591
-413
-707
-631
-315
-466
-614
-306
-279
-506
-292
-105
-370
-279
42
-133
-190
121
92
-97
197
344
-27
33
410
146
-41
323
272
6
189
263
4
-17
122
-54
-245
-6
26
-274
-109
70
-244
-240
78
-122
-302
28
-18
-250
-1
97
-117
-76
67
-88
-158
114
98
-127
71
260
-30
-38
259
79
55
339
128
-110
244
364
7
97
364
124
1
303
258
18
201
288
60
113
299
112
18
302
279
76
244
322
87
206
405
152
117
342
283
80
213
346
55
116
432
207
61
368
329
91
350
549
341
342
570
402
276
599
573
439
691
757
543
618
812
606
497
698
447
67
262
402
165
197
401
186
85
427
407
111
270
395
330
1018
2611
4696
6764
7443
5605
2928
1465
696
259
512
800
489
215
408
355
76
265
406
189
254
405
185
112
435
360
138
425
520
228
259
528
359
222
516
519
306
476
609
299
376
703
454
370
719
663
438
703
863
546
640
962
738
676
1016
940
784
1033
1020
765
904
1138
841
693
1014
941
655
767
846
518
479
733
505
356
659
576
284
489
595
290
384
613
331
236
604
530
219
465
577
271
356
652
452
330
672
555
249
583
715
368
496
756
423
326
671
586
331
535
680
383
379
659
478
313
548
481
335
549
573
265
303
582
371
244
573
484
230
503
620
307
395
689
403
267
616
542
270
475
603
327
374
642
491
399
650
625
460
700
763
457
562
847
695
669
1015
973
719
925
1047
743
785
991
659
387
684
576
169
448
607
302
372
635
415
251
502
412
315
985
2142
3799
6211
7770
6473
3757
2013
791
130
577
800
423
384
548
293
176
462
407
195
386
419
119
265
518
277
217
485
357
182
508
538
227
377
573
329
265
569
504
294
548
659
394
478
714
551
529
784
682
489
728
884
690
815
1092
842
727
1102
944
630
986
1062
715
811
1010
753
593
822
671
448
679
589
273
356
569
366
203
499
396
118
389
543
220
195
465
257
128
500
437
112
370
508
176
303
618
356
247
531
450
229
462
619
294
317
556
372
311
513
442
241
396
478
220
291
538
365
223
446
436
216
412
529
299
363
492
322
218
409
423
152
337
506
185
283
571
298
181
509
421
146
410
602
339
398
665
476
394
670
565
456
785
827
576
620
915
845
537
719
653
244
423
517
181
260
523
286
157
468
417
209
456
428
123
522
1384
2401
4401
6793
7246
5217
2817
1225
193
218
635
359
224
537
397
92
332
447
79
134
502
245
68
483
398
38
285
424
136
261
504
195
85
476
508
199
374
553
267
383
680
494
354
609
627
407
694
867
556
702
1002
751
690
1055
1012
794
1043
1166
820
867
1201
969
798
1094
1049
683
833
951
484
510
782
499
340
548
479
231
407
536
267
306
556
397
287
540
502
261
476
619
347
416
673
466
293
605
653
307
448
600
294
385
656
425
274
555
492
203
474
592
206
261
565
344
168
454
406
190
368
427
181
251
517
257
131
459
346
88
320
403
146
277
456
170
73
362
322
88
270
365
101
200
443
168
116
530
421
155
408
465
194
380
703
458
372
659
557
347
621
663
157
137
345
36
-74
271
148
-214
38
178
-101
76
317
-89
-311
190
703
1650
4030
6412
6899
5443
3213
1245
77
144
322
72
187
182
-186
-135
86
-167
-282
-3
-112
-354
-94
49
-291
-267
35
-222
-355
-17
-55
-289
-73
-26
-274
-123
52
-186
-257
68
-30
-252
68
128
-202
18
325
-13
-82
340
361
75
262
402
105
213
484
258
142
437
370
85
271
369
73
123
337
22
-189
98
74
-198
-104
-13
-337
-325
33
-281
-513
-113
-191
-499
-238
-120
-458
-360
-89
-352
-474
-157
-226
-517
-281
-124
-425
-365
-90
-302
-433
-139
-128
-408
-249
-161
-510
-439
-160
-378
-536
-204
-317
-635
-327
-214
-547
-464
-248
-566
-653
-315
-391
-597
-381
-261
-573
-587
-274
-500
-657
-351
-440
-627
-419
-377
-677
-614
-372
-547
-721
-490
-461
-718
-447
-319
-670
-524
-276
-540
-600
-341
-381
-542
-247
-69
-495
-473
-147
-394
-464
-181
-473
-835
-618
-595
-926
-829
-613
-898
-947
-593
-718
-964
-774
-829
-1007
-403
874
2483
4705
6384
5275
2535
791
-291
-995
-728
-380
-731
-970
-755
-897
-1152
-944
-807
-1042
-1080
-888
-1088
-1165
-846
-987
-1212
-925
-831
-1092
-1060
-848
-959
-1064
-827
-878
-1091
-877
-811
-1063
-949
-716
-951
-1010
-672
-716
-983
-747
-545
-806
-726
-390
-570
-795
-524
-510
-735
-495
-366
-616
-505
-214
-545
-744
-392
-505
-715
-547
-578
-853
-806
-612
-920
-1024
-615
-738
-1105
-795
-702
-1122
-988
-710
-976
-1064
-721
-815
-1105
-773
-670
-1058
-910
-646
-901
-1006
-705
-746
-998
-737
-662
-951
-781
-606
-799
-910
-731
-716
-966
-846
-678
-928
-903
-650
-867
-959
-674
-778
-998
-764
-703
-1001
-906
-624
-833
-953
-608
-703
-992
-729
-631
-914
-842
-574
-742
-929
-665
-686
-920
-693
-562
-818
-772
-517
-694
-749
-388
-490
-792
-538
-377
-624
-482
-156
-381
-471
-140
-224
-447
-248
-318
-694
-622
-486
-748
-833
-589
-633
-877
-721
-543
-777
-736
-464
-721
-794
-107
678
2034
4556
6473
5884
3433
1165
-240
-857
-492
-306
-610
-479
-442
-753
-713
-566
-725
-754
-572
-657
-872
-574
-410
-802
-694
-435
-698
-768
-441
-471
-734
-536
-411
-628
-554
-328
-509
-612
-293
-342
-524
-222
-163
-465
-372
-32
-178
-294
62
-21
-222
54
111
-133
-3
257
19
-92
210
120
-110
137
209
-107
-35
200
-141
-383
-33
-150
-565
-316
-190
-447
-354
-305
-528
-526
-261
-336
-602
-338
-215
-553
-446
-92
-321
-564
-244
-271
-530
-264
-183
-498
-408
-131
-313
-473
-225
-336
-502
-234
-272
-532
-435
-208
-410
-527
-262
-357
-585
-319
-295
-651
-507
-269
-494
-587
-325
-346
-564
-467
-376
-585
-536
-254
-453
-641
-381
-489
-732
-408
-329
-685
-528
-321
-632
-591
-171
-295
-590
-357
-301
-597
-435
-142
-311
-349
-88
-144
-367
-241
-154
-493
-497
-333
-712
-858
-509
-564
-871
-663
-524
-746
-693
-533
-754
-940
-563
-135
582
2548
4957
6152
5288
2920
593
-644
-763
-698
-737
-556
-611
-993
-920
-618
-909
-1020
-658
-769
-1034
-811
-660
-961
-940
-666
-897
-995
-702
-765
-944
-702
-658
-892
-779
-682
-837
-904
-651
-645
-920
-665
-465
-754
-642
-372
-653
-713
-350
-414
-661
-398
-221
-495
-441
-172
-325
-390
-152
-271
-529
-272
-198
-558
-486
-254
-507
-686
-501
-643
-858
-697
-699
-992
-971
-750
-893
-974
-753
-814
-1049
-828
-651
-1034
-950
-613
-892
-973
-661
-694
-918
-755
-640
-895
-793
-530
-768
-865
-596
-658
-887
-738
-648
-864
-761
-623
-903
-939
-609
-678
-898
-625
-619
-992
-842
-631
-887
-956
-643
-683
-962
-768
-692
-992
-862
-640
-899
-990
-664
-726
-1004
-765
-634
-935
-804
-539
-846
-902
-596
-720
-906
-602
-448
-753
-609
-309
-641
-821
-459
-405
-615
-356
-185
-490
-429
-130
-354
-522
-322
-434
-817
-749
-558
-850
-860
-568
-734
-848
-566
-671
-936
-757
-623
-572
277
2147
4249
5971
6166
3928
1380
188
-399
-654
-409
-233
-551
-754
-607
-631
-825
-652
-538
-865
-824
-504
-695
-826
-531
-583
-816
-610
-484
-741
-655
-299
-604
-847
-400
-410
-725
-512
-365
-635
-551
-214
-372
-519
-235
-224
-440
-216
-65
-331
-201
52
-169
-181
115
15
-153
98
96
-162
-57
146
-46
-159
118
24
-246
-54
22
-340
-314
-63
-310
-469
-225
-217
-503
-330
-99
-440
-481
-142
-312
-489
-139
-164
-489
-257
-79
-390
-295
46
-197
-368
-45
-67
-318
-94
34
-302
-241
108
-111
-245
73
-11
-264
-111
-43
-281
-222
4
-217
-302
-1
-107
-362
-122
-5
-282
-185
65
-208
-335
-15
-139
-352
-30
-34
-361
-219
-5
-220
-329
-22
-111
-413
-123
-2
-325
-221
101
-104
-242
63
9
-203
68
196
-149
-108
303
184
24
383
326
-4
327
452
-10
-2
167
-216
-360
-26
-116
-372
-166
-42
-249
-237
5
-107
-424
-190
210
800
2644
5107
6664
6467
4522
2065
439
126
148
-30
159
145
-246
-196
27
-225
-303
-34
-217
-442
-128
38
-273
-250
23
-190
-360
-31
93
-208
-152
44
-215
-186
99
-69
-154
73
28
-200
48
255
-56
3
304
114
0
337
322
61
334
507
201
315
630
305
155
534
454
155
462
623
195
220
542
317
132
331
234
-51
134
244
-119
-64
230
-7
-206
89
77
-218
68
182
-171
-53
192
-41
-175
135
102
-179
69
224
-41
22
239
74
-64
173
154
-109
118
269
-44
49
326
24
-73
255
74
-167
102
187
-89
-58
219
69
-122
119
111
-131
39
206
-38
-22
250
11
-145
230
141
-215
57
225
-79
-77
154
13
-92
188
142
-75
119
166
-46
98
387
178
9
290
264
76
339
547
309
357
630
408
246
504
392
103
253
211
-146
-25
258
-2
-140
143
109
-178
35
240
-183
-84
708
1345
2915
5663
7245
6298
4018
1899
304
-116
344
357
97
214
151
-236
-30
200
-171
-101
212
-67
-170
164
108
-183
37
195
-131
-37
303
96
-141
123
201
-39
233
468
13
34
430
176
42
449
462
113
341
586
333
427
691
485
403
711
698
498
709
817
569
658
896
700
558
794
694
418
626
716
400
366
528
313
184
444
364
52
236
407
115
117
382
195
82
356
349
147
289
407
109
171
469
231
103
426
429
138
288
495
207
157
512
334
140
456
338
43
270
497
254
126
433
375
124
312
307
108
308
367
82
189
462
220
101
356
330
104
243
415
139
154
452
236
74
416
327
4
272
344
6
167
460
220
128
495
438
81
318
480
233
389
712
565
396
688
622
245
425
489
103
141
330
60
-44
218
124
-101
141
244
-15
-2
136
-53
188
1321
2769
4609
6691
6839
4222
1743
659
-96
-247
205
251
-91
-33
86
-207
-224
0
-160
-359
-135
-69
-315
-105
5
-358
-264
56
-141
-328
-75
-52
-313
-149
48
-218
-235
-6
-175
-277
49
63
-253
-45
205
-111
-43
316
53
-127
227
244
-20
222
390
73
108
395
210
107
390
220
-95
151
282
-42
-102
50
-190
-421
-207
-194
-533
-511
-343
-603
-670
-384
-588
-743
-464
-559
-795
-494
-347
-752
-719
-372
-545
-756
-498
-452
-745
-595
-415
-675
-671
-398
-571
-816
-559
-563
-842
-652
-522
-790
-809
-577
-723
-895
-678
-699
-958
-826
-634
-844
-945
-717
-801
-955
-737
-788
-1017
-826
-679
-995
-1011
-632
-839
-1113
-780
-774
-1106
-939
-738
-1017
-1046
-761
-915
-1035
-694
-714
-1024
-829
-633
-882
-893
-551
-608
-750
-500
-561
-725
-569
-551
-746
-788
-739
-930
-1092
-980
-989
-1209
-1016
-765
-1090
-1149
-791
-972
-1274
-1004
-675
-387
896
3309
5318
5866
4449
1821
-105
-706
-765
-901
-719
-623
-1071
-1147
-850
-1027
-1199
-911
-946
-1272
-1076
-821
-1138
-1197
-845
-981
-1175
-877
-866
-1204
-959
-654
-999
-1047
-714
-888
-1117
-766
-685
-998
-773
-536
-788
-771
-541
-716
-796
-433
-391
-675
-527
-285
-504
-448
-117
-357
-479
-176
-265
-536
-358
-150
-442
-497
-165
-386
-657
-426
-445
-714
-614
-496
-789
-787
-527
-785
-926
-546
-621
-953
-722
-576
-881
-867
-578
-672
-780
-580
-589
-822
-700
-483
-675
-670
-391
-571
-788
-501
-404
-749
-633
-365
-710
-792
-404
-540
-817
-495
-407
-754
-633
-420
-652
-708
-467
-625
-849
-531
-480
-843
-688
-437
-711
-734
-449
-596
-724
-447
-467
-773
-630
-444
-732
-748
-425
-533
-745
-569
-525
-731
-572
-359
-636
-675
-337
-405
-569
-340
-359
-619
-290
-58
-415
-342
-22
-154
-356
-187
-183
-574
-565
-404
-698
-799
-511
-628
-849
-575
-530
-846
-661
-418
-879
-981
-226
348
1630
4301
6232
5933
3916
1784
74
-751
-451
-364
-596
-526
-565
-889
-803
-612
-893
-922
-601
-765
-1022
-712
-605
-851
-770
-729
-921
-879
-617
-729
-963
-675
-592
-881
-734
-528
-768
-801
-499
-603
-821
-499
-415
-760
-547
-314
-596
-540
-234
-392
-659
-399
-249
-494
-311
-59
-369
-448
-137
-295
-526
-231
-172
-511
-428
-204
-487
-555
-268
-517
-762
-535
-629
-891
-643
-471
-841
-846
-493
-691
-932
-600
-490
-793
-681
-468
-722
-747
-424
-573
-825
-535
-437
-646
-453
-375
-691
-657
-357
-429
-635
-458
-362
-639
-538
-287
-543
-610
-311
-447
-687
-442
-405
-696
-473
-295
-624
-564
-317
-486
-663
-468
-401
-695
-553
-307
-652
-702
-342
-435
-637
-460
-436
-690
-583
-326
-533
-634
-329
-451
-606
-335
-408
-628
-387
-162
-415
-490
-200
-279
-435
-35
50
-280
-85
88
-166
-179
96
-34
-440
-371
-244
-527
-463
-267
-551
-613
-336
-392
-552
-327
-275
-631
-474
216
852
2469
5183
6687
5835
3631
1437
-43
-379
-146
-205
-253
-152
-303
-569
-349
-266
-603
-461
-233
-460
-479
-303
-420
-583
-404
-301
-550
-451
-218
-444
-471
-106
-247
-551
-276
-146
-420
-270
-2
-253
-292
-9
-67
-221
-24
116
-91
-37
239
38
-11
354
285
53
253
410
184
199
432
263
153
435
390
151
248
221
-56
7
188
-82
-134
105
-135
-350
-87
-30
-311
-242
36
-163
-345
-9
-58
-321
-66
17
-282
-202
62
-153
-224
110
-4
-303
-31
88
-162
-75
48
-117
-162
25
15
-222
-88
45
-282
-128
189
-180
-293
93
8
-301
-87
62
-196
-89
171
-57
-140
105
48
-134
-42
87
-132
-165
121
-12
-138
110
57
-172
60
153
-169
-109
135
-61
-120
235
183
-63
168
249
-49
67
423
276
136
495
498
113
328
506
120
103
298
-52
-263
36
-66
-368
-118
31
-211
-129
0
-192
-242
-18
105
475
1869
4022
5995
6750
5257
2416
524
-10
-239
-350
-6
37
-371
-289
-60
-409
-547
-222
-302
-512
-272
-163
-445
-380
-94
-326
-455
-163
-294
-523
-230
-94
-412
-310
-15
-219
-365
-145
-167
-288
-55
10
-179
-130
63
-67
-171
193
233
-94
200
450
36
91
426
218
124
414
369
64
258
370
8
93
356
72
-141
94
25
-313
-191
-126
-428
-339
-164
-471
-541
-183
-276
-516
-245
-211
-523
-415
-188
-377
-473
-206
-234
-476
-299
-173
-466
-424
-116
-331
-439
-163
-315
-514
-317
-238
-478
-487
-253
-413
-559
-272
-293
-617
-438
-254
-556
-526
-266
-496
-656
-408
-481
-716
-418
-292
-658
-598
-268
-444
-676
-418
-401
-679
-471
-381
-735
-632
-362
-602
-678
-390
-487
-704
-533
-415
-587
-535
-307
-498
-613
-319
-381
-615
-351
-124
-343
-358
-147
-310
-308
-35
-236
-533
-393
-409
-787
-766
-554
-796
-858
-535
-593
-852
-658
-507
-844
-861
-542
-451
161
2045
4393
5972
6023
3974
1342
-15
-485
-673
-616
-379
-552
-925
-783
-638
-933
-977
-706
-837
-975
-701
-728
-1058
-856
-650
-945
-902
-694
-895
-945
-750
-824
-1019
-822
-667
-916
-848
-589
-757
-861
-566
-593
-882
-618
-436
-805
-691
-311
-551
-737
-379
-370
-638
-404
-237
-493
-508
-291
-479
-596
-278
-350
-569
-382
-340
-624
-658
-469
-702
-853
-545
-703
-1065
-786
-609
-947
-953
-673
-823
-957
-640
-749
-1107
-824
-596
-910
-953
-663
-776
-829
-651
-756
-890
-729
-588
-828
-854
-536
-714
-913
-573
-599
-946
-755
-586
-890
-826
-534
-824
-970
-564
-677
-956
-701
-669
-985
-883
-555
-801
-979
-652
-704
-978
-765
-616
-920
-879
-586
-788
-933
-613
-643
-925
-678
-597
-930
-850
-606
-765
-852
-627
-674
-900
-734
-561
-770
-717
-448
-613
-748
-413
-440
-748
-464
-259
-480
-362
-140
-329
-461
-155
-165
-629
-552
-426
-802
-806
-547
-710
-799
-562
-636
-862
-604
-515
-927
-877
-429
-43
937
3221
5634
6331
5057
2749
667
-408
-449
-391
-470
-291
-416
-746
-617
-484
-776
-806
-514
-658
-818
-513
-507
-764
-556
-403
-668
-597
-375
-594
-684
-416
-473
-705
-486
-337
-526
-472
-338
-489
-551
-246
-202
-493
-309
-68
-348
-357
-56
-204
-289
71
45
-249
-46
146
-148
-176
117
-70
-221
105
69
-231
-57
139
-167
-285
-63
-201
-335
-124
-268
-568
-383
-246
-520
-527
-242
-402
-593
-288
-283
-621
-421
-190
-473
-448
-146
-388
-519
-172
-284
-573
-326
-125
-361
-427
-186
-264
-465
-243
-225
-518
-349
-158
-432
-409
-92
-332
-570
-269
-268
-560
-384
-198
-481
-459
-150
-355
-545
-245
-282
-544
-266
-202
-531
-455
-212
-374
-530
-225
-191
-485
-400
-227
-426
-463
-180
-292
-469
-188
-198
-514
-333
-154
-386
-322
-53
-194
-296
-34
-95
-353
-116
178
7
-56
256
159
-44
259
222
-170
-77
25
-342
-406
-91
-297
-556
-196
-177
-547
-317
-90
-431
-454
-215
-235
240
1810
3988
5940
6737
5140
2299
621
35
-222
-258
-17
-50
-425
-337
-172
-473
-504
-226
-362
-529
-234
-195
-500
-363
-182
-396
-302
-40
-266
-452
-206
-178
-414
-232
5
-239
-296
5
-52
-209
17
41
-240
1
276
-118
-136
307
169
25
388
349
46
286
453
171
238
502
257
81
339
309
99
322
364
15
63
294
87
-108
89
72
-211
-116
15
-330
-396
-91
-226
-428
-84
-18
-454
-320
-76
-350
-349
-85
-258
-414
-97
-83
-404
-251
-48
-389
-389
-27
-242
-410
-136
-152
-393
-232
-56
-457
-520
-147
-315
-547
-292
-222
-457
-382
-260
-492
-494
-214
-382
-585
-296
-270
-600
-455
-243
-515
-576
-287
-426
-640
-343
-328
-631
-436
-283
-622
-581
-313
-552
-708
-405
-400
-689
-497
-349
-644
-553
-253
-412
-519
-322
-379
-559
-242
-33
-364
-358
-66
-207
-416
-158
-196
-595
-467
-393
-805
-808
-466
-615
-824
-548
-529
-813
-602
-421
-839
-848
-191
464
1737
4174
6177
5946
3839
1502
-176
-818
-531
-486
-650
-399
-490
-921
-780
-541
-817
-881
-535
-699
-964
-628
-604
-904
-676
-468
-793
-832
-558
-686
-837
-589
-537
-785
-652
-455
-695
-685
-392
-518
-643
-387
-396
-635
-417
-208
-425
-423
-190
-279
-362
-122
-92
-338
-195
56
-189
-281
-14
-159
-363
-46
-18
-363
-212
-88
-383
-336
-240
-534
-690
-482
-507
-781
-570
-468
-830
-765
-472
-609
-765
-518
-449
-714
-581
-356
-664
-694
-340
-534
-731
-454
-453
-627
-449
-350
-662
-650
-224
-467
-766
-378
-369
-682
-517
-354
-635
-635
-326
-495
-730
-443
-393
-711
-492
-346
-661
-598
-398
-591
-743
-482
-415
-697
-551
-360
-668
-700
-440
-567
-703
-432
-394
-681
-543
-310
-572
-604
-212
-370
-699
-400
-363
-663
-458
-214
-387
-424
-237
-325
-473
-261
-178
-367
-158
52
-200
-221
95
23
-183
7
-101
-515
-403
-223
-488
-549
-306
-384
-616
-388
-270
-577
-379
-196
-639
-529
286
1259
3100
5651
6810
5256
2873
1255
-102
-519
-71
-80
-321
-231
-255
-508
-450
-312
-550
-564
-252
-386
-586
-321
-316
-596
-423
-168
-384
-511
-232
-318
-486
-248
-266
-492
-293
-56
-300
-315
-46
-160
-251
-19
1
-210
-24
181
-63
-30
222
48
-55
251
254
71
282
326
46
48
352
272
29
288
327
37
154
359
79
-98
178
52
-179
113
80
-290
-117
79
-196
-210
71
-94
-261
91
126
-214
-101
156
-44
-92
210
70
-157
137
210
-89
6
285
75
-87
198
111
-121
163
200
-123
75
306
34
-46
144
62
-94
109
173
-122
-41
219
44
-57
152
36
-208
26
147
-108
14
217
-16
-78
143
85
-76
98
207
-30
-5
248
43
-26
332
227
-79
138
263
-36
68
340
146
120
401
309
137
347
400
197
400
636
388
365
713
581
378
656
513
43
161
311
-61
-66
296
97
-86
252
228
-34
154
235
-101
87
1038
2140
4057
6693
7395
5253
2906
1438
280
93
511
422
142
286
256
-63
42
190
-82
-124
184
46
-129
170
179
-63
41
224
56
-12
240
159
-2
154
150
-40
76
269
133
94
340
238
11
305
377
140
326
541
303
236
534
436
301
574
536
221
400
679
351
247
653
488
149
464
545
159
280
472
134
107
351
114
-126
83
104
-194
-123
121
-109
-246
94
-31
-329
2
68
-218
-90
96
-116
-151
155
-27
-289
34
103
-213
-66
132
-175
-183
162
6
-199
56
121
-161
-93
91
-158
-239
44
-22
-276
-97
-1
-282
-155
65
-243
-259
47
-108
-237
5
-65
-357
-171
22
-269
-284
33
-112
-314
-32
-15
-300
-143
35
-243
-246
62
-102
-325
-61
0
-195
-29
81
-162
-132
208
15
-279
123
312
-2
168
427
134
116
425
290
14
113
41
-289
-168
56
-197
-201
78
-173
-333
-3
31
-220
-196
-5
175
1025
3022
5223
6707
6461
3998
1407
282
-18
-163
-1
278
26
-257
-9
11
-300
-202
0
-233
-283
52
-57
-347
-46
68
-334
-123
240
-150
-256
112
-16
-215
126
193
-157
9
270
81
22
210
167
15
249
378
149
260
520
298
280
649
451
287
653
630
377
572
759
487
446
765
619
337
642
706
242
412
613
157
168
541
227
-109
226
288
-14
142
335
97
107
420
262
7
288
422
161
298
541
292
128
403
433
231
473
481
138
346
550
245
260
576
388
182
450
439
180
362
564
397
326
476
384
200
426
486
227
380
563
296
248
495
406
251
456
514
269
359
608
366
258
612
524
292
559
569
241
390
652
412
354
698
608
415
702
732
450
615
837
674
749
1045
947
795
1032
1025
711
759
802
504
426
714
581
356
630
592
292
501
717
457
447
689
567
669
1663
3196
5055
7093
7507
5124
2483
1274
579
304
681
864
435
471
748
412
350
648
451
263
595
669
323
441
729
429
373
728
527
297
612
668
415
615
688
373
441
730
658
477
693
808
546
670
961
689
623
989
906
745
1016
1013
747
1013
1233
872
878
1231
1065
844
1078
1131
840
914
1111
877
734
897
763
472
678
689
295
404
562
294
346
584
344
138
421
507
233
360
557
325
284
566
415
129
424
539
262
319
499
337
292
545
361
154
476
425
94
232
430
224
136
353
223
62
278
301
43
136
328
99
96
322
142
-7
240
280
11
55
234
64
-8
265
134
-75
222
198
-69
112
254
-48
-51
273
62
-176
151
202
-128
45
270
38
71
287
136
-36
236
343
47
206
512
261
150
475
402
221
374
215
-146
-64
57
-247
-229
59
-179
-319
-74
-100
-278
-161
-98
-341
-151
807
2179
4215
6480
6844
4603
2198
821
-232
-338
179
37
-305
-120
-206
-614
-368
-127
-500
-534
-205
-365
-580
-321
-241
-515
-445
-175
-358
-504
-265
-334
-501
-245
-242
-543
-360
-125
-322
-308
-166
-284
-368
-176
-65
-290
-138
143
-167
-222
142
109
-69
102
189
-64
67
328
33
-41
258
125
-33
232
197
-179
-17
254
-89
-203
101
-83
-358
-67
-46
-356
-195
-52
-327
-351
-54
-167
-388
-139
-92
-297
-163
6
-220
-343
-37
-73
-289
-4
76
-278
-167
98
-164
-234
135
38
-315
-40
75
-291
-142
80
-169
-179
54
-98
-202
23
-84
-305
-134
59
-165
-254
52
-76
-319
-23
29
-232
-131
-13
-226
-226
56
-92
-255
32
32
-221
-47
127
-121
-214
54
-10
-231
28
66
-186
38
258
-31
-78
240
117
-87
265
426
118
217
491
243
193
509
224
-217
8
76
-293
-218
0
-217
-272
-24
-142
-317
-36
-14
