34
129
356
137
56
269
12
-72
116
-68
-308
-190
-42
-331
-285
53
-231
-438
-109
-151
-441
-264
-209
-361
290
1698
2989
4016
4407
3346
1912
1160
757
385
169
63
-234
-344
-193
-300
-493
-388
-424
-531
-332
-225
-366
-484
-321
-318
-528
-284
-79
-365
-370
-111
-281
-480
-322
-250
-370
-295
-151
-306
-258
-60
-326
-241
150
7
-137
58
140
-117
-94
258
129
-36
225
320
60
9
237
105
62
329
156
52
162
57
-53
2
60
-137
-212
-35
-54
-226
-128
-46
-271
-213
-8
-217
-268
-99
-230
-343
-91
-127
-396
-204
-144
-314
-200
-141
-367
-374
-116
-167
-416
-269
-102
-308
-324
-25
-95
-177
16
-102
-278
-86
-68
-321
-201
-66
-260
-345
-125
-78
-321
-248
-103
-376
-393
-38
-183
-375
-52
-92
-386
-243
-118
-291
-352
-181
-127
-196
-94
-120
-315
-229
-99
-184
-133
84
-26
-209
0
124
1
104
360
267
126
249
90
-78
46
-76
-298
-188
-43
-337
-445
-167
-315
-447
-139
-69
-395
-341
-164
-504
-233
1042
2470
3743
4461
3836
2448
1601
888
287
202
111
-185
-439
-263
-278
-622
-419
-260
-566
-535
-341
-487
-532
-332
-310
-513
-443
-259
-367
-408
-280
-420
-555
-211
-124
-382
-308
-152
-331
-312
-30
-154
-265
-65
-56
-240
-29
227
-82
-112
262
91
-117
116
128
-24
62
223
149
137
308
217
81
294
264
-78
72
118
-178
-105
15
-134
-174
-38
-138
-286
-153
-50
-182
-317
-51
-20
-258
-38
-29
-275
-107
62
-248
-306
42
-77
-194
103
47
-243
-82
107
-131
-123
56
-88
-147
47
45
-145
9
39
-226
-85
121
-12
-99
28
17
-151
-151
-29
-101
-141
70
-43
-192
-9
-118
-269
-119
20
-34
-117
44
10
-258
-15
164
-200
-63
212
56
89
272
141
-54
179
304
211
428
581
235
108
433
274
6
211
106
-225
-119
109
-98
-255
38
-125
-459
-13
82
-288
-71
-127
-265
579
1924
3384
4494
4424
3297
1979
1126
869
505
16
80
-68
-389
-205
-252
-385
-180
-206
-410
-294
-117
-299
-431
-182
-149
-471
-236
64
-299
-373
-36
-167
-378
-108
-102
-289
-132
-25
-81
-149
-34
71
-62
46
142
4
102
207
100
133
244
144
18
252
375
34
117
387
173
151
419
196
-7
330
277
24
127
149
-22
-86
89
-87
-292
32
-14
-292
-43
106
-165
-188
25
-43
-163
-36
-45
-274
-145
102
-98
-223
-53
-74
-191
26
125
-138
-146
16
-99
-159
101
22
-223
10
89
-217
-236
-14
-137
-189
70
-65
-224
15
-51
-301
-82
66
-180
-236
25
-25
-290
-109
29
-142
-40
98
-134
-186
16
-34
-247
-96
100
-62
48
203
-7
47
195
130
139
247
375
248
160
268
88
-85
54
1
-277
-152
-97
-369
-263
-110
-308
-323
-181
-259
-348
-209
-233
-602
41
1626
2868
3968
4414
3405
1944
1137
725
368
181
13
-284
-426
-277
-360
-531
-266
-305
-614
-413
-278
-422
-438
-329
-356
-481
-351
-308
-478
-382
-266
-486
-366
-100
-292
-402
-146
-120
-349
-159
18
-110
-92
1
-36
-87
94
178
-41
8
242
116
132
337
75
2
326
278
82
254
383
125
139
394
184
-49
69
10
-188
40
155
-192
-243
14
-56
-228
-33
-23
-237
-107
25
-275
-272
25
-150
-304
-22
43
-231
-157
4
-81
-188
-92
-11
-177
-46
77
-175
-124
98
-92
-148
93
-93
-229
-53
-87
-182
-83
-14
-198
-220
29
-111
-329
-45
70
-162
-107
54
-58
-202
-105
-69
-233
-119
-38
-247
-132
68
-112
-212
-65
15
-19
163
237
-75
-31
293
191
105
396
368
123
150
196
19
-75
99
-106
-321
0
-72
-366
-174
-91
-257
-359
-261
-208
-245
-182
-405
-354
766
2301
3552
4382
3921
2449
1424
895
552
233
61
-29
-400
-438
-225
-476
-576
-353
-428
-481
-351
-359
-496
-464
-245
-386
-497
-214
-258
-371
-245
-229
-424
-383
-110
-261
-351
-201
-249
-287
-146
-133
-357
-281
-94
-228
-283
-90
-53
-217
-98
-11
-172
-63
28
-132
-102
76
7
-94
59
81
-165
-94
116
-123
-222
-33
-192
-361
-158
-115
-354
-320
-176
-345
-364
-140
-338
-423
-79
-169
-395
-261
-79
-206
-314
-59
-89
-322
-66
34
-333
-254
18
-142
-245
-118
-165
-323
-156
-4
-278
-268
82
-109
-397
-63
-59
-381
-105
51
-244
-194
-34
-270
-352
-53
-81
-351
-102
5
-304
-225
-9
-224
-312
-12
-67
-238
-221
-174
-170
-144
66
-93
-206
154
119
-182
-31
119
15
143
364
166
-56
323
305
-146
134
199
-272
-295
-128
-256
-346
-176
-252
-422
-315
-161
-325
-387
-151
-446
-565
375
1571
2722
4201
4595
3183
2007
1270
485
321
280
-75
-469
-484
-336
-510
-487
-361
-572
-582
-387
-473
-650
-475
-311
-607
-621
-300
-447
-534
-295
-393
-552
-356
-327
-614
-372
-80
-348
-340
-168
-273
-396
-174
-55
-324
-253
27
-93
-179
23
8
-110
2
97
-63
40
264
-42
-115
274
282
1
34
124
-70
-178
-31
-45
-250
-107
-69
-313
-116
-63
-382
-313
-53
-170
-324
-172
-132
-314
-328
-164
-299
-296
-24
-300
-513
-54
30
-356
-176
20
-252
-269
-52
-136
-272
-49
-103
-286
-108
-101
-252
-182
-35
-249
-354
-73
-118
-330
-85
62
-386
-302
15
-298
-328
40
-39
-360
-165
-76
-395
-353
-139
-207
-294
-132
-58
-253
-132
-53
-379
-236
83
-69
-169
46
68
-182
-22
138
-51
17
278
280
131
183
183
45
101
121
-179
-257
-125
-278
-380
-242
-268
-515
-344
-107
-480
-394
88
-338
-684
160
1255
2375
3966
4580
3412
2303
1502
591
334
271
-34
-363
-313
-272
-674
-593
-234
-459
-593
-327
-443
-691
-490
-348
-568
-451
-200
-465
-568
-339
-337
-526
-382
-268
-531
-375
-194
-427
-393
-236
-347
-415
-175
-20
-289
-368
-15
-114
-324
-9
-10
-262
-42
133
-183
-176
90
-47
-116
140
149
-99
-17
173
-157
-290
87
-127
-356
-60
-171
-421
-207
-176
-371
-276
-137
-336
-492
-183
-142
-435
-248
-113
-415
-337
-53
-301
-426
-201
-234
-360
-271
-158
-305
-270
-10
-232
-441
-86
-88
-381
-160
-37
-273
-207
-68
-224
-322
-68
-65
-371
-204
-39
-350
-329
-72
-186
-298
-154
-155
-298
-137
-85
-420
-356
-30
-158
-291
-147
-144
-294
-202
-13
-130
-145
-2
-83
-76
118
68
-109
94
319
136
66
276
142
-40
227
117
-247
-204
-200
-319
-337
-160
-192
-427
-175
-131
-424
-211
-90
-452
-673
-175
923
2252
3877
4664
3709
2486
1626
710
411
446
-67
-369
-217
-358
-490
-423
-350
-507
-630
-363
-422
-577
-311
-343
-591
-388
-252
-560
-493
-155
-297
-433
-278
-248
-355
-217
-140
-355
-198
32
-194
-285
-20
-57
-219
-18
34
-128
-41
163
12
-145
91
104
-52
77
98
-11
109
235
130
-12
185
275
-35
27
145
-121
-114
22
-165
-272
-63
-107
-301
-102
-24
-288
-238
-53
-167
-232
-95
-79
-240
-141
65
-158
-268
39
-42
-174
123
106
-221
-113
134
-39
-11
161
-54
-122
77
94
-141
-124
85
-100
-80
151
-34
-120
72
31
-241
-93
116
-132
-152
26
-60
-162
-79
-29
-129
-96
87
-86
-176
68
-98
-129
206
156
-34
129
242
-82
-37
380
261
106
399
401
74
159
329
37
-182
62
-119
-400
-53
-58
-321
-212
-106
-303
-327
-127
-184
-340
-421
-178
544
1910
3647
4431
3952
2914
1664
823
661
374
-70
-21
-8
-425
-429
-204
-321
-421
-344
-368
-454
-275
-165
-373
-442
-188
-193
-414
-240
-179
-384
-232
-66
-275
-234
17
-118
-219
-125
-66
-148
-88
176
42
-37
171
53
7
228
130
-20
111
216
-62
-44
333
181
58
285
258
3
198
346
-25
-113
84
52
-95
52
7
-168
-10
-40
-234
-223
-62
-155
-339
-59
10
-330
-143
-65
-306
-232
-127
-305
-385
-129
-106
-277
-211
-96
-323
-281
-13
-200
-370
-179
-32
-196
-168
-60
-278
-349
-130
-146
-318
-173
-86
-331
-340
-134
-319
-335
-109
-264
-367
-143
-49
-278
-247
-116
-282
-289
-92
-192
-342
-99
-130
-392
-135
118
-18
-115
14
-16
-186
139
340
43
133
359
47
83
366
34
-182
-31
-40
-246
-245
-92
-330
-387
-166
-344
-335
-164
-153
-239
-365
-358
-94
997
2692
3977
4247
3595
2451
1150
489
616
292
-201
-193
-317
-429
-379
-378
-509
-478
-286
-422
-514
-385
-413
-514
-330
-313
-640
-449
-201
-537
-488
-89
-408
-547
-48
-142
-467
-248
-104
-414
-260
62
-176
-228
-41
-22
-148
-89
85
-33
-48
181
53
-178
118
207
-70
90
255
49
99
289
107
-31
126
43
-140
4
-13
-232
-177
-29
-152
-253
-157
-123
-315
-219
-8
-244
-281
-62
-151
-286
-128
-123
-296
-203
43
-65
-224
10
-21
-231
-8
119
-109
-41
97
-177
-172
106
-84
-124
27
-151
-141
65
57
-165
-188
-24
-58
-283
-149
107
-214
-284
-144
-259
-95
43
-157
-254
-81
-6
-175
-151
-28
-153
-196
-56
-46
-71
141
155
-74
50
152
14
92
289
225
174
468
359
-39
176
298
-23
18
54
-192
-299
-148
-39
-388
-339
-39
-295
-338
-87
-220
-453
-264
311
1378
2880
4185
4389
3507
2527
1398
406
482
479
-228
-268
-68
-442
-481
-172
-311
-467
-278
-334
-461
-300
-214
-414
-431
-257
-245
-364
-349
-281
-363
-262
-53
-205
-370
-140
-178
-363
-159
-84
-220
-103
-33
-206
-193
116
110
-74
142
102
-107
168
325
-26
-19
327
260
52
239
359
156
175
234
161
78
153
48
-126
114
21
-221
-9
32
-203
-125
48
-89
-271
-124
-14
-293
-255
75
-116
-257
19
-86
-332
-70
-10
-336
-121
83
-150
-145
11
-68
-166
71
109
-170
-66
73
-119
-189
-15
-40
-170
25
30
-218
-93
28
-196
-214
-2
-88
-244
-58
-21
-170
-90
-21
-180
-232
5
-81
-282
-117
1
-66
-35
148
66
-58
98
33
-43
212
285
105
169
380
180
39
272
119
-146
-39
-126
-372
-210
-47
-320
-353
-44
-258
-494
-182
-134
-369
-427
-359
65
1085
2737
4214
4325
3446
2393
1171
504
592
219
-143
-140
-404
-479
-339
-391
-533
-435
-357
-536
-559
-329
-435
-611
-320
-275
-453
-411
-252
-340
-491
-248
-217
-464
-257
-120
-435
-371
-80
-198
-268
-39
-79
-259
-52
96
-116
-147
124
75
-82
148
104
-118
161
299
-51
2
335
134
-78
228
265
-43
101
162
-192
-132
93
-227
-299
36
-187
-424
-172
-182
-273
-142
-112
-298
-337
-89
-228
-402
-145
-94
-311
-231
-87
-273
-295
-19
-82
-317
-100
29
-197
-175
-28
-142
-245
-37
-132
-317
-63
-61
-261
-212
-91
-217
-280
-57
-145
-397
-126
-40
-432
-218
-16
-308
-274
-101
-235
-408
-185
-105
-286
-213
-154
-265
-244
56
42
-203
-11
8
-194
-8
207
78
86
351
179
-131
50
-7
-282
-116
-86
-364
-439
-199
-247
-522
-328
-172
-454
-353
-168
-445
-570
-383
276
1387
2854
4288
4173
2949
2032
993
491
515
-18
-393
-217
-183
-514
-502
-323
-539
-558
-361
-432
-517
-405
-367
-533
-482
-241
-461
-525
-223
-264
-512
-533
-270
-294
-321
-155
-279
-374
-164
-73
-266
-192
-63
-243
-159
104
-47
-181
77
35
-127
99
158
-60
42
235
8
-70
236
292
-7
126
251
-70
17
171
-64
-186
-3
-30
-325
-158
59
-265
-271
-61
-289
-334
-25
-146
-372
-237
-162
-290
-180
50
-167
-280
-87
-75
-218
-81
13
-261
-127
125
-183
-268
107
-10
-387
-134
78
-259
-219
67
-190
-277
-24
-133
-271
-135
-23
-210
-280
-50
-186
-387
-121
-60
-288
-162
-78
-302
-213
-34
-260
-351
-129
-92
-190
-17
50
-103
1
61
-218
-143
280
190
-12
257
246
-102
-14
126
-122
-344
-179
-145
-413
-338
-290
-402
-388
-179
-231
-530
-278
-191
-632
-686
-59
919
2267
3826
4381
3364
2277
1463
570
511
456
-162
-304
-211
-491
-570
-359
-466
-678
-509
-324
-552
-540
-305
-477
-496
-185
-291
-566
-319
-243
-528
-338
-98
-354
-411
-101
-136
-451
-388
-199
-320
-255
-3
-48
-131
2
15
-138
35
161
-80
-30
95
-46
44
266
134
9
121
250
177
120
280
151
-147
41
124
-142
18
36
-285
-177
-26
-213
-223
-72
-114
-221
-98
-105
-313
-221
-50
-184
-240
-72
-197
-278
-33
-50
-306
-137
131
-101
-163
101
-4
-161
-5
74
-119
-116
186
72
-142
4
19
-112
26
79
-239
-179
142
-103
-279
-70
-118
-189
14
103
-202
-228
37
-174
-320
53
65
-234
-119
8
-233
-191
36
-199
-204
216
124
-192
124
263
-118
-4
367
207
118
443
315
8
196
258
-20
-39
79
-190
-375
-81
-66
-440
-277
-138
-393
-239
-20
-197
-330
-322
-324
309
1687
3164
4189
4242
3376
2053
958
715
598
14
-124
-84
-494
-431
-222
-520
-608
-397
-404
-538
-325
-204
-559
-553
-310
-432
-463
-294
-315
-409
-326
-254
-353
-376
-205
-315
-351
-86
-274
-379
-43
-77
-259
-114
35
-98
-190
93
94
-169
61
304
20
-7
305
143
66
311
252
30
234
368
-25
20
267
17
-80
-8
-62
-166
-170
27
-123
-232
-46
-164
-271
-72
-75
-332
-233
-36
-276
-280
4
-150
-308
-97
-103
-399
-129
206
-120
-173
71
-113
-314
-6
62
-267
-102
90
-145
-154
28
-166
-288
58
88
-216
-63
94
-203
-214
37
-49
-265
-87
-6
-294
-139
-33
-303
-235
38
-110
-281
-24
-46
-348
-189
45
-167
-173
-54
-147
-55
116
49
-168
-49
161
-41
9
296
158
40
253
172
-62
51
51
-258
-300
-46
-198
-450
-243
-201
-452
-317
-110
-343
-426
-165
-469
-644
244
1385
2650
4185
4579
3197
1991
1389
554
337
407
-121
-425
-287
-283
-558
-599
-332
-368
-541
-414
-353
-594
-447
-313
-562
-460
-231
-362
-494
-291
-191
-400
-315
-143
-401
-395
-89
-225
-316
-111
-124
-302
-229
55
-72
-162
117
19
-203
68
239
47
115
244
22
43
269
120
97
325
313
138
197
215
9
-3
117
1
-149
-42
-45
-277
-36
197
-302
-261
133
-92
-160
28
-78
-215
-48
3
-231
-202
-33
-118
-170
-69
-87
-180
-12
76
-144
-130
41
-15
-120
-18
-60
-285
-89
228
20
-112
120
-11
-164
-14
-59
-232
-43
137
-130
-101
130
-137
-332
28
91
-211
-70
11
-200
-136
-8
-56
-182
-182
-105
-198
-48
113
-118
-126
139
59
-96
193
268
52
227
343
192
302
411
227
71
144
158
-85
-115
-118
-319
-260
-111
-155
-260
-213
-116
-227
-226
-63
-311
-562
-18
829
1969
3673
4650
3982
2785
1772
784
491
488
30
-368
-264
-267
-564
-434
-300
-574
-619
-300
-344
-479
-259
-305
-489
-322
-232
-473
-435
-143
-358
-503
-163
-292
-438
-207
-182
-261
-146
-25
-211
-171
39
-115
-202
57
165
-69
-33
139
12
-54
133
175
-25
47
229
60
24
334
162
-107
240
265
8
157
152
-84
-142
30
-76
-290
11
-35
-262
-9
94
-158
-185
-25
-127
-175
15
37
-139
19
163
-157
-276
8
42
-66
107
104
-37
8
61
-28
14
126
21
-6
14
-44
-12
120
191
-20
-162
41
-41
-184
106
80
-222
-19
84
-203
-196
32
16
-137
62
21
-338
-22
224
-122
-133
108
-56
-266
-115
74
6
0
207
125
6
292
217
78
381
361
162
177
292
147
57
266
-20
-360
-77
-13
-222
-195
-102
-169
-242
-19
-149
-341
2
-153
-709
-241
1075
2272
3713
4699
3846
2346
1598
972
415
342
71
-379
-334
-91
-307
-509
-191
-223
-601
-404
-126
-363
-377
-238
-467
-442
-234
-256
-452
-390
-164
-416
-489
-98
-206
-382
-53
-111
-296
-121
-110
-251
-163
26
-56
-186
-31
81
-122
-62
225
14
-113
189
104
-145
95
248
2
53
308
78
-26
264
101
-139
76
156
-242
-201
69
-201
-224
18
-120
-339
-83
-14
-273
-164
-32
-192
-279
-41
-114
-360
-47
71
-186
-96
-1
-210
-172
55
-43
-221
-57
37
-221
-75
123
-146
-97
62
-139
-244
41
31
-238
-126
68
-115
-287
-6
-38
-283
-33
57
-303
-221
54
-162
-299
-86
-103
-269
-62
-92
-346
-109
-5
-279
-263
-36
-171
-307
31
135
-227
-138
181
-34
-75
289
245
-18
255
305
-76
33
127
-87
-228
-191
-216
-366
-219
-231
-484
-300
-173
-431
-368
-197
-288
-400
-436
46
1180
2722
4188
4306
3364
2410
1119
438
626
303
-268
-272
-214
-480
-518
-364
-400
-624
-547
-262
-485
-549
-267
-497
-544
-161
-365
-518
-248
-304
-434
-271
-248
-461
-424
-178
-210
-332
-173
-174
-347
-256
-75
-123
-170
-3
-100
-208
35
68
-102
-65
49
-165
-202
274
210
-62
98
11
-36
191
175
-107
-83
131
-51
-228
-114
-146
-355
-296
-254
-452
-389
-166
-281
-366
-82
-166
-471
-315
-148
-384
-408
-105
-182
-337
-197
-168
-397
-274
-41
-371
-374
-56
-121
-279
-103
-26
-346
-195
59
-214
-221
39
-134
-277
-58
-126
-333
-158
-69
-265
-308
-114
-210
-357
-135
-157
-392
-211
31
-251
-343
-52
-109
-291
-150
-149
-339
-214
-107
-264
-235
-158
-252
-258
-89
-66
-298
-41
230
-39
-97
102
71
-57
243
276
46
269
328
63
-6
80
-43
-292
-316
-191
-349
-352
-160
-391
-418
-88
-225
-458
-186
-216
-678
-392
636
1756
3162
4377
4131
2895
1901
970
339
358
226
-305
-548
-241
-290
-660
-483
-377
-591
-543
-432
-572
-665
-395
-384
-573
-346
-397
-674
-400
-176
-398
-498
-287
-358
-503
-211
-306
-486
-256
-215
-333
-338
-203
-153
-255
-96
38
-144
-114
126
-44
-150
182
149
-89
55
171
11
127
372
173
29
174
58
-151
101
191
-178
-108
90
-216
-254
97
-160
-428
-85
-9
-342
-303
-18
-128
-247
-39
-120
-488
-148
183
-237
-266
61
-115
-209
23
-129
-270
-89
-6
-162
-111
87
-121
-164
90
-20
-341
-155
136
-210
-139
161
-161
-158
71
-56
-133
27
17
-217
-167
-23
-121
-165
69
40
-209
36
37
-270
-48
61
-240
-271
19
4
-164
37
97
-110
17
210
-5
18
260
105
-3
196
383
240
217
384
182
184
297
76
-58
18
8
-195
-215
-72
-260
-372
-103
-182
-378
-59
34
-366
-442
-205
306
1475
3163
4381
4252
3267
2142
1010
505
617
268
-159
-101
-204
-505
-425
-276
-501
-421
-202
-432
-503
-279
-285
-433
-218
-172
-488
-335
-96
-285
-397
-255
-182
-364
-278
-8
-246
-318
-36
-197
-288
124
22
-205
69
62
-117
9
144
41
38
240
158
-46
149
125
-80
212
387
135
100
326
217
-12
106
91
-190
-97
104
-152
-239
-38
-87
-223
-100
2
-258
-292
-60
-231
-311
-31
-131
-375
-205
-93
-211
-76
18
-192
-225
-39
-79
-234
-101
-5
-212
-130
121
-180
-371
58
89
-242
-49
61
-281
-237
-4
-167
-256
-104
-106
-369
-260
25
-241
-241
6
-228
-349
-67
-130
-394
-229
-11
-232
-308
-25
-187
-352
-98
-51
-272
-260
-102
-229
-107
185
-3
-92
108
44
-75
228
290
71
277
313
-14
-92
31
-7
-310
-341
-190
-387
-328
-172
-452
-476
-96
-192
-490
-274
-198
-623
-528
405
1493
2889
4350
4222
2739
1722
1035
457
346
177
-233
-396
-275
-408
-595
-368
-294
-537
-471
-300
-529
-572
-204
-314
-610
-314
-228
-562
-399
-140
-424
-532
-220
-248
-395
-144
-96
-343
-206
75
-201
-289
39
-143
-250
47
16
-197
-26
254
47
-59
223
66
-174
160
298
-22
63
294
2
-60
305
165
-122
46
92
-220
-136
88
-301
-340
58
-86
-430
-248
28
-136
-165
-50
-238
-248
11
-137
-374
-111
82
-159
-196
62
17
-105
136
109
-174
-62
91
-80
-85
61
-118
-227
-10
-18
-268
-100
48
-234
-145
122
-105
-273
-103
-120
-246
-52
39
-341
-340
40
-162
-381
-132
-190
-401
-194
-67
-338
-354
-79
-191
-443
-141
-25
-334
-165
-37
-282
-280
-76
-166
-253
11
91
-71
-32
97
-17
-48
253
202
76
355
198
-26
124
-21
-190
-134
-80
-305
-365
-116
-327
-481
-203
-152
-384
-386
-155
-286
-634
-195
830
1926
3543
4624
3827
2629
1867
763
305
475
102
-315
-267
-230
-498
-501
-317
-540
-619
-344
-374
-561
-396
-261
-458
-424
-234
-397
-476
-221
-280
-442
-211
-170
-414
-400
-107
-97
-275
-137
-182
-261
-33
14
-188
-181
2
-194
-283
87
87
-293
-121
172
-122
-83
140
-145
-132
166
110
-59
104
174
-103
-34
86
-151
-179
32
-77
-357
-237
-121
-343
-268
-6
-162
-379
-108
-51
-308
-135
-134
-354
-207
-197
-263
-152
11
-91
-338
-108
-14
-245
-217
27
-110
-383
-112
49
-273
-134
62
-280
-168
62
-210
-193
23
-148
-263
-28
-36
-335
-211
103
-110
-310
26
-82
-405
-69
78
-211
-195
-31
-191
-253
22
-42
-271
-95
-44
-189
-219
-94
6
-176
-57
134
-131
61
334
-18
-12
236
154
168
399
358
186
371
429
120
124
315
-47
-265
-3
-22
-293
-130
60
-261
-237
76
-103
-312
-45
-229
-491
273
1450
2638
4044
4686
3637
2268
1552
888
418
387
200
-244
-341
-112
-243
-398
-182
-291
-454
-233
-237
-465
-380
-167
-304
-404
-213
-207
-361
-284
-120
-343
-336
16
-92
-237
-99
-19
-122
-104
-25
-113
-73
120
3
-90
196
140
-167
32
357
145
119
355
150
58
294
254
101
238
358
161
28
278
157
-66
330
302
-105
68
87
-175
-32
180
36
-135
65
31
-234
-72
95
-56
-126
21
-127
-316
90
171
-156
14
92
-78
-13
120
-11
-121
154
163
-113
-29
219
-1
-153
166
57
-208
59
157
-138
29
153
-147
-98
74
-85
-108
85
26
-88
48
195
-7
-101
77
-68
-155
63
25
-147
-1
132
-2
-4
162
7
-69
335
276
11
181
345
230
150
413
488
290
447
401
83
244
238
-129
-99
135
-66
-245
-33
-77
-225
-89
5
-187
-164
87
-322
-394
765
1921
3176
4600
4568
3083
1892
1187
639
490
353
39
-291
-208
-87
-298
-356
-193
-252
-394
-191
-224
-466
-273
-134
-419
-387
-74
-206
-394
-155
-38
-299
-258
-14
-148
-200
41
-127
-286
47
41
-223
-101
73
-22
7
131
-41
-38
376
339
-29
106
219
28
156
376
181
9
295
334
64
206
188
-51
65
247
35
-177
-15
-23
-156
-59
31
-191
-187
64
-144
-275
-23
20
-206
-179
-19
-163
-145
124
-21
-225
-56
-37
-215
-59
96
-105
-123
54
-44
-177
-9
-114
-188
54
21
-140
-147
9
-65
-319
-2
95
-238
-69
-7
-267
-233
-115
-216
-174
-16
-137
-321
-95
40
-238
-226
17
-226
-364
39
0
-270
53
158
-139
-101
48
39
105
279
231
188
334
284
-8
-30
237
98
-178
-29
-85
-454
-254
2
-336
-366
-85
-276
-428
-151
-107
-445
-454
104
907
2270
3952
4477
3534
2445
1475
547
490
502
-132
-334
-126
-353
-607
-388
-307
-522
-447
-297
-498
-480
-257
-384
-441
-316
-409
-506
-307
-137
-359
-386
-129
-271
-394
-153
-167
-341
-182
15
-133
-319
-103
33
-181
-84
100
-114
-51
233
-33
-107
230
47
-56
248
230
1
185
358
67
68
335
127
-108
173
266
-29
-55
-40
-145
-42
112
-17
-136
72
-37
-315
-54
87
-194
-230
-3
-47
-281
-41
66
-192
-49
28
-227
-110
193
84
-172
29
135
-122
-56
57
-118
-103
159
41
-160
39
-17
-211
-56
37
-83
-158
37
-106
-277
113
24
-302
-21
89
-115
-150
-43
-40
-205
-46
7
-356
-156
166
-72
-223
40
140
-84
85
167
-116
85
334
103
63
374
370
163
260
155
-28
148
132
-227
-214
-20
-411
-403
37
-125
-419
-317
-191
-362
-222
-158
-540
-276
978
2380
3576
4439
4035
2722
1571
878
501
176
99
-58
-413
-409
-303
-526
-536
-332
-401
-478
-362
-297
-490
-392
-303
-540
-403
-250
-367
-470
-316
-241
-562
-329
89
-233
-362
-150
-286
-355
-108
-120
-373
-172
118
-96
-268
-39
77
-97
37
122
-219
-13
344
-59
-190
206
190
34
247
210
-48
50
193
-15
-219
-19
-34
-315
-75
53
-268
-175
-10
-273
-378
-86
-58
-343
-211
-5
-308
-274
110
-228
-437
-5
-79
-302
-63
12
-270
-296
-48
-77
-141
-20
-31
-248
-72
92
-300
-114
112
-207
-81
-43
-268
-164
-16
32
-144
-150
63
-128
-195
40
-79
-235
-64
-96
-377
-184
73
-219
-109
131
-209
-276
11
57
4
75
122
1
-29
191
109
45
411
386
66
188
238
-84
-133
181
36
-387
-226
-125
-344
-243
-151
-319
-375
-237
-277
-299
-129
-359
-560
297
1883
3284
4290
4381
3059
1633
1055
707
349
108
-146
-487
-501
-189
-390
-669
-339
-363
-614
-437
-321
-543
-529
-217
-344
-572
-379
-299
-489
-408
-373
-426
-327
-227
-289
-641
-419
-104
-316
-197
-66
-261
-224
-32
-149
-245
-71
-34
-158
-55
158
-71
-165
153
50
-96
153
115
-140
84
262
-5
-30
177
3
-172
-23
-54
-240
-310
-126
-106
-284
-90
-102
-337
-170
-62
-278
-301
-142
-153
-282
-153
-173
-342
-104
-59
-235
-130
17
-202
-293
21
-103
-284
8
33
-300
-219
79
-129
-211
81
-33
-263
-88
-18
-263
-195
-36
-269
-225
28
-112
-305
-221
-48
-185
-283
-42
-136
-293
-80
-159
-334
-111
-67
-194
-59
77
-53
-172
68
132
-88
176
358
96
220
280
15
6
59
-120
-302
-123
-87
-355
-321
-237
-289
-376
-228
-188
-479
-281
-99
-467
-545
116
900
2116
3977
4535
3521
2476
1502
626
445
334
-190
-420
-280
-384
-583
-416
-375
-658
-574
-330
-579
-594
-303
-397
-589
-409
-306
-568
-381
-222
-579
-536
-233
-349
-461
-296
-287
-421
-322
-101
-223
-360
-129
-112
-305
-64
52
-268
-174
134
-98
-316
59
130
-135
55
64
-177
70
208
-91
-141
161
141
-161
-91
-4
-239
-213
-43
-293
-385
-86
-114
-387
-334
-147
-336
-354
-87
-278
-396
-84
-162
-375
-191
-177
-303
-185
-42
-175
-339
-76
-23
-322
-85
3
-294
-99
78
-178
-203
-24
-163
-246
-82
-4
-110
-160
-21
-190
-264
10
-90
-318
-169
-70
-257
-233
-26
-150
-393
-190
-58
-209
-90
-1
-161
-79
86
-88
-148
115
134
-32
135
313
106
-12
199
-93
-328
69
-121
-356
-144
-294
-506
-363
-205
-382
-412
-206
-319
-518
-277
-279
-718
-134
1205
2303
3641
4555
3645
2085
1248
838
443
110
-88
-290
-381
-279
-318
-527
-393
-334
-590
-634
-329
-339
-586
-382
-328
-590
-394
-272
-592
-434
-221
-468
-496
-249
-371
-506
-215
-211
-452
-351
-148
-252
-308
-86
-187
-368
-133
-100
-270
-120
86
-46
-186
40
50
-159
-42
-6
-124
6
189
-6
-143
111
-129
-363
-15
-85
-416
-201
-27
-295
-355
-135
-196
-423
-219
-69
-425
-383
18
-247
-422
-52
-101
-379
-281
-196
-349
-290
-172
-296
-310
-183
-213
-268
-136
-92
-295
-310
-70
-169
-304
-89
-198
-376
-206
-118
-280
-321
-133
-194
-275
-295
-308
-258
-191
-180
-335
-236
-53
-247
-383
-135
-150
-379
-157
-56
-200
-9
123
-114
-175
41
8
-36
173
385
166
-65
142
116
-53
7
-27
-295
-294
-166
-326
-330
-129
-310
-517
-220
-216
-432
-179
-284
-738
-226
934
2131
3655
4508
3647
2269
1491
897
345
201
17
-363
-422
-272
-378
-620
-451
-339
-551
-539
-379
-531
-635
-367
-277
-487
-551
-370
-464
-430
-138
-430
-559
-194
-273
-531
-362
-280
-496
-440
-150
-233
-436
-197
-188
-386
-180
-122
-303
-51
39
-302
-213
85
0
-148
53
63
-100
26
143
-25
-196
11
2
-163
-23
-67
-354
-303
-33
-184
-274
-69
-227
-345
-107
-134
-430
-325
-40
-224
-354
-106
-210
-468
-91
13
-436
-239
126
-169
-320
-50
-14
-244
-116
22
-205
-109
63
-86
-156
32
-128
-429
28
173
-215
-136
-87
-188
-152
-58
47
-97
-135
25
-153
-185
1
-96
-113
-90
-107
-100
9
111
-114
-160
153
66
-59
250
165
-117
122
351
74
243
557
289
309
449
246
52
89
50
-172
-116
25
-205
-363
-79
-68
-294
-161
-43
-297
-160
-34
-593
-338
883
2031
3224
4524
4368
2896
1941
1144
538
432
282
-46
-304
-248
-208
-457
-501
-319
-409
-449
-295
-334
-523
-424
-200
-298
-408
-231
-318
-524
-166
-143
-565
-228
67
-261
-264
-96
-214
-276
-98
-134
-330
-110
118
-157
-254
106
90
-103
57
90
14
91
181
45
-40
180
204
-13
48
249
73
54
232
-106
-222
118
-36
-236
-39
-59
-365
-341
-36
-171
-224
-47
-154
-237
-129
-136
-309
-278
-166
-422
-346
91
-142
-338
-59
-57
-303
-304
-48
-89
-160
33
-145
-325
-109
-24
-103
-28
-24
-240
-227
0
-165
-267
2
-180
-394
-147
-58
-193
-259
-140
-150
-281
-83
-82
-343
-226
-44
-244
-319
-110
-216
-417
-199
-95
-266
-109
113
-176
-291
110
62
-84
206
180
7
120
199
50
-64
23
-124
-360
-215
-197
-416
-323
-259
-467
-415
-191
-358
-493
-210
-161
-586
-587
283
1207
2564
4286
4462
3060
2049
1368
443
378
424
-187
-437
-302
-425
-625
-440
-375
-670
-557
-306
-495
-657
-513
-486
-591
-435
-377
-626
-487
-232
-441
-472
-258
-391
-527
-273
-359
-560
-277
-170
-297
-216
-175
-279
-224
-108
-52
-213
-159
152
-150
-164
207
6
-134
157
149
-160
72
257
45
81
200
-56
-140
131
-3
-210
-49
-49
-332
-261
-17
-204
-387
-117
-45
-309
-181
-69
-348
-340
-66
-147
-349
-233
-233
-284
-132
-49
-286
-386
55
7
-243
22
14
-289
-149
19
-201
-151
97
-61
-271
-70
-32
-289
-217
16
-193
-256
10
-96
-229
-169
-118
-176
-143
-21
-190
-253
-63
-104
-176
-89
-48
-172
-214
-30
-93
-104
193
75
-169
121
158
-51
216
278
56
254
378
80
1
181
91
-162
-91
26
-275
-396
-87
-161
-416
-206
-155
-425
-322
-94
-192
-326
-457
-294
766
2419
3884
4392
3714
2509
1366
686
592
254
-252
-144
-156
-494
-353
-284
-563
-489
-254
-421
-562
-292
-255
-523
-509
-238
-302
-372
-181
-310
-428
-199
-189
-432
-327
-177
-357
-353
-118
-167
-336
-102
-26
-342
-111
147
-144
-117
195
-22
-233
158
202
-122
24
179
-22
-14
177
108
-37
207
237
-108
3
229
-82
-193
154
-44
-323
-76
-7
-242
-150
91
-189
-352
-33
-82
-200
-29
-140
-244
-112
-55
-179
-140
118
-36
-177
53
-27
-194
19
161
-82
-134
97
-13
-191
45
92
-215
-109
60
-136
-147
82
50
-144
26
-18
-295
-71
32
-204
-104
51
-114
-201
1
-37
-268
-84
44
-182
-245
52
-22
-194
195
232
-56
72
253
54
37
344
245
113
411
396
-57
9
162
-141
-108
-44
-203
-276
-107
-51
-354
-279
-8
-252
-380
-94
-163
-398
-365
-74
696
2149
3767
4431
3821
2730
1608
698
631
483
-198
-253
-154
-390
-441
-215
-321
-630
-337
-282
-545
-380
-377
-482
-330
-185
-235
-411
-327
-225
-461
-387
-149
-333
-267
-68
-255
-406
-170
-74
-348
-201
96
-125
-223
75
-55
-287
30
209
14
59
193
-28
-33
277
32
-226
72
114
-48
89
259
55
-41
99
-156
-209
49
-18
-243
-289
-154
-203
-237
-94
-303
-368
-6
-194
-473
-176
-33
-301
-365
-137
-155
-292
-58
-32
-377
-256
-21
-193
-243
-40
-102
-295
-139
25
-173
-198
-65
-211
-230
-92
-179
-244
-17
-23
-323
-228
-67
-260
-225
-78
-218
-307
-149
-113
-281
-181
-41
-230
-293
-125
-201
-355
-120
73
-173
-162
45
-65
-90
116
45
-129
154
304
117
145
230
-34
-221
18
-171
-521
-266
-170
-407
-381
-256
-460
-485
-155
-240
-449
-231
-340
-695
-210
930
2129
3515
4384
3589
2229
1392
730
354
171
-107
-374
-451
-307
-465
-708
-399
-416
-746
-534
-292
-559
-691
-427
-546
-693
-398
-382
-605
-480
-415
-566
-502
-399
-551
-674
-504
-428
-624
-653
-502
-526
-441
-247
-405
-575
-281
-100
-423
-354
-142
-416
-359
16
-75
-351
-186
-37
-229
-166
6
-174
-217
25
-186
-500
-217
-63
-382
-434
-206
-382
-487
-214
-322
-483
-284
-329
-580
-360
-137
-411
-472
-275
-316
-364
-157
-203
-421
-262
-168
-331
-339
-116
-148
-411
-192
-66
-448
-396
-212
-408
-343
-196
-241
-301
-231
-214
-377
-292
-192
-358
-407
-262
-296
-452
-361
-308
-257
-172
-357
-490
-311
-78
-249
-461
-233
-172
-400
-355
-152
-249
-268
88
52
-151
-51
22
-72
100
312
121
108
49
-60
176
178
-11
-191
-215
-84
-352
-412
-215
-387
-446
-261
-361
-481
-228
-265
-532
-441
-256
169
1308
2984
4272
4173
3242
2280
994
390
637
276
-305
-330
-294
-481
-361
-214
-505
-556
-320
-483
-579
-367
-505
-635
-290
-180
-506
-451
-248
-496
-525
-287
-276
-436
-392
-144
-278
-409
-218
-217
-281
-63
-54
-306
-177
4
-164
-186
81
30
-91
154
120
-47
80
147
-55
-60
146
91
83
126
78
-93
-30
179
-122
-213
-17
-175
-284
-80
-53
-245
-174
-57
-260
-341
-224
-154
-182
-121
-38
-284
-235
-24
-187
-203
-37
-136
-357
-145
90
-140
-101
99
-114
-227
19
3
-238
-5
77
-220
-183
-108
-170
-75
85
-87
-231
-79
-14
-217
-201
63
-144
-265
-15
-109
-316
-50
14
-255
-182
-2
-163
-332
-98
-66
-193
-5
143
-23
7
162
1
-12
235
232
86
412
371
-52
101
186
-29
-146
-80
-201
-397
-186
-312
-587
-199
-10
-337
-353
-221
-341
-445
-446
-277
251
1572
3300
4233
4038
3099
1874
828
589
443
-145
-163
-88
-409
-469
-338
-494
-685
-442
-332
-654
-491
-205
-484
-555
-314
-400
-648
-380
-251
-525
-384
-158
-306
-424
-243
-244
-433
-207
-62
-415
-292
55
-185
-268
-27
-37
-161
-50
11
-130
5
210
61
5
162
53
-89
178
233
-48
53
280
68
-79
125
-21
-267
-96
-145
-286
-90
-35
-222
-285
-164
-201
-326
-205
-111
-291
-259
-96
-285
-319
-111
-198
-385
-202
-36
-306
-257
-85
-258
-247
-99
-64
-151
-63
4
-246
-262
11
-182
-271
27
-89
-263
-134
-98
-271
-324
-217
-235
-226
-56
-195
-378
-199
-155
-281
-154
-126
-358
-277
-83
-374
-456
-74
-4
-175
-111
71
-41
-104
59
7
-48
256
322
85
193
338
57
-190
69
52
-375
-211
-64
-375
-381
-158
-261
-370
-164
-229
-496
-308
-76
-478
-612
-91
610
2029
3772
4421
3676
2565
1629
649
362
440
-24
-297
-133
-327
-657
-364
-290
-601
-481
-361
-576
-626
-355
-384
-614
-345
-261
-641
-499
-206
-422
-470
-197
-309
-449
-386
-309
-292
-331
-98
-241
-522
-172
-75
-252
-116
-40
-157
-68
93
-165
-117
223
25
-182
78
167
-185
-38
179
-117
-87
144
-76
-242
-50
-126
-241
-125
-74
-271
-368
-180
-292
-445
-156
-79
-458
-466
-100
-249
-389
-140
-265
-423
-147
-62
-330
-200
-43
-330
-294
20
-91
-301
-75
98
-252
-299
-11
-145
-289
-161
-62
-207
-157
-88
-295
-145
-40
-305
-302
-14
-78
-303
-147
-158
-312
-286
-117
-201
-342
-60
-137
-384
-150
-161
-453
-233
19
-162
-252
4
5
-253
-4
194
-89
-5
205
82
15
206
97
-302
-87
136
-288
-466
-146
-263
-504
-253
-282
-521
-292
-203
-538
-440
-121
-381
-647
-145
887
2189
3799
4414
3361
2243
1440
624
336
347
2
-361
-264
-327
-658
-468
-369
-683
-547
-354
-602
-644
-304
-247
-573
-537
-255
-390
-503
-243
-266
-513
-382
-265
-505
-380
-36
-374
-574
-56
-77
-351
-76
-21
-270
-209
-22
-174
-225
117
164
-51
96
130
-124
-46
234
74
-7
295
164
-125
63
230
-34
-71
130
-146
-286
-29
-137
-349
-220
-41
-219
-369
-44
-72
-336
-141
-206
-327
-102
-156
-298
-136
-48
-213
-249
-139
-149
-201
37
130
-238
-129
242
-93
-294
48
-5
-195
15
18
-257
-94
188
-43
-89
147
-203
-340
40
55
-210
-214
-95
-260
-335
-128
-99
-333
-231
-67
-326
-300
-142
-341
-336
-152
-201
-313
-253
-147
-120
-11
144
-139
-286
88
81
-74
56
156
116
96
162
-56
-272
-41
-63
-424
-306
-206
-478
-336
-148
-482
-445
-175
-405
-484
-244
-309
-682
-486
498
1627
3032
4404
4064
2726
1977
1078
442
443
230
-292
-517
-274
-366
-650
-482
-432
-671
-530
-338
-518
-594
-406
-427
-626
-486
-336
-535
-463
-243
-472
-585
-230
-278
-567
-342
-262
-461
-324
-252
-375
-261
-98
-148
-346
-201
18
-190
-179
100
-23
-130
51
31
-100
60
176
-111
-22
327
81
-112
115
74
-221
-65
82
-202
-162
-3
-233
-337
-90
-130
-327
-249
-135
-253
-308
-77
-177
-408
-97
-75
-368
-148
18
-226
-221
50
-198
-384
11
5
-200
-21
-28
-167
-64
27
-115
-167
120
80
-259
-83
101
-164
-128
111
-127
-229
51
-84
-281
-81
-24
-186
-124
19
-173
-257
-54
-21
-160
-54
19
-178
-42
115
-49
-41
127
27
-120
123
288
88
117
378
209
107
315
99
-165
-66
16
-185
-181
-122
-304
-303
-172
-196
-371
-296
-225
-332
-215
-210
-452
-123
1095
2639
3888
4393
3608
2205
1347
846
404
127
57
-231
-561
-381
-291
-668
-640
-348
-480
-526
-395
-443
-553
-431
-341
-480
-496
-310
-437
-593
-296
-330
-491
-298
-225
-345
-373
-234
-228
-276
-101
-80
-166
-31
-19
-159
-10
184
-82
-157
188
153
-105
83
187
-53
-31
211
146
-45
188
139
-160
77
179
-84
1
45
-354
-333
39
-30
-256
-159
-38
-253
-419
-169
-162
-316
-64
-97
-377
-199
-116
-335
-229
-55
-186
-292
-66
-65
-306
-93
-45
-339
-155
20
-222
-267
-56
-221
-411
-164
-148
-243
-139
-67
-221
-337
-118
-130
-364
-240
-71
-300
-439
-148
-159
-494
-339
-146
-293
-197
-84
-316
-322
15
-63
-219
24
-34
-280
-111
161
58
-20
260
226
46
173
56
-177
-21
26
-285
-316
-106
-291
-543
-306
-187
-396
-290
-197
-495
-368
-83
-497
-707
126
1363
2644
4031
4289
3028
2021
1342
439
248
288
-179
-466
-342
-291
-483
-647
-468
-417
-563
-349
-452
-636
-367
-369
-612
-425
-219
-546
-528
-278
-369
-460
-271
-97
-382
-394
-112
-225
-442
-293
-138
-334
-104
115
-289
-355
-152
-257
-275
-17
-73
-286
-41
106
-273
-261
125
-66
-201
138
0
-242
-20
-9
-246
-198
-80
-264
-270
-125
-244
-365
-387
-349
-280
-265
-174
-315
-404
-187
-298
-396
-218
-181
-360
-385
-157
-230
-386
-144
-141
-452
-254
-20
-265
-306
-100
-180
-265
-58
-124
-308
-124
-36
-257
-228
0
-150
-321
-162
-87
-272
-195
-71
-307
-300
-83
-260
-409
-124
-117
-333
-141
-104
-413
-303
-102
-280
-289
-173
-213
-316
-98
-9
-292
-36
162
-118
-194
62
204
-28
73
347
153
36
177
-20
-294
-32
-161
-567
-213
-39
-455
-422
-94
-434
-549
-116
-311
-540
-287
-419
-641
95
1596
2956
4020
4349
3294
1910
1045
615
409
49
-202
-277
-400
-376
-380
-639
-526
-386
-604
-427
-255
-517
-554
-365
-395
-460
-357
-334
-466
-442
-266
-333
-357
-278
-374
-368
-325
-240
-305
-406
-222
-206
-255
-61
-163
-298
-55
-38
-143
-38
186
143
42
157
119
-17
91
238
-1
-12
180
-16
-50
238
100
-230
-26
77
-210
-133
19
-200
-264
-80
-199
-381
-211
-72
-252
-306
-151
-275
-311
-88
-52
-236
-258
-65
-196
-225
95
-54
-266
12
29
-248
-103
60
-137
-111
100
-101
-175
129
-50
-297
-43
96
-102
-95
72
-109
-295
-53
-21
-219
-57
6
-152
-191
-62
-96
-284
-59
95
-277
-227
80
-62
-46
144
49
-34
171
133
-87
177
358
64
127
511
389
140
246
270
-1
-32
123
-116
-176
-45
-212
-288
-75
-71
-317
-268
-173
-259
-201
-191
-474
-308
847
2352
3538
4415
4189
2723
1660
1109
590
310
227
-119
-427
-222
-225
-463
-424
-235
-282
-510
-457
-319
-446
-300
-173
-461
-427
-160
-317
-460
-186
-207
-364
-257
-135
-178
-331
-179
-167
-298
-22
5
-209
-56
48
-129
-85
181
11
-143
160
179
25
66
203
109
-48
253
207
-43
176
174
11
66
157
41
-75
119
-109
-368
47
30
-332
-117
68
-262
-304
-47
-122
-347
-214
-34
-273
-193
117
-202
-257
50
-191
-300
14
39
-130
-41
4
-111
-59
86
-20
-143
1
43
-132
-135
6
-137
-227
25
-99
-342
-15
-23
-395
-192
-29
-333
-387
-133
-151
-308
-141
-131
-380
-274
-116
-249
-246
45
-74
-322
-90
-45
-165
-34
59
-44
20
111
-133
-235
-68
-136
-435
-455
-288
-562
-795
-560
-670
-898
-777
-840
-1070
-959
-811
-1063
-1314
-1166
-642
396
2164
3529
3148
1989
1046
-35
-628
-567
-1006
-1473
-1281
-1301
-1615
-1531
-1361
-1734
-1731
-1378
-1525
-1679
-1500
-1407
-1753
-1588
-1291
-1615
-1618
-1374
-1500
-1592
-1355
-1423
-1656
-1401
-1209
-1363
-1444
-1169
-1106
-1397
-1199
-1119
-1335
-1183
-1139
-1251
-1090
-912
-1088
-1143
-936
-955
-1129
-1099
-949
-1120
-1008
-726
-896
-1033
-813
-891
-1238
-1071
-947
-1181
-1236
-1028
-1176
-1391
-1060
-1103
-1423
-1224
-1089
-1275
-1275
-1067
-1211
-1297
-1084
-1117
-1171
-1086
-1000
-1138
-1241
-946
-941
-1119
-909
-949
-1145
-944
-802
-968
-1047
-890
-1030
-1172
-779
-881
-1185
-880
-771
-980
-1051
-888
-916
-1080
-797
-776
-1118
-972
-772
-1004
-1038
-732
-908
-1066
-732
-716
-895
-770
-664
-818
-672
-479
-812
-855
-527
-522
-705
-481
-246
-531
-548
-358
-566
-728
-656
-662
-926
-907
-658
-818
-970
-764
-820
-1076
-726
-721
-1089
-762
-752
-1270
-1029
52
1168
2519
3843
3568
2191
1176
440
-42
-126
-281
-689
-878
-708
-789
-1062
-956
-760
-938
-1028
-762
-765
-944
-850
-712
-851
-830
-573
-821
-832
-449
-641
-853
-586
-535
-766
-651
-407
-543
-659
-371
-392
-610
-401
-369
-555
-311
-108
-288
-335
-197
-231
-240
-3
6
-236
-182
-47
-188
-117
71
-88
-178
-25
-128
-279
-103
-83
-272
-282
-80
-172
-417
-213
-193
-431
-299
-247
-368
-279
-204
-273
-270
-104
-188
-379
-191
-47
-256
-336
-16
-128
-337
-62
-32
-163
-142
-60
-230
-199
114
-18
-271
-132
70
-100
-123
21
-119
-119
-36
-154
-228
13
3
-291
-119
54
-157
-125
37
-191
-203
62
-25
-169
-41
-44
-223
-101
122
95
24
176
204
-108
80
440
193
185
491
355
100
202
285
59
-93
73
-109
-307
12
-51
-334
-180
-58
-234
-321
-161
-99
-201
-224
-215
381
1724
3136
4336
4477
3416
2108
1056
822
686
140
60
-37
-383
-277
-61
-369
-461
-161
-246
-439
-274
-136
-355
-248
-9
-250
-348
-52
-93
-288
-101
-68
-245
-141
1
-153
-157
138
28
-181
10
124
101
96
187
131
36
366
290
89
371
376
152
236
528
269
184
577
497
282
325
471
426
387
402
200
177
320
109
90
323
128
10
73
114
71
95
355
151
-65
207
197
-65
-42
235
174
22
196
146
79
392
322
-61
142
368
85
74
320
171
90
346
321
88
215
356
207
106
222
231
98
319
312
-28
208
353
65
52
207
128
41
301
289
-22
133
279
100
205
364
290
249
384
429
191
229
527
496
479
693
605
367
529
587
198
240
489
185
23
147
-31
-27
251
268
40
83
226
-50
29
282
-123
-81
1090
2378
3650
4833
4568
3074
1932
1423
957
582
489
276
2
43
152
-103
-220
69
71
-121
-1
96
-95
-136
105
21
-114
167
94
-116
83
123
3
163
201
-93
-54
235
307
127
202
293
78
221
367
235
239
441
377
245
432
411
275
481
593
304
317
627
454
254
559
585
284
403
554
309
235
393
339
102
120
359
152
168
370
103
129
374
179
54
342
269
-39
151
409
182
95
331
203
95
354
355
166
192
340
224
136
378
304
174
368
297
112
281
394
142
146
381
253
133
250
265
99
200
391
120
4
266
233
39
142
332
202
96
227
181
126
394
465
148
300
498
294
414
607
509
435
591
538
270
312
468
182
-15
226
63
-105
145
82
-119
23
87
-32
64
143
-78
-270
20
726
1881
3558
4638
4225
3115
2079
1125
717
686
361
32
-25
-14
-146
-157
-57
-252
-288
-82
-162
-285
-166
-96
-246
-185
-56
-272
-226
66
-8
-240
-72
62
-203
-141
180
36
-166
117
97
-149
99
257
77
136
242
39
38
354
346
135
276
339
114
271
452
193
136
369
366
172
347
406
170
287
281
-8
5
230
117
-106
43
137
-94
-28
170
-96
-170
153
95
-231
-6
216
-7
63
122
-36
-64
120
133
-128
61
236
23
61
238
81
58
276
91
18
274
265
41
48
167
107
150
229
146
80
219
258
11
42
328
111
-63
196
79
-34
45
16
-22
104
239
-91
-90
289
249
58
244
369
88
210
404
163
226
548
442
249
370
354
45
77
206
-217
-246
52
-107
-226
-64
31
-160
-108
5
-155
-337
-383
-111
616
2038
3504
4284
4152
3224
2007
902
691
642
152
64
-52
-335
-250
-138
-329
-406
-216
-254
-339
-216
-186
-342
-343
-67
-178
-281
-36
-183
-348
-91
0
-280
-179
94
-168
-271
11
-27
-184
22
101
-102
7
173
16
-84
212
223
50
302
249
13
123
307
162
-9
297
332
41
318
503
129
86
336
112
-115
160
137
-123
-25
-27
-139
-35
58
-134
-251
163
173
-279
-85
164
-177
-142
156
-88
-127
158
1
-164
42
114
-50
55
281
65
-45
170
96
-64
116
221
-53
-113
196
-31
-262
213
175
-168
64
198
-88
-90
170
-3
-145
129
39
-120
152
94
-214
-73
94
-91
-118
175
116
-85
187
260
89
146
296
219
97
361
514
310
320
414
221
208
283
3
-194
31
8
-326
-266
-22
-88
-140
-3
-256
-296
161
-72
-527
-147
743
1836
3275
4591
4407
2881
1872
1214
599
667
446
-183
-189
-54
-310
-342
-199
-267
-426
-375
-200
-267
-236
-144
-286
-271
-134
-233
-352
-239
-103
-191
-208
-67
-181
-199
44
-64
-229
46
41
-250
-22
186
-66
-88
256
90
-151
114
236
208
99
231
234
115
306
224
157
334
427
236
224
349
16
23
318
159
-17
127
182
-76
-150
147
43
-256
-37
49
-142
-21
150
-38
-60
128
-14
-114
133
87
-137
68
182
-80
-157
135
141
-63
142
209
-10
171
314
26
-49
70
104
46
109
123
-47
67
142
-24
-4
166
51
-80
83
14
-77
35
71
-27
29
261
59
-133
105
100
-64
125
222
73
128
321
140
-139
365
552
139
450
688
329
230
382
217
12
219
170
-184
-150
22
-138
-119
193
-55
-279
74
-39
-246
-126
-249
-127
706
2175
3710
4587
4344
3004
1660
1166
938
449
64
69
-85
-330
-75
-69
-325
-204
-75
-276
-319
-85
-107
-270
-201
-75
-162
-113
-41
-171
-110
-52
-92
-110
22
148
-66
-64
101
-52
-25
202
41
-74
271
277
33
255
359
115
240
449
220
152
350
371
184
224
387
247
290
456
294
183
342
243
-28
139
254
34
6
144
42
-63
97
1
-177
51
184
-42
-50
184
19
-119
197
134
-102
122
212
-40
27
368
201
-82
190
226
-59
195
277
-35
134
240
112
101
211
200
-67
50
259
-14
-111
223
210
-3
154
132
-74
0
113
-37
8
260
14
-140
170
194
-99
-28
182
77
133
393
165
-113
253
409
213
312
372
226
294
466
240
20
195
90
-262
-102
99
-215
-262
73
-55
-283
-133
-58
-341
-186
127
-452
-418
683
1657
3033
4564
4425
2928
1894
1278
545
328
439
80
-224
-62
-231
-450
-197
-119
-238
-324
-305
-359
-336
-110
-226
-356
-194
-132
-320
-348
-206
-157
-149
5
64
-155
-54
172
-48
-109
154
-35
-189
183
265
-31
40
231
10
7
299
199
-1
268
379
72
210
446
143
84
493
411
142
282
326
135
180
322
51
-19
219
28
-74
140
113
-59
-40
5
-112
-35
178
-3
-189
2
87
-33
-1
120
-38
-91
9
-45
49
216
119
-82
29
196
29
-40
219
88
-121
115
95
-26
64
64
-24
27
199
65
-155
12
70
-221
-16
251
-55
-79
138
-35
-148
84
46
-210
-68
147
-156
-236
76
14
-73
192
222
47
49
73
174
241
269
288
296
389
328
206
327
315
12
-34
87
-146
-252
-86
-149
-338
-300
-22
-56
-139
-2
-108
-358
-334
286
1252
2653
4209
4512
3539
2586
1477
578
757
549
-106
-130
-77
-354
-393
-112
-235
-542
-298
-111
-417
-342
-111
-316
-373
-182
-356
-471
-173
-207
-445
-235
-30
-252
-341
-111
-102
-243
-53
-63
-259
-88
95
-72
-158
30
116
111
224
201
-38
-26
219
145
15
248
107
17
352
348
149
202
273
124
82
183
81
-114
18
-5
-285
-91
92
-169
-298
-163
-114
-160
-16
-63
-221
-42
35
-189
-246
21
-25
-201
29
60
-226
-79
140
-51
-54
61
-46
-131
21
31
-148
-22
113
-77
-130
59
18
-180
-50
24
-239
-104
110
-150
-150
65
-98
-189
65
125
-188
-201
37
-45
-44
60
-88
-205
-35
69
-133
-68
227
24
-101
322
182
-82
263
313
101
317
562
245
163
510
360
120
249
106
-206
-111
12
-167
-118
79
-65
-262
-91
43
-143
-78
-44
-405
-195
945
2188
3476
4766
4347
2719
1742
1135
732
537
367
-29
-259
-22
-66
-318
-252
-109
-293
-372
-129
-225
-350
-116
-118
-361
-205
13
-316
-315
3
-147
-276
-60
-2
-126
-75
24
-19
-50
96
42
-92
81
118
4
106
218
96
120
303
215
132
351
311
76
302
437
242
236
454
406
105
225
244
-64
-37
120
-26
-265
-63
76
-132
-50
-12
-257
-142
90
-212
-407
-153
-223
-443
-158
-12
-360
-301
-29
-314
-418
-27
-117
-357
-104
-40
-281
-197
90
-147
-291
63
-42
-340
-41
124
-217
-173
69
-105
-138
-7
-159
-213
-48
-28
-249
-130
121
-100
-197
12
-22
-138
44
49
-200
-68
120
-193
-188
209
283
447
586
364
36
124
368
218
250
502
377
89
220
302
162
387
598
271
-34
157
72
-203
-10
91
-113
-99
49
-68
-183
-183
-170
280
1654
3283
4288
4346
3315
2050
1143
884
687
186
119
63
-183
-168
-70
-267
-393
-76
-69
-412
-22
258
-239
-184
71
-305
-353
58
57
-234
-34
259
73
206
440
162
123
467
393
182
333
318
193
402
629
329
245
661
462
159
491
599
374
466
545
357
343
517
460
360
633
651
279
315
487
315
152
365
313
34
190
174
51
152
165
76
58
239
158
-40
223
287
55
161
397
118
-58
332
224
10
242
315
108
175
361
108
124
386
227
81
242
262
84
254
364
68
106
314
170
37
227
289
81
219
367
81
1
235
198
20
193
267
1
17
274
103
-21
305
308
238
405
350
212
246
465
421
242
549
603
314
497
581
280
186
271
126
17
179
3
-148
74
70
-85
-14
171
17
-156
84
-72
-301
621
1969
3100
4423
4653
3263
2071
1416
884
509
355
210
-140
-137
68
-208
-399
5
-35
-319
-137
-40
-273
-257
-72
-191
-191
10
-98
-275
-23
-94
-265
-109
16
53
-84
16
43
-171
-78
141
20
-36
206
55
-25
273
266
64
164
388
145
218
422
159
137
312
384
155
323
579
162
104
377
140
-20
341
241
-111
155
333
24
-55
167
66
-108
176
188
-114
122
366
126
27
181
149
75
242
213
55
247
335
-17
17
350
145
49
297
119
-115
244
343
120
108
233
133
-117
170
239
-79
121
255
-53
33
177
-34
24
160
21
-62
115
113
-79
-5
133
-2
-204
-49
134
77
177
123
-56
106
331
186
16
329
390
138
425
553
85
225
675
338
46
294
200
-117
-56
5
-183
-139
-8
-205
-214
25
-173
-360
-62
-58
-379
110
1457
2663
3871
4616
3807
2513
1580
943
620
327
57
-220
-317
-197
-315
-563
-316
-63
-380
-424
-129
-353
-555
-153
-130
-473
-228
-75
-382
-338
-176
-296
-342
-211
-129
-192
-131
-115
-250
-77
78
-140
-209
76
67
-159
83
324
63
-82
124
114
19
205
170
1
133
278
160
98
291
234
125
230
155
-10
63
167
-21
-91
-27
-164
-164
40
-20
-199
-87
-15
-232
-174
60
-86
-161
65
-11
-236
-104
42
-83
-153
-60
-102
-40
119
85
-114
-98
119
-40
-21
120
-52
-19
115
-41
-188
77
106
-148
-13
209
-127
-261
114
32
-154
-22
80
-131
-113
118
-99
-200
9
-15
-123
37
159
-27
-36
260
222
-51
105
273
204
323
434
359
300
384
275
100
240
207
-42
3
-27
-326
-262
-11
-187
-322
-155
-190
-295
-194
-34
-270
-552
97
1125
2270
3982
4669
3659
2598
1713
786
556
523
68
-282
-133
-155
-418
-295
-198
-388
-462
-246
-355
-521
-279
-227
-329
-198
-170
-326
-238
-163
-343
-329
-72
-139
-398
-251
22
-263
-382
48
-149
-398
54
89
-232
-52
94
-153
-40
168
9
-10
137
92
-80
54
232
51
104
304
80
-15
277
201
-141
44
101
-168
-49
-17
-167
-182
-56
-87
-302
-147
13
-254
-173
96
-199
-321
-22
-111
-207
27
-44
-211
-52
110
-197
-281
62
-44
-232
-11
59
-207
-158
87
-63
-239
36
-66
-305
58
75
-282
-193
46
-46
-252
-181
-90
-200
-148
-37
-209
-254
19
-173
-326
-21
-89
-350
-130
73
-93
-67
159
35
-202
107
144
-132
207
406
112
156
339
58
-107
89
-48
-360
-211
-123
-343
-302
-82
-204
-512
-343
-191
-403
-297
-233
-550
-387
524
1612
2990
4330
4167
2867
1747
850
403
387
293
-163
-523
-320
-362
-592
-390
-259
-439
-452
-299
-475
-511
-219
-271
-627
-477
-159
-480
-553
-271
-491
-632
-168
-89
-486
-345
-62
-278
-416
-106
-160
-367
-36
0
-308
-158
44
-146
-215
31
67
-131
-22
78
-61
9
107
-61
-73
172
83
-64
68
60
-133
-125
-40
-209
-159
-63
-226
-300
-106
-66
-316
-280
-107
-280
-332
-53
-207
-429
-98
-68
-458
-282
52
-197
-191
25
-151
-217
-56
-50
-254
-130
35
-216
-158
9
-256
-343
24
128
-263
-172
40
-227
-190
-11
-142
-253
-65
-56
-281
-146
-2
-261
-253
58
-120
-362
-162
-2
-229
-163
7
-288
-144
148
-88
-158
142
176
-11
96
244
164
242
360
123
33
138
134
-163
-363
-13
-193
-449
-107
-260
-586
-311
-76
-316
-329
-82
-348
-662
-346
207
1136
2702
4064
4194
3308
2247
1027
378
420
133
-220
-227
-294
-570
-420
-231
-475
-566
-469
-534
-557
-348
-411
-551
-357
-327
-677
-607
-151
-282
-540
-297
-239
-382
-396
-262
-203
-379
-236
-169
-369
-248
-71
-187
-208
-41
-224
-234
117
-13
-209
101
130
-251
-49
268
65
-89
22
75
25
223
248
-37
52
148
-289
-267
201
-4
-290
-91
-10
-205
-199
-66
-161
-115
-14
-165
-163
49
50
-214
-154
80
-116
-205
59
-84
-245
-54
-28
-106
-59
25
-20
26
91
-75
-118
91
76
-203
-151
93
-97
-177
117
-35
-344
-6
128
-254
-68
43
-325
-125
85
-131
-117
-185
-208
-73
-112
-54
-102
-208
-104
-156
-240
16
129
-56
8
155
-15
-86
214
188
90
412
346
64
190
262
-3
-115
-54
-181
-359
-144
-98
-454
-391
-115
-260
-429
-199
-178
-346
-372
-390
75
1361
3012
4116
4183
3438
2208
1010
643
673
131
-226
-276
-467
-463
-369
-438
-626
-544
-404
-571
-492
-354
-570
-602
-322
-346
-590
-401
-352
-643
-445
-219
-513
-569
-305
-364
-466
-276
-256
-470
-332
-177
-317
-360
-179
-264
-408
-78
-174
-350
-60
35
-117
-242
-18
37
-266
-60
145
-211
-96
196
-195
-309
60
-116
-318
-86
-177
-399
-295
-151
-362
-463
-196
-259
-520
-306
-191
-475
-319
-85
-474
-449
-50
-258
-430
-234
-181
-362
-233
-71
-308
-357
-123
-192
-369
-108
98
-242
-287
-40
-298
-290
20
-148
-369
-178
32
-216
-310
-41
-155
-328
-111
-145
-414
-140
28
-273
-208
-57
-230
-255
-184
-282
-271
-163
-176
-268
-134
137
9
-215
-54
21
-107
74
272
30
102
436
138
-32
223
75
-178
-119
-95
-347
-353
-141
-377
-493
-185
-266
-389
-215
-263
-386
-402
-367
-530
111
1812
3083
4082
4251
2955
1702
1006
675
362
-67
-42
-198
-537
-397
-368
-599
-488
-331
-538
-521
-311
-525
-743
-372
-179
-496
-518
-272
-374
-474
-292
-409
-470
-226
-210
-426
-435
-189
-301
-432
-123
-137
-295
-60
-25
-306
-191
94
-107
-187
93
35
-113
100
124
-173
-24
264
29
-63
184
110
-102
24
103
-146
-167
40
-191
-388
-86
-184
-462
-154
-77
-343
-230
-103
-331
-375
-231
-257
-307
-209
-112
-292
-282
-140
-299
-294
-79
-112
-356
-310
-102
-219
-203
-35
-234
-285
-122
-186
-296
-178
-6
-222
-301
-58
-189
-315
-88
-100
-271
-171
-137
-303
-198
12
-209
-323
-23
-147
-393
-143
-79
-327
-226
-37
-232
-265
40
39
-135
54
137
-95
-36
211
129
45
274
275
22
162
264
-212
-196
99
-255
-362
-129
-209
-406
-289
-194
-365
-340
-174
-333
-442
-333
-507
-124
1285
2848
4040
4308
3384
2087
1017
679
616
50
-117
-62
-403
-388
-242
-503
-523
-380
-459
-461
-271
-283
-527
-454
-279
-420
-513
-232
-191
-446
-291
-110
-366
-444
-232
-285
-219
39
-131
-310
-17
26
-276
-180
66
-46
-180
42
122
-110
-20
164
-11
-34
49
-57
-34
180
167
-73
103
234
-29
-71
4
-30
-148
-57
-66
-287
-156
-81
-298
-309
-145
-244
-269
-42
-116
-374
-198
8
-241
-306
-19
-94
-263
-51
-84
-303
-58
81
-321
-194
210
-101
-197
108
-59
-302
-44
33
-205
-133
-98
-179
-123
-32
-141
-311
-140
-58
-239
-193
-100
-221
-237
-32
-128
-376
-221
-64
-231
-221
-16
-147
-304
-110
-36
-227
-27
169
-72
-117
133
104
-80
195
281
86
254
261
-137
-122
212
-83
-366
-129
-139
-406
-272
-147
-433
-342
-92
-365
-458
-65
-238
-686
-286
724
1948
3501
4574
3858
2473
1689
903
364
361
90
-391
-376
-238
-479
-556
-418
-437
-507
-412
-326
-602
-535
-233
-403
-446
-280
-380
-508
-243
-280
-600
-384
-155
-243
-329
-262
-226
-299
-215
-193
-329
-193
-5
-155
-224
8
-29
-286
-91
151
-132
-114
139
-77
-182
59
21
-188
47
149
-35
57
146
-65
-267
-6
-5
-338
-105
-18
-356
-289
-74
-255
-493
-246
-152
-433
-216
-66
-291
-291
-152
-235
-334
-108
-84
-269
-181
-51
-213
-288
-26
-65
-250
-100
-96
-317
-167
6
-298
-287
-37
-202
-296
-47
-87
-347
-167
-17
-244
-304
-113
-178
-294
-48
-117
-437
-244
-126
-441
-294
13
-209
-309
-261
-394
-270
-70
-168
-255
-192
-64
-93
-158
-19
-131
-207
98
147
-36
106
125
-79
-15
7
-149
-396
-329
-237
-502
-435
-228
-437
-558
-280
-363
-584
-393
-277
-545
-745
-182
837
2097
3764
4389
3404
2350
1464
523
313
385
-119
-510
-366
-477
-695
-504
-444
-755
-706
-361
-504
-694
-552
-434
-510
-508
-446
-527
-500
-394
-500
-614
-424
-341
-498
-368
-243
-518
-403
-162
-514
-545
-177
-224
-439
-295
-100
-263
-262
-39
-92
-197
-44
27
-229
-174
118
-148
-321
86
54
-124
168
60
-231
-81
-74
-311
-270
-77
-242
-426
-245
-197
-411
-452
-185
-182
-369
-271
-317
-414
-203
-210
-392
-246
-104
-323
-352
-97
-257
-364
-115
-127
-304
-235
-102
-298
-324
-3
-166
-314
-113
-234
-274
-153
-180
-247
-203
-55
-274
-502
-159
-73
-348
-222
-112
-366
-417
-130
-195
-393
-130
-142
-470
-293
-78
-351
-392
-178
-298
-301
-103
-188
-293
-135
35
-109
-177
-16
-132
-111
93
-16
-115
183
371
-26
-51
146
-193
-220
7
-262
-544
-326
-185
-478
-461
-185
-364
-513
-381
-294
-460
-691
-321
488
1697
3325
4312
3954
2967
1913
754
300
324
-84
-328
-187
-442
-705
-434
-514
-806
-637
-361
-591
-769
-372
-416
-640
-414
-445
-737
-530
-276
-544
-597
-324
-362
-555
-387
-373
-671
-375
-139
-356
-407
-205
-142
-376
-214
-61
-333
-242
3
-159
-194
71
-36
-198
10
-39
-232
2
223
-10
-84
139
18
-173
-4
-12
-229
-243
-150
-214
-325
-201
-265
-490
-287
-82
-254
-310
-229
-365
-314
-51
-254
-410
-154
-230
-450
-195
-90
-421
-275
65
-128
-349
-142
-77
-296
-196
-21
-215
-241
-15
-183
-392
-246
-106
-227
-254
-39
-165
-397
-278
-256
-321
-86
-90
-390
-272
-90
-284
-359
-100
-236
-537
-197
-83
-375
-237
2
-320
-461
-75
-126
-204
36
-33
-238
-80
50
-166
-7
338
177
46
209
134
-145
-46
30
-341
-461
-232
-240
-468
-334
-220
-545
-525
-228
-487
-553
-180
-412
-746
-141
1120
2410
3793
4460
3423
2063
1337
577
243
267
-49
-549
-575
-286
-574
-644
-446
-670
-720
-464
-403
-657
-616
-379
-539
-620
-347
-543
-760
-305
-244
-527
-394
-258
-443
-481
-210
-258
-477
-317
-166
-365
-295
-30
-312
-381
-16
-23
-175
-21
12
-183
-46
76
-131
-182
-3
-12
-90
64
-5
-151
27
46
-177
-186
-41
-155
-210
-74
-191
-390
-362
-193
-248
-375
-184
-136
-363
-273
-224
-437
-293
-100
-273
-373
-169
-213
-398
-178
-102
-294
-197
15
-206
-327
-45
-32
-144
-34
18
-190
-124
66
-160
-275
-116
-56
-132
-112
-30
-166
-210
-49
-200
-322
-11
-107
-414
-124
1
-255
-220
-66
-203
-215
-43
-132
-211
-125
32
12
-16
63
-28
-31
193
250
50
181
293
30
-36
32
-126
-228
-144
-246
-403
-298
-234
-447
-401
-185
-404
-450
-285
-444
-538
-455
-129
595
1975
3661
4358
3813
2670
1322
436
549
467
-214
-328
-201
-498
-719
-508
-399
-553
-409
-343
-637
-536
-342
-596
-673
-375
-384
-581
-409
-320
-582
-593
-347
-355
-423
-296
-284
-485
-441
-266
-376
-294
-136
-272
-284
-103
-135
-344
-162
7
-258
-128
126
-230
-291
113
19
-292
-40
72
-94
-36
41
-5
-160
-45
-1
-335
-198
-13
-296
-320
-210
-357
-461
-240
-230
-446
-248
-105
-377
-328
-75
-280
-416
-202
-287
-446
-191
-139
-456
-325
-84
-304
-446
-202
-143
-412
-257
-125
-430
-340
-59
-233
-305
-44
-226
-513
-213
-129
-427
-359
-130
-352
-506
-184
-236
-602
-358
-172
-500
-356
-81
-352
-518
-274
-288
-418
-232
-154
-249
-197
-17
-135
-363
-89
32
-240
-56
166
-37
-114
-2
-124
-233
-43
-210
-527
-389
-354
-562
-482
-296
-470
-594
-308
-355
-646
-402
-408
-826
-427
762
2040
3367
4215
3558
2168
1349
743
199
74
-20
-465
-646
-411
-571
-764
-493
-439
-693
-616
-380
-610
-718
-436
-487
-720
-553
-338
-550
-534
-253
-396
-536
-307
-282
-414
-221
-110
-393
-427
-197
-293
-335
-154
-202
-288
-34
-42
-360
-158
76
-162
-172
147
74
-195
-27
33
-210
-49
227
-8
-230
0
15
-299
-191
-76
-315
-273
-97
-333
-395
-124
-278
-407
-200
-149
-384
-369
-63
-305
-498
-192
-242
-376
-215
-122
-293
-258
22
-191
-287
25
-63
-240
-98
39
-147
-166
56
-103
-302
-58
51
-273
-206
-70
-284
-238
-87
-237
-327
-77
-57
-297
-166
-114
-355
-163
17
-279
-364
-106
-175
-375
-148
-72
-419
-350
-87
-269
-282
-1
-55
-260
-153
22
-55
-35
241
95
-76
326
250
-62
97
37
-180
-121
-158
-399
-498
-277
-217
-500
-399
-279
-556
-437
-98
-248
-532
-534
-153
814
2250
3751
4254
3524
2667
1512
533
579
359
-290
-316
-292
-587
-588
-341
-471
-648
-467
-491
-657
-455
-262
-586
-666
-277
-382
-562
-319
-370
-667
-451
-153
-489
-506
-124
-314
-479
-189
-228
-418
-207
-54
-239
-240
32
-101
-277
9
44
-141
49
142
-52
-20
183
46
-107
188
227
5
89
158
65
22
78
47
-78
51
71
-229
-244
-82
-181
-181
7
-128
-306
-122
-121
-257
-164
-136
-251
-142
34
-103
-163
-59
2
-102
-98
20
-85
-111
62
1
-208
9
47
-199
2
124
-126
-186
77
-66
-237
34
-36
-192
-38
53
-149
-158
64
-74
-309
-83
76
-230
-150
109
-171
-237
26
-88
-280
-84
29
-174
-126
56
-162
-159
186
40
-93
176
134
-38
185
345
174
180
331
105
30
246
63
-184
-149
-164
-325
-320
-161
-302
-491
-317
-258
-463
-340
-171
-419
-627
-361
230
1319
3129
4360
3965
2931
1956
778
391
527
17
-355
-226
-367
-608
-361
-346
-650
-478
-337
-510
-495
-362
-354
-535
-417
-262
-456
-437
-257
-392
-504
-225
-178
-395
-264
-101
-330
-286
-37
-326
-411
-37
6
-215
-135
38
-106
-105
46
4
-60
-5
139
-11
-49
138
-13
-9
236
138
-61
180
235
-51
29
205
-131
-250
76
-92
-222
-1
-95
-259
-135
-51
-207
-246
-94
-204
-330
-67
-11
-292
-150
7
-258
-131
-52
-332
-232
22
34
-150
-41
21
-185
-115
2
-90
-201
-21
-33
-290
-87
79
-196
-238
50
-54
-265
-30
32
-309
-202
67
-207
-221
-13
-131
-225
-75
-100
-252
-130
-39
-184
-158
14
-66
-105
157
177
-189
-81
257
63
59
337
268
166
236
110
11
120
68
-125
-228
-57
-104
-418
-233
-64
-372
-355
-113
-347
-482
-172
-234
-621
-163
886
1973
3597
4627
3881
2533
1652
874
385
339
-2
-444
-248
-137
-538
-571
-394
-520
-571
-379
-368
-623
-496
-258
-525
-545
-243
-384
-517
-283
-312
-506
-342
-166
-407
-498
-231
-265
-436
-183
-10
-276
-211
-22
-198
-178
-16
-66
-184
20
103
-104
1
80
-56
-104
38
9
-132
119
182
-100
13
152
-39
-123
31
-7
-193
-145
-193
-317
-181
-81
-368
-393
-22
-92
-402
-343
-80
-203
-348
-128
-208
-308
-86
-143
-367
-203
-47
-260
-262
-31
-167
-290
-9
-23
-209
-126
-79
-224
-196
-26
-210
-278
-7
-63
-320
-149
-37
-376
-314
-39
-193
-284
-159
-109
-207
-137
-110
-345
-195
-51
-261
-282
-177
-214
-307
-59
5
-272
-79
195
-43
-205
153
163
-61
251
317
39
111
201
-66
-171
28
-220
-415
-151
-145
-362
-344
-225
-390
-496
-219
-162
-384
-338
-452
-592
191
1572
2882
4002
4202
3105
1748
924
594
349
13
-109
-300
-543
-386
-392
-640
-467
-351
-667
-610
-298
-560
-700
-368
-441
-629
-347
-265
-531
-446
-285
-478
-546
-279
-306
-533
-244
-195
-544
-323
-67
-305
-381
-79
0
-246
-183
-17
-231
-202
71
-66
-159
66
-76
-212
24
-46
-124
10
120
25
-161
34
16
-222
-143
-85
-299
-358
-99
-241
-463
-162
-205
-454
-219
-189
-394
-255
-99
-349
-394
-256
-318
-262
-122
-43
-290
-338
12
-118
-330
-51
8
-230
-167
-47
-136
-113
-20
-172
-214
0
-106
-336
-88
-27
-408
-280
-27
-274
-343
-82
-180
-442
-212
-13
-236
-295
-187
-289
-382
-167
-162
-417
-268
-161
-370
-290
-132
-335
-374
-1
-54
-296
-83
2
-200
-78
133
-65
-16
353
207
-65
52
-1
-237
-309
-210
-268
-415
-287
-290
-525
-480
-336
-467
-436
-228
-356
-609
-565
-368
244
1704
3331
4183
3976
2997
1770
762
487
413
-113
-271
-298
-599
-501
-467
-689
-672
-480
-450
-695
-565
-354
-601
-576
-373
-534
-556
-350
-438
-583
-480
-360
-496
-495
-343
-354
-507
-449
-192
-372
-330
-210
-415
-278
-57
-162
-235
-17
-79
-276
-33
9
-254
-167
73
-51
-173
63
33
-213
-15
73
-179
-105
41
-133
-215
-41
-85
-418
-322
-91
-291
-242
-46
-229
-446
-227
-101
-338
-189
-105
-431
-368
-155
-294
-336
-225
-263
-382
-246
-107
-226
-290
-240
-223
-321
-195
-73
-337
-217
10
-411
-501
-92
-175
-422
-245
-153
-362
-236
-66
-352
-402
-158
-268
-444
-249
-186
-360
-303
-197
-292
-324
-121
-226
-514
-254
-182
-492
-256
-41
-312
-319
-72
-111
-217
-25
34
-255
-189
176
1
-164
292
302
-26
81
112
-97
-79
-19
-358
-423
-140
-316
-543
-338
-312
-559
-497
-253
-432
-459
-197
-672
-609
895
2200
3392
4459
3887
2305
1309
819
433
141
-25
-200
-572
-467
-374
-814
-737
-427
-548
-637
-422
-463
-748
-509
-345
-698
-603
-286
-467
-593
-360
-326
-522
-397
-269
-497
-449
-229
-364
-404
-184
-212
-469
-299
-59
-302
-297
69
-54
-299
42
96
-310
-98
169
-121
-114
179
4
-215
62
126
-107
-6
94
-110
-179
-77
-115
-207
-184
-207
-307
-221
-118
-304
-307
-74
-182
-418
-265
-95
-359
-439
-68
-214
-370
-70
-200
-329
-95
-81
-289
-215
-56
-246
-250
-52
-160
-258
-123
-183
-354
-133
-12
-238
-239
-55
-138
-407
-275
-28
-266
-267
-10
-187
-307
-123
-235
-351
-95
-103
-378
-267
-91
-245
-294
-97
-87
-326
-155
22
-215
-46
166
-141
-178
169
141
58
242
221
46
90
228
12
-130
70
-135
-430
-165
-135
-435
-327
-155
-367
-431
-167
-292
-424
-232
-384
-681
-38
1336
2608
3992
4554
3460
2005
1217
705
273
58
-63
-333
-512
-372
-477
-602
-372
-365
-630
-571
-379
-602
-692
-389
-419
-573
-397
-401
-581
-368
-304
-601
-490
-247
-381
-492
-366
-341
-437
-287
-97
-313
-454
-81
-63
-359
-114
12
-257
-158
118
-70
-225
39
30
-199
-22
102
-112
-50
84
-127
-117
120
-55
-252
-70
-94
-367
-353
-102
-198
-310
-21
-114
-343
-107
-100
-289
-265
-201
-274
-312
-112
-166
-293
-70
-68
-324
-150
74
-168
-236
-8
-64
-178
23
21
-224
-127
119
-80
-215
16
-71
-260
-78
-54
-238
-87
-32
-283
-233
-25
-90
-291
-194
34
-171
-120
104
-236
-345
-9
-116
-331
-18
2
-355
-239
52
-67
-33
183
-81
-213
142
252
40
228
379
10
-63
177
64
-218
-76
-53
-418
-342
-92
-258
-312
-104
-259
-486
-255
-154
-358
-377
-458
-203
857
2368
3855
4375
3738
2530
1283
702
679
214
-187
-61
-348
-585
-251
-224
-525
-437
-313
-502
-508
-300
-390
-456
-209
-278
-516
-343
-281
-472
-304
-95
-193
-351
-238
-207
-314
-148
-55
-265
-237
52
-161
-286
54
120
-124
-101
106
-2
-54
188
115
-76
119
207
-83
-20
267
28
-52
318
234
-18
178
72
-191
-49
79
-29
-109
-60
-106
-213
-141
-95
-189
-105
48
-105
-239
0
6
-176
-29
-18
-214
-93
75
-11
-112
-47
8
-194
-118
174
-62
-88
192
-24
-120
63
-43
-126
55
119
-154
-174
59
-36
-124
14
6
-147
-52
97
-121
-111
140
-160
-301
13
-80
-201
52
4
-210
-41
-29
-215
-219
-44
-75
-177
98
236
44
-34
114
129
172
350
309
287
461
406
220
247
367
162
-47
90
-107
-368
-192
-77
-261
-234
-25
-267
-416
-190
-188
-517
-480
154
990
2345
4002
4488
3557
2609
1636
616
568
553
-89
-275
-156
-362
-467
-373
-401
-479
-411
-266
-472
-618
-233
-279
-519
-249
-252
-528
-405
-267
-490
-322
-91
-361
-291
-88
-236
-327
-193
-101
-273
-282
-1
-77
-256
16
6
-217
15
139
-47
96
234
-19
-22
175
150
-1
181
393
39
-15
320
50
-125
193
89
-162
-72
-13
-176
-194
-83
-259
-270
-25
-115
-247
-47
-26
-297
-187
33
-194
-328
-123
-152
-312
-132
7
-232
-217
34
-70
-274
-160
-24
-245
-165
71
-173
-271
4
-99
-224
-1
-83
-234
-57
39
-250
-214
69
-199
-236
9
-193
-279
-136
-168
-306
-160
76
-182
-367
-18
-90
-406
-150
-13
-234
-316
-80
-50
-244
-23
28
-204
16
150
-126
-77
224
45
-53
416
400
105
247
231
0
-86
-4
-83
-261
-181
-190
-309
-204
-126
-311
-291
-56
-232
-330
-175
-349
-165
1071
2448
3691
4595
3987
2541
1458
931
613
221
63
-106
-386
-382
-238
-312
-469
-278
-240
-515
-350
-243
-548
-460
-203
-316
-370
-228
-277
-408
-367
-240
-240
-287
-169
-227
-342
-155
-111
-219
-71
-12
-289
-171
177
-37
-129
193
170
-71
59
302
126
60
293
201
-22
147
356
192
266
416
183
116
286
167
-57
44
48
-109
90
89
-264
-132
155
-7
-159
-3
28
-163
-145
-43
-206
-99
146
-41
-164
49
11
-209
-6
144
-84
-62
117
-18
-89
112
157
-18
16
152
-20
-51
180
24
-98
76
64
-63
-32
132
-50
-61
221
6
-116
131
101
-118
6
163
-79
-70
179
-52
-127
138
-2
-174
88
174
-59
5
134
-18
-31
229
219
37
150
260
112
200
458
439
500
541
311
127
272
298
-41
-87
58
-145
-140
76
-140
-273
-16
-4
-215
-115
80
-153
-441
279
1570
2844
4250
4856
3681
2195
1564
932
593
500
117
-160
-118
-77
-323
-332
-118
-251
-345
-163
-161
-256
-162
-172
-272
-239
-70
-187
-353
-142
-130
-227
-79
-3
-197
-124
54
-87
-78
92
37
-72
101
208
21
47
225
73
5
283
295
61
213
349
165
149
290
222
157
386
355
94
227
296
59
72
207
36
-184
18
171
-103
-106
97
-81
-175
85
-8
-277
1
59
-246
-37
178
-124
-154
101
-28
-112
82
81
-97
28
152
-39
-14
198
100
-39
137
71
-92
18
106
64
-54
44
-4
-167
54
34
-139
24
80
-168
-171
50
-111
-116
162
54
-187
-105
83
-93
-161
143
78
-158
-7
77
-67
38
188
26
30
225
99
7
252
306
208
315
358
111
133
419
71
-162
119
-43
-297
-124
-21
-233
-303
-72
-156
-344
-75
-70
-447
-357
-16
601
2207
3981
4581
3848
2679
1617
758
584
486
-62
-269
-111
-328
-545
-297
-334
-577
-334
-220
-497
-449
-221
-427
-531
-201
-269
-462
-243
-117
-389
-457
-123
-176
-391
-186
-165
-371
-216
-47
-241
-246
19
-83
-226
56
159
-99
42
243
-71
0
312
93
-27
185
150
-30
62
180
73
70
228
137
-102
-34
8
-221
-135
29
-232
-272
-50
-185
-326
-168
-163
-306
-179
-19
-270
-345
-24
-192
-382
-33
14
-327
-163
110
-291
-233
187
-53
-229
-21
-3
-204
-174
26
-81
-210
-25
-61
-142
96
38
-235
-138
-14
-166
-204
81
-29
-301
-108
-98
-292
-179
-58
-292
-265
85
-119
-359
-72
-76
-354
-214
-17
-151
-154
45
84
-100
-18
182
52
113
310
180
231
360
1
-28
277
55
-249
-142
-69
-378
-438
-167
-352
-490
-231
-302
-486
-257
-110
-387
-579
-417
180
1380
3066
4294
4081
3065
2094
1046
438
531
236
-365
-387
-348
-574
-473
-378
-599
-513
-278
-470
-641
-430
-342
-588
-514
-270
-496
-483
-227
-410
-535
-292
-226
-416
-320
-248
-434
-338
-159
-306
-365
-105
-124
-306
-126
5
-198
-266
33
71
-150
59
196
-97
-43
192
-20
-66
242
130
-80
197
196
-146
-14
91
-175
-188
25
-69
-300
-137
-89
-320
-209
-92
-265
-256
-90
-227
-347
-118
-86
-274
-219
-114
-249
-292
9
-54
-435
-145
-5
-255
-91
45
-148
-220
30
-71
-339
-78
75
-203
-157
48
-151
-208
47
-162
-354
30
-3
-258
-78
35
-183
-225
21
-151
-331
-94
-112
-290
-168
-15
-205
-323
-124
-158
-268
-101
-102
-205
-23
82
-107
-85
136
76
-119
121
352
116
201
369
130
34
223
91
-216
-64
-70
-402
-261
-83
-411
-434
-177
-307
-430
-225
-166
-466
-599
-260
487
1854
3589
4509
3974
2984
1955
793
521
635
34
-361
-157
-346
-593
-368
-351
-538
-452
-337
-558
-578
-326
-398
-464
-342
-263
-388
-388
-202
-402
-427
-220
-323
-439
-253
-88
-317
-320
-110
-244
-233
-15
-117
-248
16
82
-141
-28
171
-56
-154
274
232
-29
195
261
-2
75
242
91
114
306
132
-77
78
80
-155
-162
-16
-174
-189
62
-82
-253
-35
-47
-339
-146
68
-266
-271
-31
-117
-169
-11
-26
-245
-119
5
-147
-155
-4
-60
-179
40
-2
-252
-31
84
-202
-205
53
-88
-267
-13
-21
-225
-169
-114
-189
-195
9
-36
-244
-77
-18
-233
-133
-71
-283
-185
17
-104
-341
-149
75
-205
-161
85
-102
-188
47
38
-98
53
73
-31
197
296
70
177
394
264
55
177
216
-74
-120
-96
-220
-212
-149
-249
-236
-77
-156
-388
-246
10
-306
-550
-194
354
1310
3020
4400
4279
3273
2322
1243
644
739
209
-276
-110
-199
-466
-358
-204
-460
-510
-221
-319
-492
-334
-286
-355
-236
-162
-361
-368
-139
-248
-445
-197
-33
-288
-178
50
-231
-273
93
-12
-268
10
148
-57
-23
173
56
48
293
184
90
211
213
156
275
371
194
219
485
337
136
275
301
156
200
297
72
-74
156
165
-22
81
92
-141
-67
161
-41
-179
40
19
-173
-11
25
-245
-67
150
-96
-180
48
-6
-168
2
84
-89
-29
158
-58
-193
64
43
-76
107
164
-116
-100
209
16
-133
115
12
-150
-28
-43
-166
-91
68
-55
-132
3
-61
-157
-12
-14
-211
-102
22
-214
-228
146
113
-173
52
213
-133
-115
235
117
25
278
279
178
259
229
-11
-8
149
-116
-281
-61
-231
-406
-157
-206
-401
-264
-107
-326
-411
-53
-265
-726
-66
1144
2297
3817
4603
3644
2347
1573
794
365
394
156
-354
-410
-185
-370
-496
-316
-369
-499
-268
-202
-487
-370
-151
-403
-453
-188
-339
-576
-261
-85
-364
-331
-187
-245
-263
-80
-61
-330
-169
-59
-230
-87
0
-99
-87
76
155
33
78
200
-59
62
466
85
-85
217
169
53
176
305
125
49
269
122
-36
172
-4
-314
-84
87
-189
-235
23
-124
-283
-11
-89
-276
-77
-74
-284
-211
29
-164
-265
35
-48
-151
88
97
-132
-132
-34
10
8
140
122
-159
67
111
-244
-68
174
-55
-158
116
39
-132
162
130
-192
-64
99
-109
-106
97
-9
-146
10
31
-243
-88
141
-143
-195
97
-70
-249
5
-9
-244
-124
104
-38
-77
194
189
22
74
78
53
181
362
262
198
460
291
1
185
151
-213
-165
-6
-266
-348
12
-69
-381
-224
-145
-295
-278
-95
-249
-504
155
1221
2300
3960
4680
3602
2512
1636
661
447
504
26
-435
-300
-260
-565
-402
-259
-520
-521
-374
-457
-518
-362
-315
-565
-468
-248
-577
-483
-67
-256
-535
-312
-94
-368
-364
-101
-259
-263
-56
-202
-271
12
-62
-330
-103
75
-89
-104
118
78
-136
103
271
-88
-28
345
92
-10
414
285
-54
87
173
19
51
101
-140
-191
-15
-103
-250
-134
-118
-221
-157
-73
-195
-287
-141
-199
-321
-99
-45
-294
-274
-16
-220
-288
17
-123
-259
-70
-69
-241
-86
45
-161
-131
149
-35
-273
-16
28
-257
-290
-46
-103
-115
50
-67
-185
-150
-70
-223
-143
65
-275
-306
83
-27
-270
-133
-111
-215
-93
-34
-216
-271
-101
-64
-145
31
213
-31
-67
108
-16
48
320
303
199
328
363
36
-31
247
14
-232
-36
-101
-353
-237
-119
-339
-250
-62
-330
-326
-67
-208
-415
-379
80
955
2359
4041
4581
3716
2716
1701
653
557
559
-62
-295
-153
-420
-534
-198
-428
-643
-318
-253
-467
-363
-308
-539
-412
-167
-266
-427
-287
-270
-486
-339
-136
-281
-420
-192
-136
-367
-155
-97
-325
-233
-14
-36
-274
-4
237
-136
-11
261
-75
-35
303
129
-35
213
190
-58
114
279
60
123
304
-3
-150
104
32
-214
-18
15
-261
-180
-8
-174
-344
-171
-74
-219
-127
-131
-329
-122
-51
-318
-282
-41
-215
-410
-73
-61
-313
-199
-55
-123
-225
-45
-19
-254
-125
-11
-228
-171
60
-168
-244
-58
-199
-270
-49
1
-279
-220
-27
-178
-259
-90
-135
-401
-196
-9
-292
-305
-60
-246
-438
-98
-72
-312
-142
-82
-192
-51
139
1
-210
-18
81
28
241
283
83
56
140
-10
-78
91
-111
-324
-161
-173
-422
-390
-180
-400
-532
-226
-184
-439
-389
-300
-645
-419
617
1737
3233
4487
4039
2635
1752
1009
362
205
90
-240
-441
-325
-366
-608
-429
-268
-641
-658
-391
-539
-579
-356
-417
-567
-363
-249
-513
-458
-234
-476
-511
-191
-235
-413
-301
-245
-373
-269
-76
-279
-366
-53
-83
-324
-191
57
-110
-88
206
39
-136
49
139
-10
126
262
13
9
243
151
30
179
50
-173
30
71
-214
-193
8
-233
-411
-95
-107
-367
-178
-94
-390
-345
-110
-250
-351
-174
-172
-370
-269
-138
-319
-275
-38
-199
-361
-179
-171
-252
-137
-58
-242
-271
-41
-175
-323
-80
-110
-278
-42
-87
-395
-253
-110
-300
-424
-166
-122
-336
-212
-41
-320
-481
-117
-166
-337
-123
-201
-399
-182
-174
-348
-93
97
-239
-346
72
91
-124
77
273
95
145
221
-56
-49
83
-116
-309
-157
-179
-452
-353
-186
-378
-530
-293
-288
-504
-275
-196
-590
-636
-58
691
1811
3563
4449
3625
2594
1690
658
344
399
-79
-531
-314
-345
-619
-332
-255
-581
-628
-424
-483
-670
-411
-277
-496
-431
-313
-511
-656
-411
-294
-381
-176
-217
-503
-338
-225
-399
-306
-175
-326
-351
-87
-94
-331
-196
-3
-152
-104
135
1
-92
46
34
-117
41
305
13
-28
160
-38
51
247
104
-73
70
-2
-314
-142
22
-196
-326
-148
-139
-412
-271
-20
-215
-228
-66
-266
-331
-71
-75
-269
-134
-19
-165
-149
-75
-40
-48
33
36
-257
-66
222
-121
-168
74
-37
-139
61
-5
-296
-96
74
-178
-160
79
-138
-315
-3
-10
-275
-146
-68
-315
-277
5
-65
-188
-24
-23
-227
-129
0
-238
-282
-16
-189
-406
-43
27
-158
32
177
-2
-44
175
138
17
255
339
95
144
263
39
-56
41
-208
-378
-94
-110
-473
-296
-113
-400
-328
-69
-300
-394
-50
-328
-670
179
1423
2638
4042
4464
3457
2206
1364
682
290
285
131
-265
-354
-211
-398
-610
-418
-334
-508
-412
-280
-444
-450
-234
-351
-530
-290
-230
-457
-295
-195
-528
-366
-35
-264
-431
-150
-88
-348
-250
-69
-191
-234
28
-87
-300
116
186
-122
33
194
18
23
181
87
-31
223
310
-6
142
377
0
-115
253
139
-95
32
53
-147
-138
-11
-298
-292
29
-250
-383
1
-81
-328
-95
22
-254
-251
18
-135
-323
-64
-55
-317
-173
-41
-201
-228
-60
-56
-107
-60
-135
-203
-48
85
-95
-163
29
-39
-251
-86
-18
-203
-128
-8
-162
-190
-19
-72
-226
-128
-29
-270
-272
-30
-190
-181
24
-244
-265
8
-94
-224
-74
-7
-238
-173
186
93
-148
1
117
-11
178
420
219
224
382
77
-65
183
89
-217
-119
-66
-369
-313
-126
-221
-275
-151
-122
-281
-209
-71
-414
-606
75
1083
2305
3943
4600
3591
2453
1555
664
466
502
2
-394
-222
-185
-466
-422
-269
-470
-454
-246
-442
-496
-186
-237
-507
-353
-198
-397
-403
-208
-262
-388
-261
-257
-405
-160
-25
-317
-252
3
-164
-275
-45
35
-171
-125
140
-42
-205
105
205
74
146
98
-54
87
226
1
-42
254
134
-72
232
143
-203
106
188
-193
-201
-17
-178
-326
-106
-97
-330
-201
-66
-277
-305
-202
-248
-280
-112
-84
-358
-225
45
-188
-287
-72
-154
-278
-76
-32
-238
-238
-78
-151
-140
38
-89
-201
-55
-80
-301
-188
-21
-224
-235
26
-159
-417
-120
-61
-262
-121
-66
-304
-270
-36
-175
-310
-158
-112
-286
-196
-21
-279
-291
-12
-110
-187
130
75
-255
-76
161
49
20
258
241
70
187
118
-135
-40
-1
-260
-293
-203
-299
-481
-213
-46
-554
-460
-100
-363
-396
-192
-526
-585
566
2006
3225
4300
4091
2607
1475
949
505
140
12
-149
-453
-401
-336
-595
-629
-387
-460
-646
-544
-421
-538
-498
-300
-524
-584
-323
-401
-519
-334
-306
-562
-382
-173
-415
-427
-230
-227
-357
-187
-142
-362
-195
-39
-170
-186
-6
-37
-171
72
121
-167
-41
226
3
-129
150
105
-63
147
187
-60
-6
178
-23
-173
-40
-140
-237
-39
-87
-368
-273
-86
-281
-321
-78
-186
-371
-175
-176
-386
-202
-44
-226
-294
-120
-155
-315
-163
-27
-230
-237
14
-150
-208
20
-92
-220
-14
9
-315
-225
14
-177
-210
-82
-147
-238
-167
-100
-230
-152
-46
-272
-262
-35
-163
-354
-152
-61
-302
-229
-116
-347
-328
-76
-179
-393
-182
-73
-362
-239
-74
-292
-198
120
-20
-260
38
50
-116
117
205
151
213
234
51
-45
48
-11
-200
-197
-106
-316
-351
-114
-286
-415
-167
-165
-408
-348
-124
-289
-610
-259
554
1677
3302
4381
3948
2843
1926
889
326
382
109
-335
-279
-232
-552
-539
-350
-510
-571
-325
-448
-645
-437
-473
-724
-602
-423
-631
-655
-396
-576
-712
-380
-367
-535
-390
-331
-516
-463
-244
-437
-513
-189
-202
-357
-263
-113
-118
-214
-25
-36
-208
43
83
-132
-93
47
-67
-104
149
18
-216
74
134
-199
-83
-3
-263
-217
-79
-152
-315
-233
-135
-402
-296
-61
-289
-365
-221
-251
-378
-216
-71
-296
-204
-19
-252
-192
17
-128
-250
-41
3
-256
-198
22
-87
-137
46
-36
-212
5
139
-156
-107
124
-148
-252
60
-74
-303
-63
51
-176
-152
37
-157
-282
-19
-42
-288
-76
65
-217
-202
-40
-207
-148
66
-170
-270
-5
-8
-186
-29
192
24
-95
101
168
-12
183
386
122
250
441
114
62
238
131
-84
-137
-76
-192
-245
-94
-142
-268
-81
-71
-329
-193
-9
-323
-460
20
815
2153
3917
4690
3842
2701
1776
825
563
643
83
-285
-30
-173
-537
-332
-147
-358
-403
-244
-367
-466
-168
-196
-415
-288
-206
-356
-315
-136
-255
-311
-108
-183
-290
-106
-181
-298
-148
-45
-97
-90
95
27
-109
68
175
89
28
131
128
82
299
241
12
214
330
88
220
443
243
204
347
226
84
248
250
-3
24
79
-104
-90
175
124
-137
49
183
-144
-47
213
-20
-141
-2
-63
-91
135
148
-36
-57
73
-11
-110
73
107
-120
-34
228
7
-62
294
135
-33
274
111
-138
136
150
-110
-26
175
-16
-69
253
151
-149
-3
189
-23
-71
111
-78
-71
170
-37
-137
75
134
-46
-64
157
106
-1
256
296
-37
117
382
149
183
477
364
223
432
377
78
122
187
-118
-200
75
-77
-219
91
-44
-322
-71
-18
-280
-170
64
-287
-287
699
1888
3234
4583
4415
2763
1762
1285
659
413
259
-44
-255
-214
-222
-450
-370
-237
-464
-457
-212
-294
-464
-360
-244
-375
-441
-142
-233
-439
-149
-181
-451
-198
13
-299
-284
-6
-168
-302
40
5
-350
-157
93
4
52
191
-39
-108
256
213
-59
73
174
-6
-1
302
196
66
295
191
39
127
134
-48
-19
86
-132
-210
73
54
-279
-194
-52
-241
-218
37
-162
-377
4
14
-359
-113
126
-207
-263
70
-27
-196
1
-22
-142
-87
44
-103
-228
2
-51
-112
84
89
-127
-104
52
-118
-83
135
-125
-285
-2
0
-293
-110
122
-193
-204
23
-166
-196
-21
-137
-303
-161
41
-182
-247
-9
-110
-243
39
60
-220
22
119
-177
-25
326
227
130
356
296
-8
102
218
-61
-153
-41
-254
-426
-160
-209
-472
-261
-111
-372
-439
-202
-177
-368
-411
-217
442
1838
3441
4194
3903
3010
1693
654
625
606
-70
-314
-161
-385
-518
-354
-416
-445
-261
-444
-600
-286
-231
-533
-480
-183
-373
-555
-187
-117
-392
-263
-157
-454
-334
-28
-245
-360
-47
-44
-389
-182
141
-52
-85
79
-31
-60
206
107
-94
134
149
-59
34
310
177
4
276
256
7
199
287
-11
-3
186
-76
-365
-149
-114
-321
-188
-106
-302
-314
-160
-248
-343
-123
-159
-416
-219
-82
-265
-220
-59
-223
-348
-130
-157
-349
-123
59
-228
-232
-1
-100
-182
-14
-35
-230
-82
-30
-227
-128
28
-147
-298
-80
-75
-305
-127
-28
-220
-200
57
-162
-446
-60
-3
-279
-210
-32
-50
-193
-132
-117
-292
-106
34
-131
-102
48
-46
-113
246
134
-101
320
364
93
314
425
112
98
169
0
-84
-72
-99
-250
-184
-112
-366
-280
-22
-152
-362
-272
-107
-386
-605
35
985
2113
3832
4542
3744
2756
1679
660
534
562
-67
-346
-144
-267
-467
-277
-266
-555
-452
-258
-468
-511
-335
-415
-545
-349
-200
-442
-401
-273
-465
-415
-130
-236
-373
-90
-205
-470
-218
-50
-207
-136
27
-193
-324
-5
162
-64
-49
129
47
-38
127
182
-6
180
307
3
162
347
71
82
301
108
-87
194
65
-198
31
112
-94
-180
77
10
-240
-7
58
-202
-153
-18
-186
-204
24
-44
-210
-44
30
-158
-88
23
-121
-115
69
-25
-126
98
31
-89
10
52
-7
-65
74
54
-132
90
176
-283
-216
215
17
-192
116
79
-189
12
121
-61
5
27
-222
-133
184
59
-232
-15
96
-147
32
334
87
-117
258
242
-67
258
392
233
477
522
191
156
401
180
-164
44
52
-244
-165
-80
-267
-244
-50
-143
-316
-119
-29
-301
-288
-279
-12
1249
2835
4136
4410
3531
2443
1290
736
728
239
-190
-96
-183
-519
-370
-271
-527
-401
-222
-390
-437
-203
-305
-549
-285
-92
-359
-468
-246
-302
-402
-215
-248
-475
-351
-218
-312
-168
-68
-207
-194
-7
-42
-219
-66
62
-107
-69
132
-27
-96
176
83
-153
60
234
-12
-31
308
178
32
274
151
-66
36
45
-134
-66
49
-143
-215
-58
-110
-269
-149
-20
-216
-178
64
-128
-285
-9
2
-262
-98
43
-331
-288
26
-125
-146
-20
-80
-234
-25
113
-177
-70
105
-156
-159
70
-127
-248
5
11
-253
-162
30
-174
-186
10
-130
-362
-168
59
-164
-120
78
-195
-263
42
-39
-301
-137
65
-184
-118
213
-36
-114
38
-9
63
300
395
125
135
387
198
-77
82
124
-180
-186
-67
-270
-317
-102
-300
-478
-231
-226
-365
-204
-82
-461
-591
160
1123
2473
4144
4391
3190
2201
1313
497
391
320
-121
-370
-279
-349
-525
-407
-364
-595
-489
-229
-459
-599
-317
-310
-524
-361
-286
-537
-522
-269
-257
-411
-323
-238
-348
-295
-151
-359
-352
-74
-264
-413
-128
-62
-235
-48
69
-239
-150
173
-164
-276
161
141
-109
44
146
-53
-24
132
24
-64
104
74
-191
-73
9
-292
-229
-25
-215
-304
-80
-208
-453
-200
-138
-405
-305
-77
-239
-363
-156
-184
-383
-236
-109
-260
-206
-67
-282
-339
-75
-133
-312
-144
27
-256
-264
-4
-271
-333
-1
-101
-274
-101
-94
-274
-243
0
-90
-333
-94
-92
-366
-176
-56
-284
-286
-83
-233
-376
-192
-124
-293
-205
-54
-255
-195
22
-65
-189
16
116
-168
-13
186
-51
47
360
290
67
107
148
11
-29
3
-180
-264
-149
-338
-483
-199
-167
-539
-371
-81
-398
-381
-175
-504
-291
1049
2477
3598
4342
3857
2484
1392
815
480
202
3
-255
-504
-381
-407
-664
-483
-315
-542
-648
-373
-364
-639
-475
-307
-526
-517
-319
-464
-588
-311
-250
-467
-354
-256
-453
-436
-141
-308
-437
-91
-167
-352
-191
-85
-152
-139
-22
-108
-210
58
147
-134
12
202
-74
-23
295
35
-96
280
193
-76
106
127
-164
-101
73
-96
-273
-106
-125
-267
-60
-1
-302
-289
31
-104
-330
-68
-61
-436
-166
89
-217
-236
35
-72
-336
-123
28
-148
-87
-2
-147
-133
8
-64
-151
5
33
-161
-107
49
-115
-196
3
-126
-253
12
46
-215
-137
27
-185
-240
-93
-68
-129
-58
-25
-185
-36
56
-210
-203
6
-133
-102
250
104
-103
15
136
121
129
414
466
254
335
306
97
134
103
-62
-87
39
-82
-297
-66
-42
-292
-160
-45
-265
-251
9
-295
-579
247
1353
2491
4072
4593
3303
2042
1398
658
360
367
17
-305
-191
-112
-344
-434
-297
-354
-562
-394
-189
-406
-397
-203
-354
-352
-133
-278
-487
-291
-190
-319
-169
-82
-282
-277
-36
-109
-287
-55
-25
-234
-94
80
-112
-141
186
62
-173
133
226
-57
26
217
2
-13
276
132
-148
170
265
-83
107
209
-49
-118
-34
-89
-209
31
17
-276
-155
-29
-224
-251
-40
-169
-359
-76
-26
-338
-194
-83
-366
-311
-17
-167
-404
-32
19
-401
-138
116
-126
-220
-174
-99
-158
-83
14
-235
-191
-47
-250
-244
-71
-125
-197
-87
-79
-249
-143
-9
-250
-227
-72
-219
-244
-121
-78
-233
-233
-4
-202
-207
135
-20
-120
108
74
-101
131
322
91
163
360
236
31
126
306
-65
-239
-36
-238
-325
-88
-198
-388
-287
-219
-356
-278
-44
-269
-476
-350
-213
548
2188
3703
4319
3899
2588
1242
665
679
425
-91
-147
-196
-523
-498
-287
-441
-546
-301
-359
-569
-343
-379
-599
-385
-188
-362
-505
-196
-247
-543
-284
-155
-390
-297
-14
-308
-512
-51
-34
-332
-182
-52
-187
-115
100
-92
-203
154
81
-63
117
57
-15
106
231
87
-43
176
209
-53
141
312
-43
-92
176
28
-142
39
-35
-231
-79
-5
-237
-261
-14
-118
-272
-50
-86
-256
-49
-7
-309
-206
18
-159
-187
10
-87
-272
-108
41
-155
-176
62
-106
-226
56
-71
-295
34
90
-173
-50
12
-165
-109
46
-63
-253
-133
-6
-185
-180
-47
-157
-213
-97
-92
-210
-142
-141
-347
-190
-43
-299
-242
68
-80
-241
-21
52
-149
7
251
-114
-141
237
184
126
228
174
-9
33
186
-73
-218
-117
-242
-357
-313
-231
-407
-458
-255
-362
-377
-115
-253
-575
-453
72
1020
2468
3994
4379
3445
2420
1375
439
424
398
-195
-365
-202
-507
-730
-430
-494
-610
-383
-413
-522
-446
-332
-468
-608
-378
-369
-555
-414
-276
-454
-477
-283
-511
-523
-112
-191
-427
-277
-162
-395
-315
-59
-218
-273
-27
-86
-267
-105
-24
-141
-205
58
78
-99
162
42
-174
116
133
-71
-27
132
27
-129
92
90
-319
-310
-122
-292
-249
-53
-244
-431
-127
-131
-441
-226
-155
-399
-255
-66
-261
-349
-97
-108
-392
-152
59
-393
-395
43
-127
-262
-58
-139
-276
-134
-41
-205
-104
58
-190
-302
9
-58
-332
-50
33
-335
-201
75
-206
-269
-11
-69
-258
-94
65
-254
-310
30
-109
-309
-53
-77
-320
-78
139
-3
109
253
-63
-135
278
314
66
233
421
236
194
328
113
-96
76
-52
-328
-172
-66
-318
-341
-135
-149
-288
-225
-191
-311
-202
-307
-406
528
2173
3439
4307
4247
2908
1690
985
686
379
-37
-52
-211
-423
-274
-310
-585
-418
-295
-606
-411
-89
-438
-550
-179
-283
-561
-313
-166
-425
-397
-190
-356
-396
-52
-94
-453
-259
-7
-272
-262
-4
-141
-207
1
5
-140
-161
56
32
-65
168
100
-108
114
166
-66
88
195
66
135
309
146
-83
103
132
-178
-88
104
-270
-267
93
-133
-330
-155
-126
-250
-112
-1
-219
-192
-24
-297
-291
39
-94
-192
-48
-14
-161
-146
98
-83
-257
49
47
-181
-16
97
-113
-118
70
-77
-222
20
-20
-238
-82
8
-257
-311
44
-25
-274
22
11
-322
-154
-96
-289
-148
-3
-173
-280
-93
-136
-356
-188
43
-150
-161
100
-75
-131
181
96
-138
140
369
149
83
218
23
-145
29
-137
-415
-181
-73
-354
-393
-190
-319
-528
-219
-182
-547
-305
-242
-588
-79
1281
2678
3842
4372
3370
1846
1117
739
332
41
-55
-295
-525
-366
-273
-530
-519
-348
-575
-576
-328
-485
-561
-370
-396
-559
-436
-320
-551
-429
-204
-400
-468
-165
-169
-485
-272
-59
-318
-363
-96
-177
-353
-131
-107
-268
-105
51
-121
-172
71
-17
-214
98
215
-122
-35
274
46
-129
211
135
-176
89
79
-261
-121
17
-158
-187
-42
-210
-336
-110
-92
-258
-200
-100
-179
-208
-128
-183
-281
-75
-100
-258
-103
-149
-243
-150
-85
-133
-181
-42
-21
-173
-71
52
-149
-156
127
-43
-307
-61
-3
-303
-150
65
-168
-117
26
-188
-294
-87
-48
-295
-182
-22
-283
-279
-10
-92
-293
-95
-30
-284
-167
14
-198
-159
134
-55
-126
185
188
-39
-16
244
176
61
396
312
30
257
138
-166
-10
49
-271
-319
-80
-236
-375
-153
-241
-446
-183
-56
-426
-457
-224
-329
150
1596
3069
4137
4328
3355
1903
905
746
589
84
-94
-184
-455
-384
-271
-499
-492
-248
-378
-631
-473
-258
-482
-475
-236
-470
-539
-366
-368
-417
-255
-180
-432
-328
-131
-310
-286
-75
-229
-353
-145
-54
-193
-119
-3
-254
-199
132
52
-160
-16
142
-54
9
211
-24
-27
268
185
23
150
241
93
14
123
-23
-229
-18
-2
-219
-79
-50
-289
-207
-43
-189
-209
-38
-111
-243
-30
25
-243
-177
-1
-112
-158
-86
-139
-203
-26
63
-180
-273
-83
-54
-106
76
45
-96
-58
-107
-135
-10
132
-112
-210
91
-2
-190
10
89
-180
-92
63
-210
-218
-59
-49
-55
-24
45
-64
-72
101
-72
-176
109
1
-136
148
121
-5
128
190
104
2
194
252
166
421
433
116
164
257
-42
-71
129
-39
-314
-122
-15
-377
-333
-51
-223
-325
-14
-154
-504
-309
34
671
2108
3808
4551
3942
2858
1729
829
734
598
-9
-233
-175
-324
-344
-224
-328
-474
-273
-209
-526
-401
-207
-423
-419
-213
-352
-545
-196
-63
-396
-350
-169
-311
-357
-158
-200
-363
-142
-106
-401
-173
83
-136
-179
60
90
-145
-22
245
50
39
252
49
-14
312
261
41
231
359
35
72
302
-1
-82
198
133
-115
46
53
-283
-263
-80
-133
-186
-15
-45
-250
-154
-40
-239
-193
-10
-258
-348
-37
8
-228
-69
111
-139
-70
121
-111
-187
60
72
-232
-29
120
-276
-124
154
-25
-189
15
80
-221
-55
119
-187
-210
62
-6
-126
98
31
-243
-57
26
-218
-129
66
-118
-227
-140
-214
-226
48
265
42
8
198
9
-53
200
211
82
260
368
123
114
234
45
-131
93
31
-353
-147
-63
-354
-249
-85
-297
-448
-309
-149
-256
-242
-236
-451
231
1846
3141
3987
4271
3133
1761
1114
640
250
79
19
-275
-528
-348
-332
-588
-461
-303
-538
-592
-300
-450
-663
-319
-258
-472
-325
-292
-485
-385
-254
-415
-475
-197
-189
-467
-261
-79
-400
-354
-19
-140
-265
-5
7
-235
-29
72
-123
-23
41
-73
-89
54
58
-47
67
161
-38
-14
233
0
-140
181
-14
-378
-128
9
-261
-242
-49
-269
-393
-110
-143
-454
-320
-115
-313
-331
-88
-214
-328
-69
-232
-480
-143
-32
-353
-327
-94
-192
-276
-63
-43
-296
-261
-82
-229
-194
-48
-289
-284
-56
-114
-304
-241
-153
-284
-183
-36
-236
-373
-148
-159
-454
-290
-77
-336
-376
-98
-185
-304
-160
-169
-356
-315
-64
-128
-161
58
-21
-198
-31
50
-156
59
321
85
111
292
42
-150
-26
-54
-270
-246
-126
-351
-403
-184
-342
-468
-318
-342
-506
-369
-200
-578
-694
46
996
2316
3941
4359
3271
2198
1352
518
298
276
-113
-480
-355
-360
-586
-502
-382
-563
-647
-388
-447
-611
-376
-389
-584
-400
-343
-536
-516
-340
-381
-494
-303
-312
-506
-350
-206
-348
-333
-121
-264
-388
-203
-163
-233
-129
-9
-179
-221
39
9
-135
90
175
-114
-17
284
13
-69
227
122
-43
115
96
-139
-37
44
-211
-294
-48
-216
-504
-5
-7
-427
-101
1
-311
-257
-100
-302
-455
-197
-98
-298
-201
-90
-316
-274
-77
-241
-274
-30
-179
-322
38
99
-193
-275
-48
-75
-347
-137
-11
-243
-112
7
-258
-241
-36
-137
-292
-92
-30
-335
-206
30
-255
-304
0
-181
-404
-139
-103
-341
-205
-8
-281
-325
-94
-172
-189
55
89
-113
-18
66
-142
-42
193
122
76
245
300
61
89
128
-105
-122
-139
-327
-337
-139
-263
-454
-210
-174
-440
-336
-150
-278
-435
-435
-168
638
2094
3693
4365
3795
2831
1699
685
476
388
-18
-212
-198
-381
-512
-304
-418
-632
-367
-306
-560
-495
-314
-503
-562
-294
-380
-496
-328
-364
-519
-424
-198
-347
-403
-164
-281
-455
-202
-68
-414
-335
51
-177
-269
35
-64
-210
-54
32
-60
-79
126
51
-100
180
82
-134
235
258
-33
89
226
25
-73
125
15
-201
-48
-70
-331
-298
-49
-228
-382
-10
-139
-403
-98
-130
-347
-145
-54
-252
-268
-56
-165
-288
-57
-60
-231
-111
-5
-276
-241
135
-56
-279
30
87
-309
-238
149
-73
-179
73
-142
-281
44
101
-172
-152
33
-188
-290
51
-14
-345
-121
19
-247
-218
-66
-177
-167
-53
-145
-147
0
-25
-273
-148
167
-57
-285
91
244
-39
70
195
-22
103
382
199
145
380
207
-38
159
159
-209
-204
10
-246
-400
-47
-147
-456
-189
-118
-373
-270
-41
-400
-575
278
1292
2512
4168
4630
3330
2160
1435
631
421
436
-53
-501
-239
-107
-466
-449
-243
-485
-536
-268
-372
-518
-316
-259
-528
-412
-163
-399
-415
-81
-221
-440
-194
-113
-378
-298
-54
-243
-313
-165
-151
-217
-100
-2
-170
-36
155
-79
-160
139
114
-92
98
143
18
175
344
140
-24
278
269
50
180
220
-57
-38
125
-136
-136
82
-81
-300
-121
31
-144
-161
-29
-151
-277
-86
-79
-259
-195
-121
-191
-90
29
-242
-266
28
-81
-336
-140
95
-123
-86
99
-207
-254
130
30
-208
35
120
-164
-150
12
-99
-109
41
-27
-180
0
63
-262
-195
117
-64
-162
13
-98
-173
-60
-66
-231
-141
72
-133
-249
11
-60
-151
139
63
-76
-9
50
42
62
396
331
118
398
360
-3
59
206
-54
-194
-23
-140
-374
-239
-119
-266
-200
-33
-277
-384
-106
-167
-440
-326
9
649
2123
3814
4492
3831
2691
1711
872
621
432
-37
-152
-110
-381
-468
-199
-307
-529
-341
-263
-517
-404
-141
-338
-416
-152
-223
-597
-527
-365
-585
-468
-139
-325
-372
-57
-262
-497
-202
-106
-410
-366
-85
-215
-301
-65
-86
-201
-87
-73
-158
-94
209
113
-111
361
241
-249
133
257
-110
23
270
18
-136
60
-28
-268
-27
155
-195
-209
-7
-263
-280
131
87
-198
-17
79
-230
-125
35
-157
-71
82
-23
-154
10
81
-159
-108
96
-69
-194
-48
19
-24
52
159
-81
-159
74
-47
-153
48
17
-197
-84
40
-175
-192
64
-10
-126
19
-37
-99
23
-33
-186
-107
-9
-119
-92
78
-63
-138
12
-28
-91
37
257
125
-65
185
104
-57
289
387
221
302
443
207
65
275
135
-199
-63
13
-229
-280
-165
-192
-347
-175
-94
-315
-291
-178
-258
-401
-255
345
1463
3103
4341
4189
3201
2171
1035
540
678
95
-329
-71
-241
-480
-349
-276
-466
-489
-300
-391
-429
-206
-313
-516
-277
-151
-391
-384
-137
-339
-461
-71
-101
-388
-198
-73
-298
-240
-24
-118
-189
76
84
-128
29
144
-44
44
347
140
-101
172
237
14
73
239
78
49
318
161
62
326
204
-54
111
179
-113
-97
26
-183
-249
13
-81
-315
-102
-122
-376
-214
13
-192
-315
-79
-60
-314
-108
54
-295
-222
38
-144
-276
40
47
-308
-65
204
-231
-246
177
-34
-214
62
-7
-284
-75
121
-231
-224
72
-120
-186
-28
-126
-226
-57
108
-102
-226
18
-80
-245
-24
6
-253
-135
78
-215
-158
40
-183
-75
191
142
-72
52
244
-31
55
398
200
154
433
356
97
189
244
-68
-161
-64
-177
-270
-40
-49
-355
-161
-45
-375
-305
-56
-181
-346
-292
-261
242
1672
3279
4242
4145
3190
1895
876
658
542
18
-172
-190
-419
-358
-191
-397
-628
-370
-275
-553
-428
-391
-594
-436
-214
-370
-500
-313
-324
-453
-318
-210
-397
-406
-87
-303
-535
-103
-72
-437
-225
40
-220
-125
98
-232
-131
215
15
-158
57
177
-14
44
188
15
-64
215
228
-74
139
317
-68
-46
236
-14
-204
-48
11
-202
-232
4
-144
-172
72
-127
-262
-25
-59
-268
-119
-36
-282
-205
56
-113
-298
-6
-8
-357
-207
97
-42
-146
45
-36
-161
12
56
-226
-200
98
-68
-119
140
-5
-185
-3
-13
-194
-78
25
-188
-325
-72
3
-217
-35
33
-234
-87
57
-177
-249
-72
-130
-306
-159
-100
-269
-165
103
-31
-107
141
13
-180
33
211
94
175
323
145
87
345
215
-103
32
-3
-301
-300
-155
-415
-446
-36
-215
-351
-97
-199
-428
-203
-76
-586
-465
675
1862
3107
4417
4309
2866
1835
1032
431
332
198
-155
-397
-287
-383
-627
-443
-396
-630
-409
-226
-431
-539
-358
-330
-501
-386
-360
-463
-411
-270
-282
-438
-314
-244
-382
-147
15
-331
-339
-100
-209
-287
-88
-42
-175
-35
108
-74
-132
127
80
-74
201
237
-3
93
209
56
40
285
198
-122
82
288
-13
-41
139
-133
-221
70
-92
-311
-53
-15
-290
-160
0
-187
-224
-58
-72
-303
-175
28
-223
-211
0
-249
-313
14
-35
-138
124
61
-199
-39
88
-102
-107
63
-72
-189
29
80
-104
1
100
-145
-112
125
-51
-216
36
55
-283
-124
186
-96
-231
73
3
-264
-27
88
-163
-122
-58
-163
-71
111
-77
-220
32
94
-35
105
195
-9
-65
115
175
169
445
445
148
267
345
45
-66
123
46
-230
-141
-127
-347
-256
-183
-286
-253
-91
-139
-293
-85
-234
-641
72
1418
2601
3995
4575
3489
2141
1397
813
376
253
53
-375
-417
-245
-415
-524
-329
-264
-526
-448
-234
-478
-462
-229
-456
-539
-222
-272
-448
-257
-140
-341
-332
-110
-219
-373
-139
-94
-285
-141
-168
-306
-90
90
-68
-185
106
101
-258
-79
209
1
-14
219
-3
-109
249
261
83
219
314
100
72
264
50
-149
46
-21
-180
-26
-91
-337
-194
110
-91
-320
-89
-117
-332
-163
-2
-219
-300
-30
-60
-250
-83
-32
-201
-67
77
-163
-234
-6
-60
-260
-1
90
-283
-95
77
-185
-100
58
-82
-204
-56
-36
-172
-72
33
-173
-302
7
17
-231
-84
17
-145
-122
-53
-184
-156
-23
-126
-252
-102
-77
-199
-50
117
-44
-53
201
68
-37
290
369
95
220
483
163
92
319
74
-63
68
-6
-250
-203
-44
-271
-301
-46
-201
-357
-169
-164
-285
-175
-247
-566
134
1699
3059
4165
4448
3424
1904
1078
892
421
-31
-5
-232
-542
-289
-178
-511
-474
-272
-481
-523
-266
-335
-513
-342
-207
-491
-499
-202
-380
-472
-220
-301
-477
-255
-155
-403
-343
-121
-288
-307
-53
-192
-325
-13
-13
-317
-82
151
-98
-134
102
39
-164
74
101
-197
55
240
65
11
91
74
-47
96
97
-209
-139
-42
-233
-294
-188
-150
-310
-169
-114
-417
-311
-146
-261
-248
-107
-251
-390
-185
-205
-372
-164
-68
-295
-219
-109
-219
-282
-74
-35
-328
-146
21
-262
-238
-3
-175
-282
-80
-140
-279
-171
-21
-194
-295
-54
-141
-328
-149
-44
-352
-315
2
-207
-238
-14
-198
-425
-145
21
-300
-142
37
-241
-156
124
33
-153
34
105
-88
120
348
148
135
361
186
-83
57
60
-256
-130
16
-367
-376
-146
-290
-401
-248
-195
-363
-286
-170
-446
-577
-314
350
1506
3127
4393
4081
2954
1959
908
443
555
165
-293
-223
-258
-454
-412
-377
-579
-535
-257
-399
-530
-275
-274
-557
-437
-213
-406
-445
-229
-345
-470
-227
-183
-419
-306
-67
-270
-391
-108
-75
-335
-182
5
-147
-84
-35
-134
-22
151
34
-156
23
158
-31
-15
169
30
3
175
-20
-28
219
114
-101
25
103
-204
-278
7
-77
-320
-114
-104
-391
-232
-25
-294
-346
-81
-220
-425
-199
-49
-253
-195
-26
-290
-288
12
-156
-352
-107
-128
-377
-121
24
-211
-232
-19
-55
-279
-139
-91
-332
-224
-55
-259
-311
-18
-142
-458
-153
-2
-272
-131
6
-292
-288
-79
-203
-315
-163
-74
-259
-292
-129
-267
-289
5
-227
-449
-128
-53
-319
-209
179
14
-169
47
31
-97
176
272
-9
219
352
-7
69
270
-33
-270
-147
-222
-459
-330
-110
-339
-419
-175
-333
-481
-178
-104
-408
-587
-263
361
1455
3111
4184
4061
3258
2208
929
454
654
72
-377
-159
-298
-577
-439
-441
-692
-493
-222
-422
-511
-363
-456
-545
-281
-271
-542
-347
-215
-501
-467
-213
-283
-458
-269
-186
-429
-326
-163
-290
-284
-58
-168
-290
8
41
-227
-130
172
-14
-138
129
47
-96
98
126
-50
103
302
74
-31
199
105
-85
105
57
-247
-57
54
-235
-234
-40
-167
-336
-144
-127
-265
-153
-68
-259
-259
8
-171
-365
-36
-25
-292
-229
-118
-176
-199
-14
-118
-337
-58
-7
-365
-179
85
-177
-263
-27
-105
-338
-161
-81
-285
-186
47
-120
-276
-114
-225
-331
-70
-82
-332
-232
-33
-227
-391
-134
-172
-394
-203
-172
-348
-157
-28
-320
-314
-74
-204
-243
62
87
-232
-145
113
-49
-4
309
183
55
211
174
-62
-58
38
-270
-338
-145
-350
-490
-269
-314
-535
-417
-244
-352
-473
-222
-284
-784
-421
477
1478
3213
4540
4007
2672
1871
1023
391
473
176
-396
-331
-340
-648
-526
-321
-500
-564
-330
-396
-657
-464
-252
-503
-547
-300
-398
-549
-375
-296
-488
-393
-112
-330
-500
-228
-264
-408
-132
-90
-311
-269
-140
-104
-126
-35
-22
-224
-3
111
-198
-31
199
-157
-198
205
-27
-152
221
187
-54
13
113
-46
-101
58
-69
-308
-146
-92
-259
-188
-64
-227
-324
-28
-129
-410
-205
-180
-345
-282
-156
-240
-287
-112
-131
-315
-230
-13
-231
-305
3
-150
-306
-90
-85
-209
-98
-81
-258
-199
-51
-171
-221
-45
-125
-306
-83
-58
-374
-136
95
-182
-210
9
-154
-340
-52
-62
-445
-227
102
-177
-204
20
-146
-219
-47
9
-59
-7
110
-71
-100
268
143
-41
342
342
18
163
318
30
-109
36
-86
-305
-161
-172
-457
-245
-50
-388
-447
-109
-184
-387
-129
-274
-754
-146
1189
2382
3760
4536
3644
2164
1426
951
225
79
207
-236
-469
-270
-316
-457
-303
-359
-560
-395
-323
-515
-554
-349
-329
-481
-244
-231
-490
-321
-186
-374
-411
-201
-294
-473
-168
-78
-308
-138
-22
-256
-197
25
-142
-128
132
10
-118
118
220
80
4
146
147
-89
98
265
30
73
278
123
39
167
117
-45
7
101
-159
-92
97
-205
-256
-31
-202
-288
7
-7
-281
-231
-32
-222
-338
-38
-49
-234
-100
-25
-159
-138
86
-80
-213
69
-31
-198
9
55
-85
-83
-73
-220
-100
197
-13
-173
49
4
-189
-88
-4
-164
-168
50
-2
-233
-105
40
-286
-199
44
-244
-131
93
-65
-183
-12
-38
-217
-77
104
55
-34
44
53
34
226
311
100
193
329
46
4
204
-34
-235
-13
-82
-383
-358
-184
-222
-257
-104
-250
-427
-174
-243
-495
-402
-216
171
1368
3176
4231
4022
3049
1871
821
479
566
48
-312
-158
-318
-544
-442
-405
-570
-518
-370
-477
-452
-292
-376
-524
-400
-302
-573
-505
-137
-413
-507
-95
-310
-431
-145
-214
-394
-225
-59
-273
-352
-84
-122
-322
-21
65
-209
-128
107
-32
-135
133
46
-153
34
43
-79
79
174
6
-47
109
46
-68
28
-36
-267
-183
90
-193
-426
-74
-149
-429
-46
-66
-450
-190
-21
-255
-307
-137
-197
-328
-151
-71
-294
-161
68
-269
-313
49
-102
-311
14
33
-288
-128
63
-210
-203
85
-112
-263
-55
-110
-270
-183
-24
-155
-328
-132
-98
-308
-178
-18
-290
-240
14
-265
-306
-62
-175
-293
-124
-182
-353
-248
-115
-166
-231
-47
-41
-87
85
62
-144
-163
36
86
92
322
337
52
114
273
19
-85
114
-118
-368
-113
-124
-376
-258
-158
-385
-348
-155
-334
-394
-165
-386
-702
-59
1078
2240
3752
4544
3644
2457
1687
791
372
408
146
-379
-412
-228
-503
-524
-257
-428
-619
-363
-310
-580
-488
-242
-434
-501
-232
-386
-546
-260
-178
-425
-486
-251
-330
-375
-91
-158
-345
-213
-121
-238
-202
-110
-273
-212
1
-160
-125
160
44
-119
58
137
-24
-5
188
160
39
111
215
53
70
271
-44
-164
145
-5
-258
-93
-76
-320
-234
-31
-165
-202
40
-128
-291
-58
-10
-210
-194
41
-178
-339
-24
5
-226
-103
-35
-318
-183
68
-115
-116
40
-26
-122
-98
-84
-131
7
131
-75
-148
78
-93
-331
3
87
-277
-159
108
-111
-181
-12
-70
-187
-80
5
-149
-232
-43
-54
-139
23
-118
-249
-72
-88
-207
-104
62
-70
-58
237
140
-58
117
232
72
204
388
188
278
417
130
28
137
23
-208
-81
-21
-311
-246
-7
-159
-435
-221
-108
-349
-164
6
-444
-572
169
1026
2221
3888
4606
3744
2532
1653
803
436
515
104
-307
-241
-285
-500
-436
-188
-414
-531
-260
-316
-486
-452
-318
-431
-451
-167
-362
-500
-169
-161
-389
-299
-196
-365
-313
-148
-292
-300
-27
-187
-371
-39
13
-259
-145
165
47
-146
81
152
-15
162
175
-112
55
333
74
30
329
184
9
170
195
-69
-1
236
-149
-299
192
50
-323
-104
-11
-244
-152
9
-179
-197
15
-103
-405
-127
-18
-283
12
103
-213
-175
15
-78
-217
-25
30
-170
-24
138
-73
-145
44
-32
-78
76
2
-55
-79
-71
-54
-89
115
1
-225
51
43
-182
-55
67
-106
-212
77
70
-147
59
21
-235
-56
106
-112
-180
53
-89
-309
135
253
-36
76
194
41
-10
224
208
71
376
465
153
243
358
39
-35
196
4
-278
-51
-11
-343
-184
21
-214
-324
-215
-185
-278
-86
-240
-559
304
1680
2848
4146
4599
3445
2010
1259
850
465
275
82
-217
-321
-226
-255
-560
-396
-153
-530
-526
-188
-361
-374
-174
-335
-365
-203
-233
-426
-256
8
-281
-367
-124
-223
-344
-150
-96
-305
-236
16
-148
-323
-53
27
-192
-62
110
-52
34
188
-20
-68
156
16
-107
133
153
-32
85
278
6
-59
220
80
-126
6
23
-227
-197
8
-181
-256
-68
-132
-287
-147
-65
-294
-223
-86
-277
-240
-44
-151
-307
-187
-36
-210
-150
54
-221
-239
67
-71
-283
-27
52
-284
-157
99
-210
-233
30
-125
-254
-96
-15
-239
-277
-32
-172
-229
-23
-179
-365
-131
-17
-267
-229
-34
-248
-276
-76
-241
-283
-14
18
-203
-87
171
-10
-205
125
172
-17
239
245
75
206
256
-20
-191
38
-74
-443
-192
-90
-467
-356
-115
-321
-398
-199
-271
-471
-262
-228
-627
-413
580
1751
3267
4440
3817
2310
1552
897
255
262
163
-308
-500
-315
-420
-662
-430
-381
-663
-442
-258
-683
-682
-309
-450
-640
-393
-271
-535
-475
-224
-421
-554
-190
-189
-513
-232
-114
-399
-253
-63
-362
-443
26
34
-273
-82
22
-203
-56
148
-67
-98
85
22
-74
50
73
-9
86
226
95
-86
147
91
-189
7
-11
-284
-149
-42
-305
-249
-110
-308
-272
-44
-55
-338
-287
-2
-214
-295
-8
-149
-350
-58
-48
-371
-165
-25
-321
-226
44
-13
-178
-54
14
-271
-188
37
-168
-262
0
-94
-294
-41
-26
-326
-235
-6
-231
-297
-33
-150
-334
-100
-3
-337
-353
-18
-168
-348
-103
-87
-285
-121
-92
-344
-216
45
-71
-252
82
70
-253
57
257
76
141
305
163
66
245
217
-107
-122
-65
-292
-230
-147
-426
-384
-136
-266
-436
-225
-58
-357
-300
-150
-582
-355
936
2298
3580
4499
3885
2502
1572
783
394
334
72
-248
-375
-296
-338
-519
-460
-326
-512
-554
-301
-315
-541
-480
-309
-566
-545
-229
-358
-464
-251
-310
-463
-222
-192
-392
-296
-120
-261
-285
-53
-123
-301
-121
-64
-265
20
206
-99
-130
155
115
-117
146
251
-51
48
250
46
25
291
178
-27
162
252
-46
-4
137
-196
-181
127
-112
-353
-80
4
-262
-148
39
-211
-269
-22
-83
-359
-138
38
-278
-174
100
-135
-227
33
-88
-239
73
129
-165
-18
125
-231
-188
166
-63
-332
-10
99
-185
-75
161
-82
-161
89
-24
-217
-48
61
-256
-226
110
-86
-205
-24
-86
-286
-41
148
-208
-132
66
-183
-194
102
60
-115
88
179
-11
0
94
100
232
441
394
209
257
230
-14
68
216
-131
-255
23
-153
-347
-103
-109
-293
-298
-175
-214
-273
-7
-132
-557
31
1224
2327
3904
4818
3764
2372
1672
936
490
373
11
-318
-254
-182
-432
-454
-216
-342
-575
-348
-211
-550
-554
-261
-351
-409
-176
-300
-539
-308
-197
-375
-283
-155
-307
-335
-150
-209
-307
-145
-89
-202
-144
18
-137
-220
122
134
-73
120
155
-57
96
262
0
-62
243
172
1
301
355
42
104
163
33
100
210
59
-62
63
-31
-203
-26
120
-160
-221
37
-6
-188
-117
67
-78
-167
105
-28
-155
64
-90
-165
84
145
-90
-65
112
-68
-86
147
112
-176
-59
199
-41
-13
156
-135
-84
201
35
-78
70
66
-108
-17
128
-60
-136
4
-62
-138
106
134
-107
-117
73
-90
-169
200
134
-21
244
215
-112
-53
334
269
61
376
421
179
248
259
32
34
95
-180
-166
40
-107
-269
-266
-206
-268
-233
-77
-359
-391
5
-258
-613
82
1284
2556
4044
4482
3397
2199
1446
790
330
283
153
-281
-324
-136
-324
-463
-288
-284
-497
-343
-221
-543
-556
-127
-260
-529
-155
-167
-462
-256
-142
-410
-332
-93
-235
-349
-219
-205
-341
-83
38
-271
-245
12
-72
-184
120
56
-267
43
225
-43
-40
205
62
-52
206
83
-62
198
271
-1
35
228
-83
-90
149
-107
-263
-78
-25
-283
-309
-57
-187
-399
-151
-136
-303
-89
-17
-252
-176
-65
-288
-342
-40
66
-312
-195
70
-224
-146
78
-167
-234
-17
-89
-199
-10
30
-223
-258
71
-29
-229
55
-120
-359
-100
-86
-208
-152
-111
-241
-305
-103
-104
-378
-320
-87
-308
-302
49
-91
-179
162
28
-314
-36
81
-157
-50
201
89
105
269
94
-89
6
12
-213
-157
-160
-455
-432
-121
-354
-564
-144
-217
-560
-414
-265
-411
-460
-474
-517
169
1813
3340
4005
3856
2795
1541
775
485
277
-108
-311
-431
-560
-431
-385
-694
-625
-327
-529
-717
-492
-471
-763
-527
-325
-697
-567
-254
-490
-643
-411
-344
-558
-445
-224
-389
-486
-397
-430
-357
-208
-243
-339
-223
-33
-177
-279
-61
-91
-198
5
-47
-282
-17
142
-74
-16
91
1
-35
119
89
-233
-121
59
-217
-232
-43
-153
-433
-355
-234
-542
-556
-327
-394
-489
-356
-224
-417
-478
-195
-274
-393
-168
-264
-423
-154
-186
-431
-214
-116
-286
-229
-124
-411
-495
-88
-141
-386
-319
-331
-377
-293
-255
-461
-446
-287
-429
-416
-230
-268
-421
-339
-216
-427
-527
-236
-327
-546
-329
-219
-429
-443
-155
-265
-422
-109
-130
-317
-154
-51
-229
-290
31
81
-58
199
289
21
11
85
-101
-238
-183
-324
-450
-260
-312
-505
-339
-290
-514
-428
-235
-417
-468
-258
-514
-613
501
2035
3267
4316
4099
2648
1517
832
410
220
61
-275
-585
-440
-316
-516
-684
-565
-520
-663
-472
-420
-732
-615
-326
-457
-571
-292
-348
-644
-405
-336
-550
-362
-194
-405
-520
-253
-255
-485
-221
-15
-361
-363
33
-106
-255
30
61
-130
-39
75
-102
-13
262
-38
-176
178
173
21
158
245
-29
-69
182
45
-80
9
-87
-301
-196
-16
-201
-220
-86
-256
-397
-194
-75
-258
-89
21
-310
-339
-71
-130
-334
-118
-96
-302
-171
-70
-158
-129
-35
-181
-118
147
-31
-220
-40
-3
-296
-148
71
-199
-256
-88
-54
-147
-65
13
-284
-255
68
-131
-282
21
-35
-199
-28
-80
-265
-91
24
-249
-220
16
-169
-200
110
134
23
62
144
100
81
346
338
179
414
469
199
115
200
-29
-100
171
-118
-394
11
48
-273
-189
-42
-200
-256
-1
-62
-278
-255
-275
91
1277
2759
4088
4558
3770
2439
1307
897
745
248
12
50
-165
-289
-158
-232
-409
-242
-214
-494
-272
-41
-344
-397
-165
-217
-358
-169
-111
-356
-272
39
-171
-366
-84
-106
-210
-64
10
-207
-199
157
-19
-182
145
67
-171
152
297
-26
62
353
133
-34
229
231
49
182
299
106
195
478
221
39
270
101
-113
152
178
-175
-146
86
-153
-200
191
43
-257
-31
48
-125
-51
33
-171
-88
228
20
-287
-42
125
-88
-56
188
48
-98
126
81
-89
12
103
-60
-20
256
35
-109
192
96
-168
11
130
-39
-52
78
-49
-170
99
90
-163
66
110
-258
-87
136
-91
-105
120
64
-122
72
179
-28
-5
256
129
10
361
338
149
350
377
112
181
365
75
-52
130
-146
-347
-83
-33
-279
-259
-94
-250
-265
-62
-171
-348
-213
-274
-225
903
2505
3799
4491
3889
2424
1331
933
656
59
-73
50
-301
-453
-287
-333
-518
-344
-206
-571
-455
-99
-335
-426
-178
-279
-481
-281
-176
-381
-310
-88
-253
-367
-152
-144
-346
-108
16
-263
-129
23
-142
-145
57
36
-97
99
149
-19
65
221
111
47
228
164
12
191
257
22
94
327
135
44
178
37
-69
37
90
-54
-94
100
-106
-270
24
-18
-236
-48
78
-200
-220
107
-65
-291
-19
-51
-209
-16
-23
-184
-69
80
-30
-147
11
34
-174
35
192
-64
-9
98
-134
-179
188
98
-380
-105
109
-143
-94
74
-116
-218
48
-47
-311
-33
85
-238
-97
89
-97
-145
83
-74
-341
-22
185
21
39
197
76
-109
117
315
51
121
467
275
191
360
170
-24
88
96
-251
-299
-79
-180
-245
-178
-222
-250
-93
-112
-359
-232
-160
-514
-339
595
1673
3052
4466
4309
2798
1858
1182
507
392
255
-186
-397
-272
-391
-530
-271
-239
-574
-453
-213
-413
-464
-252
-312
-438
-262
-255
-444
-392
-217
-298
-396
-177
-208
-385
-174
-159
-409
-252
2
-135
-237
-32
-102
-281
-26
62
-203
-67
142
-56
-91
170
112
-80
112
218
81
84
170
5
2
260
48
-245
-10
55
-198
-167
-85
-272
-260
-12
-100
-289
-177
-134
-292
-206
-95
-301
-310
-41
-183
-416
-127
-30
-366
-268
-10
-170
-221
-33
-109
-255
-111
9
-167
-186
165
-53
-428
-43
37
-249
-153
-74
-242
-147
70
-186
-193
29
-201
-279
-63
-12
-208
-225
-42
-147
-282
-108
-31
-172
-116
-26
-210
-180
20
-120
-114
161
100
-143
38
61
-123
201
352
185
207
327
210
48
259
160
-216
-129
2
-267
-371
-198
-266
-303
-205
-178
-300
-380
-204
-256
-407
-331
-86
784
2381
3869
4394
3786
2693
1535
699
583
426
-91
-248
-173
-492
-564
-229
-376
-555
-368
-324
-482
-459
-293
-447
-460
-222
-373
-534
-358
-351
-468
-272
-236
-448
-379
-227
-289
-366
-237
-129
-307
-229
-33
-331
-295
64
-121
-286
-17
-6
-158
-24
50
-44
-6
164
87
-54
104
21
-86
249
272
-108
-92
76
-167
-380
-68
-77
-439
-138
30
-311
-264
-27
-208
-310
-63
-102
-312
-170
-72
-313
-269
-15
-238
-302
48
-81
-331
-72
67
-168
-183
85
-52
-226
-25
-46
-191
-15
106
-130
-124
39
-153
-189
72
-105
-266
5
9
-144
-93
49
-99
-238
102
46
-208
27
47
-215
-216
-39
-188
-260
120
38
-327
-106
9
-233
-34
210
28
-88
136
195
-95
81
347
170
292
423
247
117
143
54
-190
-49
0
-254
-237
-212
-332
-309
-171
-191
-348
-259
-99
-294
-412
-396
-237
712
2297
3737
4327
3840
2698
1514
796
638
401
-53
-141
-188
-505
-379
-265
-514
-459
-257
-358
-483
-329
-419
-567
-358
-256
-499
-449
-143
-368
-569
-245
-233
-481
-293
-174
-350
-324
-115
-179
-324
-96
-70
-233
-95
-14
-145
-93
128
8
-75
185
103
-107
52
307
43
-85
327
150
-64
307
269
-113
52
215
-110
-124
98
-98
-230
-19
-104
-272
-83
-7
-225
-241
-54
-139
-225
-73
-56
-258
-133
36
-267
-287
39
-91
-216
110
76
-238
-134
59
-99
-143
141
-1
-210
17
-39
-111
103
7
-148
-12
73
-51
-170
-13
-22
-296
-96
117
-175
-173
81
-93
-235
-31
-18
-206
-80
40
-244
-242
72
-105
-289
10
38
-92
70
226
19
-46
234
136
63
319
373
160
162
236
31
-45
-40
-213
-247
-83
-148
-377
-270
-83
-383
-409
-56
-285
-429
-131
-299
-597
131
1385
2528
4006
4571
3361
2015
1309
754
305
137
-8
-427
-491
-209
-404
-576
-410
-399
-481
-401
-362
-489
-449
-248
-391
-528
-305
-418
-635
-342
-124
-379
-414
-172
-260
-433
-220
-179
-382
-206
-147
-294
-204
30
-109
-274
-9
-49
-209
18
178
-41
-95
144
-25
-174
204
164
-107
122
165
-95
-31
92
-15
-160
-164
-91
-189
-209
-157
-252
-210
-93
-324
-421
-141
-160
-385
-229
-88
-377
-370
-111
-207
-286
-149
-169
-433
-326
-40
-155
-243
-80
-163
-294
-33
-128
-325
-87
-51
-273
-335
-117
-126
-374
-144
-113
-457
-230
-50
-371
-336
-140
-270
-325
-169
-144
-382
-352
-144
-345
-447
-203
-256
-357
-151
-274
-472
-193
-118
-389
-368
-118
-134
-229
-69
-97
-225
-46
121
-3
-13
259
145
-56
80
-27
-200
-55
-69
-412
-381
-123
-298
-502
-228
-209
-587
-461
-197
-367
-410
-241
-568
-669
292
1574
2912
4231
4211
2786
1624
978
468
212
-6
-231
-506
-531
-384
-622
-616
-366
-554
-847
-613
-358
-661
-541
-292
-576
-595
-337
-436
-597
-346
-325
-543
-405
-364
-525
-429
-321
-460
-428
-182
-224
-429
-254
-77
-275
-262
-4
-119
-258
-20
-21
-244
-68
76
-144
-94
81
-10
-75
107
185
-78
-57
126
-84
-107
9
-240
-333
-125
-171
-409
-339
-147
-319
-329
-105
-205
-352
-211
-127
-407
-323
-56
-344
-410
-56
-175
-400
-112
-149
-452
-222
-57
-289
-269
-5
-103
-292
-99
-81
-298
-222
-30
-168
-183
24
-184
-348
-19
80
-276
-129
62
-376
-361
-67
-273
-326
-62
-161
-382
-196
-26
-266
-312
-90
-229
-228
-51
-182
-315
-158
-46
-244
-174
123
14
-219
29
147
-132
18
311
182
161
289
114
-59
109
82
-263
-271
-135
-347
-411
-223
-340
-442
-328
-295
-353
-369
-278
-435
-590
-140
580
1724
3459
4501
3944
2795
1864
823
398
530
42
-460
-338
-240
-502
-600
-371
-498
-633
-329
-371
-621
-498
-383
-578
-454
-236
-491
-485
-312
-440
-446
-320
-337
-370
-317
-228
-346
-442
-84
-213
-531
-223
-114
-207
-94
-34
-170
-115
126
-56
-244
92
124
-132
-20
100
44
38
236
241
-62
106
252
-158
-22
197
-188
-181
0
-177
-246
0
30
-374
-379
-32
-155
-241
0
-93
-344
-164
-68
-258
-161
-51
-245
-252
21
-42
-198
-67
-73
-265
-213
13
-72
-228
-30
3
-214
13
94
-241
-97
112
-176
-187
137
-63
-314
42
169
-275
-255
89
-137
-150
173
-164
-293
121
-44
-332
-72
-18
-300
-204
111
20
-213
-11
107
-63
14
231
89
-76
168
195
13
396
617
181
163
320
127
22
132
83
-155
-84
-62
-328
-233
11
-132
-235
-38
-114
-365
-101
-32
-555
-371
778
1769
3053
4680
4423
2893
2038
1215
510
476
338
-209
-348
-118
-276
-521
-303
-144
-495
-460
-173
-388
-390
-137
-281
-428
-291
-187
-306
-310
-168
-316
-322
-103
-180
-187
-134
-131
-189
-135
94
-111
-180
54
-6
-66
111
156
-63
16
283
105
-44
197
274
146
262
331
65
207
489
149
80
460
299
4
238
208
-175
-96
160
-58
-237
158
171
-124
53
22
-173
-23
52
-24
-107
31
112
-194
-18
46
-255
52
202
-80
-77
159
54
-131
124
181
-79
-24
118
-77
-154
189
133
-137
31
97
-50
-39
60
-64
-168
67
50
-203
-18
55
-248
-46
272
-106
-260
128
59
-191
-31
53
-140
-78
119
-16
-6
148
94
6
125
323
207
236
464
269
120
325
199
-47
73
50
-196
-134
22
-204
-351
-98
-139
-449
-250
-74
-379
-276
-143
-535
-260
1009
2353
3635
4438
3851
2496
1471
905
495
176
48
-238
-519
-276
-215
-592
-598
-395
-414
-432
-319
-389
-623
-459
-301
-544
-542
-349
-463
-548
-321
-315
-496
-297
-175
-477
-419
-151
-372
-414
-88
-193
-416
-144
-6
-268
-123
121
-126
-187
-38
-161
-190
110
116
-115
57
218
21
-92
79
82
-105
39
74
-175
-200
-60
-189
-356
-128
-87
-324
-226
-191
-425
-284
-132
-303
-368
-182
-178
-379
-250
-124
-339
-258
-24
-265
-394
-32
-33
-337
-157
17
-254
-311
32
-139
-382
-7
-86
-352
-81
-75
-330
-199
-39
-219
-287
-141
-184
-343
-203
-40
-315
-373
-75
-140
-392
-210
-121
-409
-256
16
-283
-334
40
-131
-288
29
50
-197
-135
68
-38
15
200
76
190
365
114
-101
107
129
-194
-149
-1
-252
-430
-218
-195
-444
-290
-169
-485
-444
-126
-297
-591
-411
-49
661
2189
3796
4208
3521
2584
1371
510
555
307
-378
-341
-79
-491
-629
-298
-431
-566
-301
-396
-612
-422
-298
-439
-447
-281
-431
-560
-240
-264
-509
-332
-217
-431
-439
-214
-222
-313
-225
-123
-310
-342
-107
-214
-248
94
-1
-244
6
-3
-184
11
164
-5
-48
164
90
-68
148
173
-11
147
190
-18
-11
78
-82
-125
-22
-243
-249
-8
-38
-199
-230
-6
23
-229
-216
-89
-253
-154
4
-238
-184
7
-225
-249
-32
-103
-172
-96
35
-149
-225
89
-9
-245
-41
94
-161
-110
73
-161
-153
46
-109
-288
-169
24
-137
-141
48
-197
-247
1
-156
-262
69
-15
-258
-156
-8
-175
-333
50
16
-244
-43
-19
-170
-15
148
-109
-88
288
82
-115
192
275
45
73
287
194
99
259
207
27
150
67
-232
-144
-56
-223
-256
-132
-218
-396
-170
-115
-440
-297
-138
-483
-464
536
1716
2999
4452
4418
3059
2061
1279
532
387
317
-141
-347
-198
-322
-558
-355
-162
-508
-630
-196
-273
-641
-260
-105
-493
-398
-164
-379
-389
-200
-365
-406
-136
-178
-421
-243
-87
-251
-340
-157
-200
-317
44
13
-238
-74
92
-53
-102
130
102
34
107
149
67
55
220
69
47
350
143
-9
233
168
-84
46
209
-49
-95
82
-53
-153
-61
-117
-168
-42
33
-161
-177
31
-139
-255
-3
11
-242
-214
66
-27
-134
10
-4
-118
17
64
-164
2
62
-134
-100
-90
-50
-18
93
59
-257
-100
172
-93
-183
130
3
-261
-31
19
-139
-27
4
-158
-164
24
-18
-265
0
184
-318
-209
96
-207
-175
66
75
-158
-148
150
17
27
199
31
-5
168
170
94
270
396
280
240
404
256
29
201
47
-217
-75
-163
-261
-60
-27
-213
-373
-105
-40
-390
-119
-87
-552
-142
889
2080
3650
4706
4033
2671
1784
994
510
507
243
-284
-291
-212
-418
-422
-236
-209
-484
-382
-115
-401
-439
-160
-292
-524
-311
-126
-303
-388
-222
-255
-370
-59
-125
-348
-155
-114
-203
-170
43
-69
-235
63
77
-142
7
73
-43
111
217
-26
-39
231
108
33
268
198
37
205
326
166
75
250
258
-50
-34
87
-70
-14
87
-72
-196
-9
-12
-295
-33
68
-268
-107
71
-206
-236
65
10
-234
-122
6
-160
-160
132
-85
-359
93
96
-240
-29
34
-143
-1
147
-35
-125
59
17
-96
31
-2
-152
-19
37
-200
-103
209
62
-189
-67
46
-144
-171
79
8
-164
57
71
-137
9
63
-151
-152
162
174
-13
194
230
-20
46
247
168
183
504
453
154
255
253
15
102
140
-244
-269
17
-168
-308
-200
-291
-312
-115
-20
-234
-225
-38
-421
-443
656
1935
3257
4547
4291
2777
1714
1068
601
279
-14
-137
-308
-277
-140
-446
-515
-256
-390
-499
-243
-372
-542
-319
-309
-424
-463
-293
-258
-491
-328
-247
-441
-207
-135
-507
-363
44
-159
-317
-88
-79
-192
-112
5
-185
-188
126
-4
-154
77
16
-220
45
282
-10
2
280
30
-56
219
155
19
99
44
-132
-47
132
-65
-291
-63
19
-175
-123
-77
-290
-321
-11
-20
-307
-165
-81
-263
-85
-16
-298
-248
80
-111
-390
-14
58
-250
-152
-26
-187
-113
157
-33
-173
9
-85
-184
-54
-31
-239
-194
-6
-197
-174
70
-88
-389
-187
77
-179
-203
-7
-197
-328
-48
-89
-447
-321
-37
-147
-238
-55
-221
-311
76
84
-156
0
66
-127
6
305
159
-21
256
317
70
16
159
-4
-226
-101
-232
-430
-162
-147
-419
-276
-112
-320
-531
-250
-77
-403
-414
-135
437
1998
3709
4316
3773
2720
1639
648
454
379
-223
-220
-150
-519
-576
-343
-355
-601
-506
-386
-591
-470
-249
-563
-615
-317
-389
-486
-280
-304
-642
-433
-133
-366
-417
-229
-295
-371
-240
-282
-255
-204
-196
-192
-243
-34
-40
-238
-42
127
-244
-231
165
-52
-139
95
0
-169
58
189
-106
-95
109
10
-25
52
-124
-241
-59
-85
-231
-107
-85
-245
-318
-133
-133
-362
-110
-67
-396
-294
-62
-191
-275
-26
-145
-346
-55
17
-231
-152
43
-201
-328
10
0
-237
-34
79
-248
-199
54
-201
-307
5
-72
-318
-117
-32
-235
-109
-57
-387
-257
-28
-159
-252
-178
-84
-354
-349
6
-195
-383
-85
-78
-349
-155
-25
-263
-168
50
-65
-102
58
-35
-148
119
277
128
143
294
162
-46
87
5
-255
-127
-163
-417
-269
-72
-335
-473
-223
-270
-453
-294
-198
-412
-514
-339
149
1272
2831
4116
4242
3337
2186
972
479
606
111
-349
-156
-240
-494
-606
-550
-469
-384
-288
-560
-637
-377
-402
-618
-389
-169
-614
-667
-176
-387
-624
-288
-282
-423
-270
-202
-411
-420
-159
-330
-403
-161
-233
-248
-82
-67
-231
-132
77
-89
-217
47
101
-159
-19
141
-104
27
236
-35
-115
134
128
-135
-12
140
-193
-226
35
-190
-349
-77
-27
-254
-142
-20
-323
-261
-37
-267
-392
-235
-182
-297
-184
-40
-264
-180
-48
-266
-325
-62
28
-184
0
3
-284
-79
127
-35
-217
14
118
-159
2
118
-179
-183
74
-80
-223
39
24
-103
-10
68
-96
-207
19
-66
-239
6
26
-201
-196
-55
-248
-315
30
-172
-334
-68
-129
-317
-260
-36
-112
-94
167
-44
-179
133
186
34
217
391
123
58
325
-48
-275
156
-19
-424
-235
-90
-341
-392
-217
-277
-329
-147
-186
-376
-356
-368
-418
329
1940
3271
4220
4257
3020
1729
971
647
333
6
-139
-378
-478
-286
-382
-629
-476
-286
-489
-620
-366
-472
-726
-264
-200
-665
-448
-256
-541
-485
-290
-506
-578
-256
-268
-457
-289
-179
-339
-327
-141
-242
-334
-164
-167
-279
-107
36
-135
-212
-22
-2
-140
61
163
-103
-80
106
62
44
122
67
-18
92
30
-234
-114
87
-212
-402
-104
-75
-394
-230
-29
-318
-272
-115
-285
-337
-81
-101
-372
-185
-131
-320
-164
-41
-268
-283
-124
-127
-206
-169
-47
-205
-203
9
-220
-282
88
-68
-385
-60
17
-343
-127
23
-300
-254
-38
-140
-272
-74
-34
-297
-195
26
-165
-397
-160
-81
-347
-153
4
-314
-278
-43
-214
-307
-78
-117
-213
26
72
-165
-140
99
70
62
232
169
92
262
187
-119
-55
55
-257
-376
-108
-244
-457
-230
-206
-363
-322
-198
-332
-440
-136
-271
-575
9
1151
2435
3950
4545
3469
2221
1422
688
265
278
91
-372
-341
-293
-514
-402
-265
-453
-567
-380
-333
-504
-477
-307
-398
-497
-322
-342
-536
-339
-236
-500
-374
-164
-309
-404
-171
-108
-447
-244
35
-260
-166
65
-212
-272
111
58
-238
37
145
-122
58
298
64
-90
209
153
-150
147
294
-18
-24
95
-37
-82
103
41
-251
-142
-44
-333
-228
9
-240
-260
10
-201
-427
-200
-91
-283
-255
-132
-246
-263
-62
-83
-305
-124
9
-269
-174
50
-137
-223
61
-19
-321
-83
44
-222
-166
-5
-189
-161
63
-90
-271
-78
-7
-349
-286
98
-150
-344
-58
-68
-314
-157
28
-257
-299
-70
-191
-217
-3
-149
-336
-97
69
-39
11
113
-45
-38
255
297
60
178
365
51
8
201
-112
-240
-7
-131
-355
-329
-299
-418
-338
-229
-384
-377
-194
-164
-371
-543
-228
582
1991
3729
4374
3647
2651
1579
618
454
420
-123
-367
-226
-428
-664
-409
-287
-535
-478
-289
-439
-540
-356
-461
-577
-296
-299
-546
-488
-328
-414
-492
-303
-201
-368
-334
-136
-268
-356
-167
-293
-256
34
-200
-244
29
-140
-253
12
111
-96
-112
111
7
-158
52
145
-89
-65
226
54
-116
144
26
-186
67
8
-305
-195
-24
-190
-327
-70
-112
-335
-140
-101
-342
-265
-48
-316
-398
-96
-102
-304
-257
-121
-309
-285
-93
-239
-291
-42
-80
-224
-46
-99
-284
-149
-25
-220
-303
7
-145
-345
-68
-119
-353
-292
-105
-229
-371
-205
-288
-538
-369
-264
-511
-429
-248
-480
-557
-276
-296
-512
-366
-342
-561
-374
-114
-296
-380
-58
-89
-328
-73
39
-208
-76
179
79
141
333
78
-108
125
-14
-314
-123
-112
-389
-349
-214
-380
-464
-212
-198
-419
-370
-193
-362
-638
-300
477
1560
3263
4547
4042
2932
2065
845
363
519
108
-373
-336
-331
-665
-476
-153
-602
-725
-283
-474
-747
-333
-214
-577
-478
-239
-536
-569
-219
-361
-541
-383
-339
-358
-227
-190
-424
-409
-89
-248
-410
-143
-201
-296
-88
15
-175
-227
110
10
-229
159
218
-151
40
255
-123
-158
210
127
23
223
106
-100
-17
-68
-125
-130
-75
-97
-381
-196
-93
-451
-264
-118
-346
-329
-202
-199
-332
-272
-203
-380
-278
-121
-303
-366
-210
-234
-375
-269
-123
-257
-266
-23
-143
-246
-99
-229
-382
-156
-60
-357
-357
-36
-106
-326
-125
-186
-395
-228
-191
-321
-227
-92
-314
-347
-134
-294
-370
-143
-120
-350
-310
-19
-199
-427
-107
-115
-406
-157
-50
-263
-76
86
-109
-64
127
52
56
203
256
110
151
366
153
-39
109
7
-347
-207
17
-226
-300
-113
-226
-341
-79
-204
-413
-172
-149
-485
-469
397
1529
2901
4330
4460
3135
2106
1432
584
458
395
-139
-366
-193
-305
-629
-346
-122
-554
-610
-254
-318
-485
-285
-362
-537
-316
-225
-420
-412
-286
-479
-446
-90
-116
-452
-286
-101
-383
-262
-109
-340
-299
-86
-102
-266
-86
173
-110
-146
163
-12
-105
142
119
23
181
201
11
48
274
242
106
227
103
-66
121
93
-65
-39
38
-46
-181
-1
-3
-280
-91
118
-149
-200
-46
-170
-187
65
-32
-271
-49
27
-272
-203
51
32
-42
16
21
-200
-57
47
-208
-20
143
-118
-137
149
90
-112
41
172
-97
-208
30
-11
-113
136
30
-385
-103
172
-202
-100
210
-93
-175
94
30
-199
-70
160
-30
-120
101
4
-163
124
242
13
210
344
57
110
394
297
270
549
422
143
201
142
-11
41
130
-42
-205
-14
-74
-372
-81
111
-290
-188
21
-189
-267
-298
38
969
2497
4147
4493
3751
2769
1622
829
661
489
-36
-128
49
-263
-398
-155
-329
-450
-137
-245
-461
-222
-88
-365
-420
-144
-195
-384
-143
-34
-337
-221
-31
-240
-207
9
-130
-296
-6
26
-266
-8
165
-106
-45
165
49
-125
87
236
20
116
216
28
90
243
148
39
177
292
156
167
256
19
12
273
37
-208
83
120
-211
-168
10
-142
-189
52
-45
-325
-76
92
-205
-147
-27
-193
-159
-7
-165
-224
98
110
-136
-69
99
-128
-189
99
-25
-126
94
6
-209
-74
100
-83
-104
130
-36
-181
67
122
-117
-145
49
-92
-208
28
-124
-262
39
7
-152
-6
94
-121
-288
-26
24
-111
151
218
-44
-48
125
-7
-61
317
288
115
413
365
71
199
209
-64
-65
122
-78
-325
-103
-60
-378
-258
-44
-267
-377
-203
-192
-322
-178
-329
-323
756
2339
3687
4403
4030
2670
1423
915
642
209
30
-6
-398
-538
-120
-243
-523
-289
-238
-509
-516
-282
-352
-451
-235
-221
-419
-268
-210
-434
-303
-161
-361
-290
25
-93
-364
-76
24
-296
-162
-23
-205
-103
105
21
-86
146
222
-11
-105
30
56
-87
128
169
-120
9
219
-41
-19
271
76
-51
235
98
-220
25
-14
-352
-169
106
-151
-282
-17
-129
-327
-136
-82
-212
-107
27
-147
-308
-10
-23
-263
-66
-42
-165
-39
13
-121
-142
-36
19
-45
-37
29
-89
-49
129
-59
-163
94
1
-230
-21
129
-157
-224
56
-104
-312
-60
-11
-177
-29
69
-199
-168
97
-80
-237
-11
-39
-111
119
163
-27
-17
188
45
-37
349
331
83
266
299
11
80
224
-127
-275
-21
-47
-325
-226
-76
-415
-432
-152
-243
-309
-126
-151
-556
-610
-94
592
1930
3736
4422
3663
2684
1773
662
415
562
-131
-350
-99
-408
-595
-352
-311
-541
-375
-282
-523
-460
-302
-402
-487
-305
-359
-538
-314
-214
-431
-280
-203
-469
-386
-49
-162
-491
-220
-67
-381
-193
104
-157
-245
-18
-40
-200
-62
27
-114
49
230
-20
-193
165
260
-17
54
191
57
35
231
45
-218
82
99
-311
-80
91
-246
-287
-96
-85
-184
-7
-39
-247
-84
-45
-275
-304
-118
-68
-140
-74
-63
-207
-144
-22
-169
-203
30
-88
-225
78
47
-377
-123
241
-59
-55
131
-119
-251
-11
-30
-283
-101
124
-139
-193
-52
-153
-162
75
26
-294
-118
66
-261
-234
24
-241
-301
-65
-106
-216
-90
137
-12
-95
116
23
-90
204
285
-94
122
466
107
48
333
15
-277
11
-93
-454
-240
-67
-337
-337
-102
-188
-357
-154
-224
-412
-210
-376
-477
343
1637
2911
4125
4284
2945
1812
1204
706
370
71
-90
-351
-457
-301
-409
-666
-483
-275
-520
-574
-441
-622
-649
-464
-487
-579
-528
-466
-508
-424
-324
-467
-523
-327
-415
-565
-352
-259
-450
-454
-252
-364
-444
-115
-65
-301
-148
9
-264
-238
66
-51
-229
6
149
-118
-113
44
-76
-55
140
101
-68
66
32
-246
-153
-41
-232
-235
-56
-252
-422
-154
-131
-474
-316
-88
-356
-326
-80
-215
-367
-182
-118
-333
-323
-116
-235
-318
-167
-291
-335
-105
-72
-240
-147
-29
-231
-151
-30
-256
-250
4
-173
-400
-132
6
-285
-398
-86
-97
-288
-113
-129
-384
-267
-74
-277
-325
-69
-226
-390
-185
-176
-293
-156
-34
-314
-260
108
-148
-305
60
148
-140
-117
214
136
126
434
292
-49
140
214
-187
-137
-57
-298
-265
-110
-363
-557
-104
-101
-497
-276
-147
-448
-328
-276
-597
10
1411
2810
3980
4295
3464
2176
1180
765
575
125
-85
-183
-442
-479
-305
-379
-665
-361
-278
-621
-385
-269
-486
-413
-266
-413
-457
-292
-406
-559
-329
-171
-429
-352
-91
-401
-518
-146
-79
-230
-157
-31
-208
-210
129
-102
-319
197
156
-301
15
113
-215
38
328
91
22
232
175
70
287
293
9
131
249
-4
-16
163
72
-130
-50
117
-146
-98
177
-102
-143
22
-127
-206
49
118
-244
-179
150
-92
-135
189
11
-179
69
107
-222
-96
249
-9
-112
186
48
-204
33
150
-68
6
142
-14
-28
97
37
-88
74
112
-144
-7
130
-181
-154
157
24
-102
94
87
-218
-108
131
-83
-127
47
-22
-139
27
63
-178
19
314
71
-18
226
157
66
303
323
160
327
386
-6
-88
164
45
-141
-11
-30
-309
-281
-56
-251
-406
-147
-228
-468
-227
-51
-495
-581
276
1219
2623
4322
4482
3277
2173
1275
549
360
307
-60
-362
-281
-322
-537
-411
-306
-599
-546
-287
-386
-349
-247
-365
-529
-359
-277
-515
-323
-242
-471
-499
-355
-176
-280
-225
-132
-369
-237
-5
-214
-234
-29
-105
-183
-34
-20
-182
-20
92
-194
-130
132
96
-65
16
190
12
45
256
27
-12
263
133
-59
62
22
-252
-102
106
-259
-326
10
-48
-287
-130
-2
-255
-195
19
-157
-185
15
-85
-291
-134
109
-208
-278
106
-167
-308
42
-7
-187
-67
26
-122
-139
70
-76
-223
11
-119
-280
38
62
-247
-208
91
-71
-348
-97
-103
-329
-140
-63
-273
-220
5
-162
-333
-72
-103
-394
-192
5
-305
-287
58
-143
-261
38
-11
-178
-59
72
-17
3
215
131
93
196
154
52
60
81
-195
-294
-100
-288
-411
-191
-282
-416
-231
-181
-391
-402
-220
-367
-591
-242
433
1539
3263
4391
3944
2797
1842
875
353
473
157
-376
-225
-182
-630
-564
-206
-425
-627
-330
-330
-618
-390
-192
-442
-492
-320
-368
-501
-220
-194
-537
-341
-272
-385
-270
-179
-236
-414
-214
-45
-288
-266
-26
-175
-162
68
-133
-189
52
-1
-176
-11
109
-191
-139
228
-6
-161
74
14
-45
54
85
-62
-156
16
-101
-285
-112
-126
-399
-304
-64
-349
-400
-79
-210
-404
-186
-229
-461
-221
-78
-372
-342
-115
-413
-392
-12
-153
-340
-204
-128
-335
-242
-50
-326
-427
-101
-78
-333
-236
-106
-232
-312
-200
-291
-338
-78
-194
-434
-181
-44
-366
-407
-136
-252
-417
-158
-158
-494
-327
-101
-469
-603
-181
-81
-291
-264
-290
-414
-247
-118
-257
-199
61
-136
-353
4
51
-194
-30
172
127
138
169
-14
-58
78
-31
-294
-267
-112
-423
-491
-178
-317
-535
-340
-255
-505
-310
-58
-548
-743
-96
726
2027
3775
4455
3412
2445
1696
545
354
453
-59
-426
-304
-348
-622
-505
-312
-544
-583
-408
-598
-572
-351
-425
-580
-434
-252
-443
-449
-265
-393
-466
-273
-231
-440
-497
-302
-356
-453
-248
-251
-401
-170
-40
-331
-257
-34
-213
-239
16
-73
-226
40
90
-177
-48
133
-71
-129
100
15
-45
149
82
-64
-43
155
-47
-278
70
-24
-295
-32
-55
-367
-143
55
-310
-321
-5
-197
-363
-70
-141
-353
-111
29
-182
-221
-47
-153
-301
-55
-28
-301
-164
34
-108
-270
-64
3
-240
-82
-6
-276
-228
11
-153
-279
-10
-74
-217
-61
-78
-286
-212
50
-138
-401
-101
-69
-266
3
-27
-256
-96
-34
-224
-275
-63
-81
-169
26
99
-3
39
216
-15
-36
405
321
145
394
423
75
94
264
-55
-184
76
-50
-291
-101
-103
-385
-200
40
-276
-311
-94
-222
-340
-292
-170
227
1524
3308
4314
4241
3290
2006
1008
729
719
97
-159
-77
-377
-416
-254
-366
-500
-296
-303
-527
-354
-207
-436
-414
-149
-299
-481
-306
-253
-491
-268
64
-266
-292
-43
-233
-351
-74
-18
-321
-191
29
-244
-200
120
-22
-139
73
148
-19
-47
164
70
-4
253
168
3
166
260
-30
13
317
110
3
227
36
-174
15
-7
-266
-235
86
-74
-188
28
-154
-273
-131
-74
-227
-87
146
-246
-264
88
-121
-301
-59
-16
-229
-176
-52
-124
-77
33
-37
-166
14
164
-159
-179
35
-61
-142
-9
-110
-266
38
60
-275
-152
80
-131
-263
-19
-86
-352
-111
-122
-296
-28
-6
-291
-212
49
-153
-257
-30
-40
-197
-80
119
-136
-146
191
26
-47
285
265
82
209
244
45
82
192
-111
-267
-58
-80
-327
-330
-86
-307
-466
-171
-256
-518
-334
-73
-436
-652
-71
671
1896
3681
4528
3723
2581
1591
583
439
440
-74
-321
-240
-393
-544
-324
-328
-597
-517
-316
-513
-593
-361
-359
-495
-432
-339
-483
-450
-286
-478
-493
-225
-292
-446
-388
-348
-384
-255
-203
-349
-319
-152
-228
-403
-92
34
-230
-113
52
-142
-153
83
-70
-248
-113
-16
-90
10
147
-120
-83
172
8
-155
-33
44
-265
-369
-15
-154
-313
-52
-195
-461
-239
-126
-420
-278
-27
-272
-367
-136
-86
-332
-172
7
-269
-139
24
-221
-235
-81
-183
-252
-58
-28
-213
-155
-71
-165
-163
-7
-40
-192
-80
-62
-263
-186
21
-217
-321
-14
-140
-350
-96
-58
-337
-283
-44
-174
-325
-136
-124
-321
-74
-52
-509
-223
60
-205
-181
46
-18
-150
62
17
-179
-15
274
253
103
260
278
89
132
226
-17
-54
76
-205
-327
-103
-239
-482
-168
-132
-438
-299
-174
-361
-311
-186
-508
-602
338
1698
2913
4136
4206
2876
1758
1143
590
249
105
-140
-385
-319
-271
-662
-644
-315
-478
-556
-389
-381
-563
-508
-408
-595
-525
-369
-478
-474
-282
-300
-513
-394
-188
-403
-430
-206
-344
-393
-163
-184
-332
-189
3
-272
-399
-50
-135
-322
-60
-179
-316
-22
19
-212
-182
46
-63
-259
-9
116
-156
-88
63
-97
-213
-101
-137
-377
-254
-81
-377
-355
-71
-384
-402
5
-104
-350
-183
-64
-357
-398
-203
-302
-224
-26
-193
-344
-162
-3
-326
-220
157
-92
-154
14
-43
-136
-95
-57
-267
-198
48
-246
-320
15
-169
-402
-13
106
-233
-200
5
-166
-301
-36
-123
-281
-104
-247
-445
-162
201
-130
-332
-29
-104
-289
-104
-126
-332
-198
-164
-201
-134
-93
-183
-314
-100
56
-218
-118
233
54
-94
169
222
42
235
376
219
309
415
218
55
202
134
-204
-42
87
-189
-188
-77
-247
-289
-69
-156
-408
-154
-46
-383
-384
-132
365
1576
3213
4370
4215
3251
2199
1014
523
638
278
-122
-87
-194
-410
-435
-419
-442
-452
-265
-358
-560
-263
-321
-570
-340
-188
-395
-349
-118
-369
-418
-128
-334
-364
-176
-262
-248
-187
-65
-177
-361
-55
-86
-365
-129
-109
-264
-163
-1
-25
-135
48
144
-116
